Data from test_V78500241_3077.txt Node
Date: Fri Mar 25 15:31:17 CST 2022
User: usil
Spectrometer: V785-0024
Trigger mode: 0
Integration Time (sec): 4.000000E-1
Scans to average: 1
Nonlinearity correction enabled: false
Boxcar width: 0
Storing dark spectrum: false
XAxis mode: Wavelengths
Number of Pixels in Spectrum: 1024
>>>>>Begin Spectral Data<<<<<
801.071	27256
801.214	27241
801.356	27024
801.499	26876
801.641	26670
801.783	26807
801.926	26868
802.068	26697
802.211	26800
802.353	26598
802.496	26518
802.638	26412
802.78	26453
802.923	26351
803.065	26328
803.208	26168
803.35	26347
803.492	26514
803.635	26533
803.777	26495
803.919	26495
804.061	26807
804.204	26659
804.346	26564
804.488	26495
804.63	26571
804.773	26613
804.915	26629
805.057	26625
805.199	26461
805.341	26541
805.483	26720
805.626	26758
805.768	26499
805.91	26560
806.052	26682
806.194	26571
806.336	26735
806.478	26781
806.62	26537
806.762	26746
806.904	26982
807.046	27310
807.188	27169
807.33	27104
807.472	27233
807.614	27100
807.756	27009
807.898	26956
808.04	26830
808.182	26838
808.324	26994
808.465	26944
808.607	27131
808.749	27302
808.891	27447
809.033	27374
809.174	27492
809.316	27336
809.458	27359
809.6	27233
809.741	27382
809.883	27336
810.025	27542
810.166	27663
810.308	27561
810.45	27519
810.591	27401
810.733	27275
810.875	27340
811.016	27245
811.158	27306
811.299	27374
811.441	27439
811.582	27591
811.724	27294
811.865	27237
812.007	27355
812.148	27199
812.29	27275
812.431	27397
812.573	27633
812.714	27701
812.855	27854
812.997	27797
813.138	28112
813.279	27804
813.421	27793
813.562	27736
813.703	27606
813.845	27344
813.986	27302
814.127	27127
814.268	26948
814.41	26952
814.551	26853
814.692	27039
814.833	26948
814.974	26765
815.115	26910
815.256	26830
815.397	26788
815.539	26750
815.68	26796
815.821	26507
815.962	26678
816.103	26556
816.244	26651
816.385	26442
816.526	26499
816.666	26377
816.807	26024
816.948	26358
817.089	26317
817.23	26282
817.371	26191
817.512	26195
817.653	26046
817.793	26145
817.934	26248
818.075	26164
818.216	26180
818.356	26149
818.497	26126
818.638	25986
818.778	25890
818.919	25856
819.06	26092
819.2	26111
819.341	26107
819.481	26164
819.622	26358
819.762	26503
819.903	26362
820.043	26298
820.184	26358
820.324	26282
820.465	26446
820.605	26271
820.746	26164
820.886	26084
821.026	26199
821.167	26237
821.307	26191
821.447	26206
821.588	26088
821.728	26031
821.868	25849
822.008	25620
822.149	25643
822.289	25658
822.429	25491
822.569	25244
822.709	25415
822.849	25145
822.99	25240
823.13	25285
823.27	25160
823.41	24897
823.55	24920
823.69	25027
823.83	25004
823.97	24905
824.11	24776
824.25	24745
824.389	24764
824.529	24897
824.669	24764
824.809	24848
824.949	24840
825.089	25004
825.228	24886
825.368	24570
825.508	24601
825.648	24783
825.787	24658
825.927	24738
826.067	24528
826.206	24563
826.346	24764
826.485	24635
826.625	24753
826.765	24741
826.904	24726
827.044	24391
827.183	24380
827.323	24403
827.462	24483
827.601	24380
827.741	24391
827.88	24486
828.02	24239
828.159	24357
828.298	24281
828.437	24292
828.577	24357
828.716	24532
828.855	24350
828.994	24136
829.134	24251
829.273	24095
829.412	23980
829.551	23954
829.69	24148
829.829	23939
829.968	24152
830.107	24167
830.246	24049
830.385	23939
830.524	24026
830.663	23897
830.802	23866
830.941	23615
831.08	23592
831.219	23809
831.357	23882
831.496	23954
831.635	23661
831.774	23577
831.913	23512
832.051	23425
832.19	23516
832.329	23501
832.467	23356
832.606	23326
832.744	23292
832.883	23292
833.022	23322
833.16	23341
833.299	23379
833.437	23330
833.576	23520
833.714	23436
833.852	23463
833.991	23463
834.129	23535
834.267	23604
834.406	23372
834.544	23524
834.682	23509
834.821	23440
834.959	23551
835.097	23402
835.235	23509
835.373	23459
835.511	23395
835.65	23376
835.788	23269
835.926	23117
836.064	23064
836.202	23102
836.34	23147
836.478	23326
836.615	23269
836.753	23246
836.891	23208
837.029	23292
837.167	23212
837.305	23307
837.443	23025
837.58	23128
837.718	23265
837.856	23044
837.993	23044
838.131	23223
838.269	23018
838.406	22965
838.544	22835
838.681	22736
838.819	22683
838.956	22668
839.094	22455
839.231	22710
839.369	22725
839.506	23006
839.643	22824
839.781	22618
839.918	22470
840.055	22569
840.193	22535
840.33	22516
840.467	22481
840.604	22668
840.742	22801
840.879	22348
841.016	22470
841.153	22398
841.29	22683
841.427	22603
841.564	22447
841.701	22455
841.838	22447
841.975	22356
842.112	22367
842.249	22375
842.385	22253
842.522	22630
842.659	22405
842.796	22280
842.933	22181
843.069	22238
843.206	22242
843.343	22363
843.479	22352
843.616	22341
843.752	22154
843.889	22120
844.025	22211
844.162	22131
844.298	22158
844.435	22093
844.571	21968
844.708	21998
844.844	22097
844.98	22185
845.117	22097
845.253	21968
845.389	21903
845.525	21994
845.661	21911
845.798	21785
845.934	21892
846.07	21698
846.206	21926
846.342	21956
846.478	21869
846.614	21568
846.75	21408
846.886	21572
847.022	21629
847.158	21576
847.294	21523
847.429	21576
847.565	21485
847.701	21850
847.837	21317
847.972	21112
848.108	21412
848.244	21294
848.379	21093
848.515	21180
848.65	21150
848.786	21249
848.921	21047
849.057	21233
849.192	21032
849.328	21237
849.463	21173
849.598	21005
849.734	21089
849.869	20777
850.004	20986
850.14	20918
850.275	20788
850.41	20716
850.545	20724
850.68	20807
850.815	20986
850.95	20937
851.085	21119
851.22	20967
851.355	20952
851.49	20906
851.625	20765
851.76	20731
851.895	20857
852.03	20731
852.165	20918
852.299	20952
852.434	20960
852.569	20906
852.703	20857
852.838	20963
852.973	21013
853.107	21051
853.242	20849
853.376	20762
853.511	20682
853.645	20674
853.78	20823
853.914	20826
854.048	20743
854.183	20754
854.317	20887
854.451	20876
854.585	20746
854.72	20800
854.854	20804
854.988	20606
855.122	20792
855.256	20613
855.39	20682
855.524	20804
855.658	20682
855.792	20872
855.926	20819
856.06	20800
856.194	20720
856.327	20667
856.461	20724
856.595	20746
856.729	20735
856.862	20823
856.996	20891
857.13	20758
857.263	20838
857.397	20975
857.53	20724
857.664	20765
857.797	20880
857.931	20864
858.064	20849
858.197	20815
858.331	20727
858.464	20549
858.597	20568
858.731	20743
858.864	20686
858.997	20712
859.13	20720
859.263	20788
859.396	21009
859.529	20598
859.662	20689
859.795	20640
859.928	20815
860.061	20895
860.194	20998
860.327	20765
860.46	20735
860.592	20750
860.725	20929
860.858	20876
860.99	20686
861.123	20632
861.256	20769
861.388	20750
861.521	21294
861.653	20632
861.786	20678
861.918	20526
862.05	20522
862.183	20613
862.315	20590
862.447	20674
862.58	20651
862.712	20434
862.844	20549
862.976	20492
863.108	20598
863.24	20785
863.372	20385
863.504	20377
863.636	20431
863.768	20400
863.9	20526
864.032	20427
864.164	20442
864.296	20480
864.428	20492
864.559	20511
864.691	20549
864.823	20454
864.954	20427
865.086	20415
865.217	20396
865.349	20252
865.48	20389
865.612	20366
865.743	20454
865.875	20183
866.006	20267
866.137	20332
866.269	20336
866.4	20358
866.531	20389
866.662	20320
866.793	20286
866.924	20332
867.055	20347
867.186	20377
867.317	20199
867.448	20225
867.579	20126
867.71	20187
867.841	20202
867.972	20286
868.103	20328
868.233	20415
868.364	20358
868.495	20328
868.625	20415
868.756	20518
868.886	20381
869.017	20423
869.147	20484
869.278	20644
869.408	20503
869.539	20495
869.669	20682
869.799	20609
869.929	20609
870.06	20621
870.19	20921
870.32	20880
870.45	20815
870.58	20899
870.71	21020
870.84	21093
870.97	20960
871.1	20948
871.23	21085
871.36	21058
871.489	21093
871.619	21055
871.749	21154
871.879	21165
872.008	21294
872.138	21176
872.267	21028
872.397	20986
872.526	20876
872.656	20971
872.785	20956
872.915	21237
873.044	21245
873.173	21203
873.303	21237
873.432	21264
873.561	21302
873.69	21184
873.819	21188
873.948	21252
874.077	21245
874.206	21169
874.335	21218
874.464	21161
874.593	21389
874.722	21359
874.851	21500
874.979	21428
875.108	21500
875.237	21363
875.365	21294
875.494	21416
875.623	21378
875.751	21431
875.88	21382
876.008	21542
876.136	21545
876.265	21804
876.393	21899
876.521	21911
876.65	21850
876.778	21778
876.906	21759
877.034	21785
877.162	21717
877.29	21709
877.418	21736
877.546	21743
877.674	21819
877.802	21743
877.93	21751
878.058	21614
878.185	21576
878.313	21679
878.441	21743
878.568	21568
878.696	21698
878.824	21804
878.951	21861
879.079	21972
879.206	22040
879.333	21991
879.461	21823
879.588	21865
879.715	21956
879.842	21964
879.97	21800
880.097	21534
880.224	21477
880.351	21523
880.478	21618
880.605	21583
880.732	21564
880.859	21804
880.986	21701
881.112	21545
881.239	21473
881.366	21329
881.493	21241
881.619	21207
881.746	21233
881.872	21218
881.999	21100
882.125	21009
882.252	21093
882.378	21173
882.505	21165
882.631	20963
882.757	20872
882.883	20952
883.01	20876
883.136	20811
883.262	20693
883.388	20670
883.514	20830
883.64	20830
883.766	20769
883.892	20602
884.018	20560
884.143	20937
884.269	20891
884.395	20606
884.52	20587
884.646	20511
884.772	20423
884.897	20400
885.023	20488
885.148	20511
885.274	20667
885.399	20621
885.524	20556
885.65	20636
885.775	20507
885.9	20587
886.025	20606
886.15	20503
886.275	20514
886.4	20404
886.525	20431
886.65	20412
886.775	20522
886.9	20514
887.025	20674
887.149	20514
887.274	20282
887.399	20355
887.523	20362
887.648	20362
887.773	20183
887.897	20324
888.021	20320
888.146	20214
888.27	20400
888.395	20351
888.519	20339
888.643	20431
888.767	20305
888.891	20138
889.015	20077
889.139	20157
889.263	20088
889.387	20153
889.511	20290
889.635	20256
889.759	20122
889.883	20039
890.006	20107
890.13	20119
890.254	19932
890.377	19909
890.501	19978
890.624	19845
890.748	19795
890.871	19658
890.995	19708
891.118	19613
891.241	19765
891.364	19651
891.488	19761
891.611	19674
891.734	19704
891.857	19689
891.98	19613
892.103	19658
892.226	19700
892.349	19635
892.471	19480
892.594	19480
892.717	19578
892.839	19422
892.962	19647
893.085	19556
893.207	19495
893.33	19487
893.452	19537
893.575	19613
893.697	19495
893.819	19708
893.941	19765
894.064	19765
894.186	19491
894.308	19552
894.43	19624
894.552	19738
894.674	19632
894.796	19468
894.918	19651
895.04	19571
895.161	19632
895.283	19647
895.405	19548
895.526	19563
895.648	19518
895.769	19578
895.891	19590
896.012	19670
896.134	19605
896.255	19651
896.376	19594
896.498	19559
896.619	19655
896.74	19567
896.861	19597
896.982	19849
897.103	19978
897.224	19791
897.345	19814
897.466	19666
897.587	19723
897.708	19970
897.828	19772
897.949	19814
898.07	19689
898.19	19788
898.311	19909
898.431	19769
898.552	19693
898.672	19986
898.792	19822
898.913	19864
899.033	19704
899.153	19723
899.273	19616
899.393	19483
899.513	19556
899.633	19670
899.753	19704
899.873	19525
899.993	19480
900.113	19464
900.232	19502
900.352	19499
900.472	19384
900.591	19316
900.711	19415
900.83	19259
900.95	19445
901.069	19445
901.189	19228
901.308	19080
901.427	18913
901.546	18973
901.665	19023
901.784	18943
901.904	18901
902.023	18844
902.141	18513
902.26	18490
902.379	18540
902.498	18509
902.617	18486
902.735	18494
902.854	18479
902.973	18418
903.091	18182
903.21	18079
903.328	18087
903.446	17916
903.565	17988
903.683	17942
903.801	17794
903.919	17908
904.038	17904
904.156	17783
904.274	17779
904.392	17729
904.51	17760
904.627	17737
904.745	17745
904.863	17771
904.981	17493
905.098	17349
905.216	17368
905.334	17463
905.451	17402
905.569	17440
905.686	17501
905.803	17383
905.921	17227
906.038	17395
906.155	17235
906.272	17033
906.389	17102
906.506	16923
906.623	16934
906.74	16946
906.857	16824
906.974	16866
907.091	16976
907.208	17113
907.324	16965
907.441	16873
907.557	16656
907.674	16634
907.79	16615
907.907	16668
908.023	16599
908.139	16683
908.256	16645
908.372	16538
908.488	16550
908.604	16413
908.72	16367
908.836	16462
908.952	16367
909.068	16379
909.184	16470
909.3	16367
909.415	16409
909.531	16409
909.647	16154
909.762	16120
909.878	15994
909.993	16090
910.108	15987
910.224	15949
910.339	16090
910.454	15994
910.57	15869
910.685	15831
910.8	16051
910.915	16074
911.03	15873
911.145	15793
911.259	15644
911.374	15759
911.489	15637
911.604	15538
911.718	15428
911.833	15431
911.947	15382
912.062	15344
912.176	15523
912.291	15443
912.405	15511
912.519	15637
912.633	15641
912.748	15534
912.862	15355
912.976	15230
913.09	15252
913.204	15306
913.318	15245
913.431	15389
913.545	15317
913.659	15397
913.772	15192
913.886	15119
914	15089
914.113	15070
914.226	15176
914.34	15089
914.453	15032
914.566	15070
914.68	14956
914.793	14910
914.906	14735
915.019	14720
915.132	14571
915.245	14746
915.358	14686
915.47	14670
915.583	14720
915.696	14708
915.809	14899
915.921	14811
916.034	14632
916.146	14651
916.259	14545
916.371	14648
916.483	14575
916.595	14492
916.708	14484
916.82	14518
916.932	14480
917.044	14518
917.156	14465
917.268	14282
917.38	14366
917.491	14294
917.603	14339
917.715	14355
917.826	14324
917.938	14305
918.049	14309
918.161	14202
918.272	14522
918.384	14434
918.495	14164
918.606	14142
918.717	14176
918.828	14142
918.939	14176
919.05	14008
919.161	14115
919.272	13993
919.383	14024
919.494	14164
919.604	14427
919.715	14084
919.826	14058
919.936	14096
920.047	14252
920.157	14103
920.267	14225
920.378	14157
920.488	14050
920.598	14370
920.708	14450
920.818	14278
920.928	14244
921.038	14366
921.148	14347
921.258	14126
921.368	14050
921.477	13772
921.587	13811
921.697	13826
921.806	13780
921.916	13662
922.025	13525
922.134	13571
922.244	13483
922.353	13605
922.462	13476
922.571	13388
922.68	13225
922.789	13122
922.898	13225
923.007	13141
923.116	13168
923.224	13110
923.333	13247
923.442	13034
923.55	13057
923.659	13065
923.767	13080
923.876	12890
923.984	12954
924.092	12909
924.201	12962
924.309	12859
924.417	12924
924.525	12821
924.633	12833
924.741	13757
924.849	12627
924.956	12856
925.064	12673
925.172	12620
925.279	12604
925.387	12646
925.494	12589
925.602	12684
925.709	12662
925.816	12494
925.924	12559
926.031	12646
926.138	12544
926.245	12627
926.352	12471
926.459	12681
926.566	12662
926.673	12544
926.779	12422
926.886	12391
926.993	12251
927.099	12213
927.206	12106
927.312	12235
927.419	12296
927.525	12232
927.631	12239
927.737	12194
927.843	12030
927.95	11874
928.056	11992
928.162	12091
928.267	12076
928.373	12662
928.479	12057
928.585	11843
928.69	11920
928.796	11973
928.901	11965
929.007	11684
929.112	11866
929.218	11927
929.323	11855
929.428	11794
929.533	11893
929.638	11688
929.743	11691
929.848	11722
929.953	11707
930.058	11608
930.163	11383
930.267	11501
930.372	11532
930.477	11421
930.581	11661
930.685	11486
930.79	11349
930.894	11334
930.998	11292
931.103	11459
931.207	11033
931.311	11075
931.415	11014
931.519	10778
931.623	10710
