Data from test_V78500241_1000.txt Node
Date: Fri Mar 25 15:16:49 CST 2022
User: usil
Spectrometer: V785-0024
Trigger mode: 0
Integration Time (sec): 4.000000E-1
Scans to average: 1
Nonlinearity correction enabled: false
Boxcar width: 0
Storing dark spectrum: false
XAxis mode: Wavelengths
Number of Pixels in Spectrum: 1024
>>>>>Begin Spectral Data<<<<<
801.071	28474
801.214	28371
801.356	28207
801.499	28078
801.641	27892
801.783	27895
801.926	28021
802.068	27903
802.211	27979
802.353	27975
802.496	27682
802.638	27591
802.78	27511
802.923	27580
803.065	27538
803.208	27671
803.35	27637
803.492	27785
803.635	27953
803.777	27854
803.919	27865
804.061	28211
804.204	27808
804.346	27857
804.488	27907
804.63	27880
804.773	27739
804.915	27861
805.057	27937
805.199	27907
805.341	28021
805.483	27964
805.626	27953
805.768	27949
805.91	27930
806.052	28040
806.194	28025
806.336	28196
806.478	27994
806.62	27972
806.762	28261
806.904	28207
807.046	28653
807.188	28390
807.33	28500
807.472	28379
807.614	28417
807.756	28497
807.898	28257
808.04	28272
808.182	28375
808.324	28348
808.465	28329
808.607	28523
808.749	28519
808.891	28816
809.033	28713
809.174	28729
809.316	28535
809.458	28694
809.6	28687
809.741	28858
809.883	28831
810.025	28866
810.166	28927
810.308	28824
810.45	28896
810.591	28999
810.733	28801
810.875	28660
811.016	28702
811.158	28622
811.299	28820
811.441	28755
811.582	28797
811.724	28679
811.865	28702
812.007	28717
812.148	28656
812.29	28873
812.431	28835
812.573	29075
812.714	29022
812.855	29128
812.997	29345
813.138	29478
813.279	29372
813.421	29372
813.562	29185
813.703	29246
813.845	28877
813.986	28645
814.127	28535
814.268	28500
814.41	28523
814.551	28322
814.692	28512
814.833	28367
814.974	28554
815.115	28405
815.256	28276
815.397	28386
815.539	28207
815.68	28268
815.821	28177
815.962	28284
816.103	28291
816.244	28131
816.385	28090
816.526	27888
816.666	27759
816.807	27701
816.948	27865
817.089	27838
817.23	27778
817.371	27816
817.512	27778
817.653	27701
817.793	27690
817.934	27648
818.075	27679
818.216	27800
818.356	27743
818.497	27564
818.638	27443
818.778	27511
818.919	27618
819.06	27595
819.2	27625
819.341	27698
819.481	27804
819.622	27937
819.762	28070
819.903	27941
820.043	27960
820.184	27895
820.324	27800
820.465	28044
820.605	27869
820.746	27854
820.886	27720
821.026	27994
821.167	27728
821.307	27930
821.447	27854
821.588	27732
821.728	27534
821.868	27427
822.008	27169
822.149	27233
822.289	27226
822.429	26914
822.569	26864
822.709	26811
822.849	26914
822.99	26796
823.13	26788
823.27	26727
823.41	26579
823.55	26347
823.69	26590
823.83	26526
823.97	26423
824.11	26332
824.25	26358
824.389	26427
824.529	26495
824.669	26389
824.809	26465
824.949	26594
825.089	26545
825.228	26343
825.368	26347
825.508	26142
825.648	26408
825.787	26396
825.927	26400
826.067	26244
826.206	26263
826.346	26343
826.485	26393
826.625	26256
826.765	26408
826.904	26404
827.044	26122
827.183	25993
827.323	25936
827.462	26142
827.601	26050
827.741	25997
827.88	26027
828.02	25978
828.159	26050
828.298	26115
828.437	26088
828.577	25837
828.716	26130
828.855	26012
828.994	25795
829.134	25784
829.273	25807
829.412	25860
829.551	25628
829.69	25795
829.829	25890
829.968	25860
830.107	25655
830.246	25700
830.385	25791
830.524	25597
830.663	25487
830.802	25563
830.941	25255
831.08	25365
831.219	25282
831.357	25483
831.496	25559
831.635	25297
831.774	25240
831.913	25270
832.051	25088
832.19	25107
832.329	25259
832.467	25095
832.606	24970
832.744	25023
832.883	24989
833.022	25091
833.16	25053
833.299	25038
833.437	25027
833.576	25282
833.714	25095
833.852	25179
833.991	25148
834.129	25187
834.267	25221
834.406	25088
834.544	25126
834.682	25103
834.821	25255
834.959	25285
835.097	25065
835.235	25122
835.373	25160
835.511	25072
835.65	25008
835.788	24916
835.926	24871
836.064	24642
836.202	24707
836.34	24878
836.478	25000
836.615	24859
836.753	24962
836.891	25000
837.029	24992
837.167	25000
837.305	24856
837.443	24810
837.58	24764
837.718	25012
837.856	24764
837.993	24627
838.131	24878
838.269	24525
838.406	24677
838.544	24715
838.681	24403
838.819	24384
838.956	24201
839.094	24194
839.231	24308
839.369	24479
839.506	24582
839.643	24399
839.781	24220
839.918	24178
840.055	24201
840.193	24201
840.33	24079
840.467	24079
840.604	24300
840.742	24407
840.879	23999
841.016	24171
841.153	24057
841.29	24292
841.427	24235
841.564	24243
841.701	24136
841.838	24095
841.975	23935
842.112	24125
842.249	23946
842.385	23992
842.522	24095
842.659	23912
842.796	23851
842.933	23874
843.069	23935
843.206	23824
843.343	23950
843.479	23954
843.616	23950
843.752	23764
843.889	23733
844.025	23878
844.162	23589
844.298	23729
844.435	23611
844.571	23524
844.708	23745
844.844	23805
844.98	23718
845.117	23775
845.253	23615
845.389	23608
845.525	23615
845.661	23608
845.798	23459
845.934	23425
846.07	23448
846.206	23330
846.342	23474
846.478	23391
846.614	23231
846.75	23105
846.886	23075
847.022	23162
847.158	23227
847.294	23102
847.429	23121
847.565	23181
847.701	23337
847.837	22866
847.972	22782
848.108	22953
848.244	22900
848.379	22938
848.515	22694
848.65	22725
848.786	22752
848.921	22713
849.057	22866
849.192	22782
849.328	22942
849.463	22733
849.598	22725
849.734	22679
849.869	22535
850.004	22474
850.14	22599
850.275	22531
850.41	22531
850.545	22367
850.68	22462
850.815	22436
850.95	22447
851.085	22596
851.22	22565
851.355	22417
851.49	22516
851.625	22421
851.76	22443
851.895	22325
852.03	22497
852.165	22474
852.299	22508
852.434	22428
852.569	22508
852.703	22527
852.838	22588
852.973	22573
853.107	22675
853.242	22474
853.376	22337
853.511	22082
853.645	22318
853.78	22428
853.914	22310
854.048	22166
854.183	22192
854.317	22367
854.451	22493
854.585	22363
854.72	22249
854.854	22394
854.988	22280
855.122	22242
855.256	22223
855.39	22352
855.524	22310
855.658	22299
855.792	22299
855.926	22314
856.06	22348
856.194	22371
856.327	22154
856.461	22257
856.595	22131
856.729	22192
856.862	22382
856.996	22432
857.13	22394
857.263	22523
857.397	22367
857.53	22280
857.664	22280
857.797	22280
857.931	22394
858.064	22287
858.197	22519
858.331	22325
858.464	22181
858.597	22268
858.731	22295
858.864	22257
858.997	22306
859.13	22196
859.263	22322
859.396	22352
859.529	22200
859.662	22337
859.795	22242
859.928	22219
860.061	22390
860.194	22504
860.327	22295
860.46	22398
860.592	22405
860.725	22402
860.858	22478
860.99	22249
861.123	22215
861.256	22257
861.388	22246
861.521	23124
861.653	22204
861.786	22070
861.918	22086
862.05	22143
862.183	22173
862.315	22211
862.447	22158
862.58	22238
862.712	22067
862.844	21983
862.976	22185
863.108	22128
863.24	22405
863.372	21873
863.504	22021
863.636	21930
863.768	22017
863.9	21960
864.032	21926
864.164	21972
864.296	22097
864.428	22055
864.559	21960
864.691	21994
864.823	21987
864.954	21968
865.086	21918
865.217	21854
865.349	21835
865.48	21884
865.612	21827
865.743	22006
865.875	21739
866.006	21861
866.137	21778
866.269	21800
866.4	21907
866.531	21823
866.662	21778
866.793	21918
866.924	21816
867.055	21861
867.186	21781
867.317	21694
867.448	21865
867.579	21732
867.71	21587
867.841	21633
867.972	21667
868.103	21679
868.233	21797
868.364	21793
868.495	21846
868.625	22006
868.756	22128
868.886	22025
869.017	22013
869.147	22147
869.278	22070
869.408	22067
869.539	22070
869.669	22158
869.799	22086
869.929	22131
870.06	22143
870.19	22318
870.32	22204
870.45	22394
870.58	22432
870.71	22512
870.84	22550
870.97	22318
871.1	22424
871.23	22607
871.36	22630
871.489	22428
871.619	22588
871.749	22649
871.879	22744
872.008	22710
872.138	22763
872.267	22542
872.397	22440
872.526	22413
872.656	22470
872.785	22344
872.915	22771
873.044	22683
873.173	22767
873.303	22573
873.432	22687
873.561	22729
873.69	22725
873.819	22641
873.948	22679
874.077	22615
874.206	22607
874.335	22634
874.464	22729
874.593	22949
874.722	22786
874.851	22820
874.979	22877
875.108	23010
875.237	22782
875.365	22748
875.494	22850
875.623	22957
875.751	22691
875.88	22820
876.008	22965
876.136	23041
876.265	23250
876.393	23410
876.521	23174
876.65	23448
876.778	23204
876.906	23212
877.034	23200
877.162	23223
877.29	23105
877.418	23143
877.546	23242
877.674	23132
877.802	23220
877.93	23239
878.058	23227
878.185	23140
878.313	23109
878.441	23250
878.568	23094
878.696	23147
878.824	23181
878.951	23258
879.079	23360
879.206	23551
879.333	23318
879.461	23151
879.588	23322
879.715	23273
879.842	23410
879.97	23356
880.097	22953
880.224	22957
880.351	23132
880.478	23064
880.605	22873
880.732	22927
880.859	23155
880.986	22938
881.112	23098
881.239	22824
881.366	22736
881.493	22592
881.619	22615
881.746	22603
881.872	22607
881.999	22512
882.125	22557
882.252	22478
882.378	22615
882.505	22512
882.631	22474
882.757	22417
882.883	22500
883.01	22276
883.136	22253
883.262	22101
883.388	22097
883.514	22284
883.64	22226
883.766	22211
883.892	22021
884.018	22124
884.143	22082
884.269	22379
884.395	22002
884.52	21876
884.646	21903
884.772	21800
884.897	21823
885.023	21884
885.148	21975
885.274	22021
885.399	22006
885.524	21800
885.65	21964
885.775	21907
885.9	21831
886.025	22021
886.15	21960
886.275	21922
886.4	21838
886.525	21857
886.65	21838
886.775	21804
886.9	22029
887.025	22150
887.149	21842
887.274	21549
887.399	21694
887.523	21717
887.648	21488
887.773	21545
887.897	21709
888.021	21709
888.146	21519
888.27	21698
888.395	21762
888.519	21701
888.643	21720
888.767	21728
888.891	21660
889.015	21469
889.139	21526
889.263	21454
889.387	21553
889.511	21679
889.635	21580
889.759	21431
889.883	21447
890.006	21500
890.13	21473
890.254	21351
890.377	21367
890.501	21157
890.624	21146
890.748	21272
890.871	21150
890.995	20921
891.118	20872
891.241	21058
891.364	20937
891.488	21062
891.611	20998
891.734	21013
891.857	21081
891.98	20971
892.103	21077
892.226	20963
892.349	20876
892.471	20880
892.594	20815
892.717	20902
892.839	20842
892.962	20838
893.085	20857
893.207	20960
893.33	20716
893.452	20891
893.575	20864
893.697	20807
893.819	21047
893.941	21062
894.064	20929
894.186	20811
894.308	20819
894.43	20937
894.552	20853
894.674	20937
894.796	20659
894.918	20804
895.04	20823
895.161	20853
895.283	20933
895.405	20773
895.526	20796
895.648	20781
895.769	20887
895.891	20895
896.012	20960
896.134	20910
896.255	20845
896.376	20781
896.498	20823
896.619	20807
896.74	20792
896.861	20941
896.982	21074
897.103	21283
897.224	21066
897.345	21066
897.466	21028
897.587	21157
897.708	21089
897.828	21108
897.949	21017
898.07	20853
898.19	20906
898.311	21074
898.431	21066
898.552	20990
898.672	21150
898.792	21081
898.913	21039
899.033	20895
899.153	20823
899.273	20765
899.393	20762
899.513	20899
899.633	20929
899.753	20853
899.873	20720
899.993	20864
900.113	20697
900.232	20632
900.352	20625
900.472	20571
900.591	20530
900.711	20564
900.83	20427
900.95	20701
901.069	20651
901.189	20442
901.308	20119
901.427	20100
901.546	20161
901.665	20157
901.784	20278
901.904	19982
902.023	19932
902.141	19776
902.26	19700
902.379	19765
902.498	19666
902.617	19559
902.735	19677
902.854	19559
902.973	19590
903.091	19324
903.21	19327
903.328	19392
903.446	19156
903.565	19069
903.683	19148
903.801	18951
903.919	19107
904.038	19015
904.156	18897
904.274	18958
904.392	18928
904.51	18894
904.627	18882
904.745	18916
904.863	18878
904.981	18654
905.098	18521
905.216	18551
905.334	18551
905.451	18604
905.569	18517
905.686	18475
905.803	18506
905.921	18346
906.038	18380
906.155	18369
906.272	18220
906.389	18213
906.506	18026
906.623	18121
906.74	18117
906.857	18003
906.974	18026
907.091	18125
907.208	18213
907.324	18038
907.441	17874
907.557	17836
907.674	17790
907.79	17619
907.907	17687
908.023	17718
908.139	17680
908.256	17653
908.372	17710
908.488	17615
908.604	17490
908.72	17512
908.836	17551
908.952	17482
909.068	17440
909.184	17554
909.3	17486
909.415	17539
909.531	17395
909.647	17246
909.762	17140
909.878	17075
909.993	17174
910.108	17208
910.224	17151
910.339	17254
910.454	16972
910.57	17010
910.685	16900
910.8	17284
910.915	17090
911.03	16938
911.145	16809
911.259	16733
911.374	16729
911.489	16816
911.604	16634
911.718	16531
911.833	16554
911.947	16497
912.062	16204
912.176	16443
912.291	16455
912.405	16447
912.519	16630
912.633	16656
912.748	16535
912.862	16500
912.976	16337
913.09	16276
913.204	16299
913.318	16409
913.431	16398
913.545	16405
913.659	16371
913.772	16386
913.886	16124
914	16063
914.113	16246
914.226	16284
914.34	16177
914.453	15968
914.566	16192
914.68	16010
914.793	15991
914.906	15743
915.019	15682
915.132	15618
915.245	15648
915.358	15690
915.47	15736
915.583	15717
915.696	15816
915.809	15846
915.921	15903
916.034	15637
916.146	15606
916.259	15591
916.371	15739
916.483	15682
916.595	15473
916.708	15462
916.82	15500
916.932	15424
917.044	15447
917.156	15435
917.268	15306
917.38	15252
917.491	15401
917.603	15302
917.715	15298
917.826	15374
917.938	15218
918.049	15135
918.161	15241
918.272	15405
918.384	15386
918.495	15222
918.606	15028
918.717	15020
918.828	15188
918.939	15104
919.05	14937
919.161	14990
919.272	14819
919.383	14929
919.494	15089
919.604	15226
919.715	15028
919.826	14933
919.936	14986
920.047	15077
920.157	14933
920.267	15199
920.378	15039
920.488	15005
920.598	15184
920.708	15245
920.818	15036
920.928	15119
921.038	15249
921.148	15241
921.258	14941
921.368	14979
921.477	14716
921.587	14644
921.697	14667
921.806	14853
921.916	14621
922.025	14533
922.134	14351
922.244	14423
922.353	14412
922.462	14225
922.571	14202
922.68	13982
922.789	14050
922.898	14046
923.007	14005
923.116	14005
923.224	14054
923.333	13913
923.442	13955
923.55	13887
923.659	13761
923.767	13951
923.876	13822
923.984	13864
924.092	13708
924.201	13723
924.309	13769
924.417	13723
924.525	13613
924.633	13643
924.741	14549
924.849	13415
924.956	13590
925.064	13495
925.172	13346
925.279	13354
925.387	13453
925.494	13419
925.602	13529
925.709	13411
925.816	13377
925.924	13362
926.031	13384
926.138	13285
926.245	13365
926.352	13228
926.459	13441
926.566	13396
926.673	13206
926.779	13160
926.886	13221
926.993	13027
927.099	12993
927.206	12901
927.312	12863
927.419	12909
927.525	12943
927.631	12970
927.737	12894
927.843	12787
927.95	12734
928.056	12772
928.162	12776
928.267	12772
928.373	13270
928.479	12852
928.585	12593
928.69	12703
928.796	12776
928.901	12601
929.007	12384
929.112	12623
929.218	12544
929.323	12498
929.428	12513
929.533	12623
929.638	12376
929.743	12452
929.848	12448
929.953	12399
930.058	12357
930.163	12239
930.267	12175
930.372	12350
930.477	12019
930.581	12304
930.685	12228
930.79	12022
930.894	12015
930.998	11946
931.103	12186
931.207	11821
931.311	11805
931.415	11623
931.519	11410
931.623	11486
