Data from test_V78500241_1596.txt Node
Date: Fri Mar 25 15:20:58 CST 2022
User: usil
Spectrometer: V785-0024
Trigger mode: 0
Integration Time (sec): 4.000000E-1
Scans to average: 1
Nonlinearity correction enabled: false
Boxcar width: 0
Storing dark spectrum: false
XAxis mode: Wavelengths
Number of Pixels in Spectrum: 1024
>>>>>Begin Spectral Data<<<<<
801.071	28109
801.214	27880
801.356	27736
801.499	27694
801.641	27477
801.783	27534
801.926	27614
802.068	27583
802.211	27477
802.353	27454
802.496	27180
802.638	27203
802.78	27188
802.923	27195
803.065	27146
803.208	27226
803.35	27188
803.492	27504
803.635	27473
803.777	27249
803.919	27401
804.061	27663
804.204	27576
804.346	27458
804.488	27329
804.63	27473
804.773	27420
804.915	27462
805.057	27424
805.199	27542
805.341	27515
805.483	27496
805.626	27557
805.768	27405
805.91	27549
806.052	27675
806.194	27542
806.336	27888
806.478	27629
806.62	27538
806.762	27622
806.904	27907
807.046	28139
807.188	27979
807.33	27911
807.472	27991
807.614	27774
807.756	27945
807.898	27892
808.04	27819
808.182	27755
808.324	27888
808.465	27804
808.607	28078
808.749	28185
808.891	28268
809.033	28242
809.174	28284
809.316	28169
809.458	28211
809.6	28147
809.741	28257
809.883	28356
810.025	28474
810.166	28485
810.308	28470
810.45	28474
810.591	28371
810.733	28299
810.875	28082
811.016	28162
811.158	28070
811.299	28341
811.441	28318
811.582	28242
811.724	28169
811.865	28051
812.007	28135
812.148	28074
812.29	28337
812.431	28455
812.573	28466
812.714	28649
812.855	28630
812.997	28831
813.138	28927
813.279	28896
813.421	28679
813.562	28767
813.703	28474
813.845	28382
813.986	28185
814.127	27945
814.268	27911
814.41	27812
814.551	27709
814.692	27911
814.833	27873
814.974	27922
815.115	27987
815.256	27804
815.397	27865
815.539	27595
815.68	27682
815.821	27622
815.962	27701
816.103	27614
816.244	27466
816.385	27462
816.526	27466
816.666	27268
816.807	27207
816.948	27321
817.089	27325
817.23	27252
817.371	27142
817.512	27062
817.653	27001
817.793	27024
817.934	27184
818.075	27116
818.216	27161
818.356	27100
818.497	27096
818.638	26883
818.778	26994
818.919	26956
819.06	26979
819.2	27180
819.341	27218
819.481	27241
819.622	27344
819.762	27435
819.903	27435
820.043	27310
820.184	27230
820.324	27355
820.465	27424
820.605	27256
820.746	27298
820.886	27222
821.026	27176
821.167	27252
821.307	27291
821.447	27336
821.588	27169
821.728	26940
821.868	26731
822.008	26708
822.149	26697
822.289	26598
822.429	26358
822.569	26225
822.709	26305
822.849	26149
822.99	26161
823.13	26263
823.27	26126
823.41	25997
823.55	25974
823.69	25970
823.83	25906
823.97	25902
824.11	25761
824.25	25727
824.389	25776
824.529	25845
824.669	25852
824.809	25925
824.949	25845
825.089	25970
825.228	25795
825.368	25658
825.508	25677
825.648	25571
825.787	25693
825.927	25704
826.067	25632
826.206	25674
826.346	25571
826.485	25594
826.625	25609
826.765	25757
826.904	25765
827.044	25358
827.183	25430
827.323	25358
827.462	25403
827.601	25445
827.741	25278
827.88	25464
828.02	25377
828.159	25426
828.298	25396
828.437	25365
828.577	25312
828.716	25293
828.855	25324
828.994	25198
829.134	25061
829.273	25015
829.412	25095
829.551	25046
829.69	25244
829.829	24916
829.968	25110
830.107	25137
830.246	25217
830.385	25012
830.524	25065
830.663	24795
830.802	24829
830.941	24722
831.08	24540
831.219	24760
831.357	24798
831.496	24791
831.635	24642
831.774	24692
831.913	24582
832.051	24593
832.19	24551
832.329	24471
832.467	24464
832.606	24441
832.744	24262
832.883	24369
833.022	24342
833.16	24372
833.299	24460
833.437	24330
833.576	24372
833.714	24410
833.852	24509
833.991	24403
834.129	24642
834.267	24505
834.406	24426
834.544	24372
834.682	24422
834.821	24448
834.959	24585
835.097	24273
835.235	24483
835.373	24437
835.511	24410
835.65	24266
835.788	24296
835.926	24041
836.064	24015
836.202	24098
836.34	24292
836.478	24281
836.615	24205
836.753	24197
836.891	24224
837.029	24205
837.167	24072
837.305	24026
837.443	24163
837.58	24041
837.718	24330
837.856	24232
837.993	24022
838.131	23988
838.269	23999
838.406	24064
838.544	24068
838.681	23859
838.819	23699
838.956	23539
839.094	23585
839.231	23661
839.369	23695
839.506	23931
839.643	23752
839.781	23573
839.918	23440
840.055	23512
840.193	23615
840.33	23520
840.467	23398
840.604	23611
840.742	23710
840.879	23448
841.016	23372
841.153	23334
841.29	23589
841.427	23341
841.564	23501
841.701	23520
841.838	23467
841.975	23288
842.112	23288
842.249	23376
842.385	23178
842.522	23490
842.659	23395
842.796	23258
842.933	23296
843.069	23159
843.206	23277
843.343	23231
843.479	23292
843.616	23269
843.752	22980
843.889	23029
844.025	23162
844.162	23056
844.298	23033
844.435	22900
844.571	22850
844.708	23060
844.844	23178
844.98	23181
845.117	23117
845.253	23041
845.389	22831
845.525	22938
845.661	22854
845.798	22843
845.934	22694
846.07	22755
846.206	22782
846.342	22702
846.478	22843
846.614	22611
846.75	22443
846.886	22489
847.022	22367
847.158	22504
847.294	22478
847.429	22550
847.565	22573
847.701	22721
847.837	22109
847.972	22265
848.108	22246
848.244	22261
848.379	22051
848.515	22002
848.65	22124
848.786	22070
848.921	22128
849.057	22181
849.192	22105
849.328	22135
849.463	21941
849.598	21998
849.734	21911
849.869	21869
850.004	21755
850.14	21899
850.275	21903
850.41	21720
850.545	21770
850.68	21766
850.815	21888
850.95	21850
851.085	21907
851.22	21953
851.355	21838
851.49	21663
851.625	21808
851.76	21842
851.895	21698
852.03	21701
852.165	21720
852.299	21823
852.434	21838
852.569	21915
852.703	21800
852.838	21701
852.973	21941
853.107	21850
853.242	21705
853.376	21698
853.511	21599
853.645	21599
853.78	21701
853.914	21838
854.048	21599
854.183	21599
854.317	21701
854.451	21854
854.585	21648
854.72	21606
854.854	21648
854.988	21553
855.122	21637
855.256	21561
855.39	21717
855.524	21667
855.658	21686
855.792	21698
855.926	21633
856.06	21644
856.194	21781
856.327	21526
856.461	21564
856.595	21507
856.729	21606
856.862	21713
856.996	21743
857.13	21724
857.263	21679
857.397	21603
857.53	21583
857.664	21720
857.797	21739
857.931	21717
858.064	21732
858.197	21705
858.331	21675
858.464	21606
858.597	21511
858.731	21591
858.864	21660
858.997	21595
859.13	21660
859.263	21580
859.396	21633
859.529	21583
859.662	21599
859.795	21614
859.928	21759
860.061	21838
860.194	21846
860.327	21766
860.46	21606
860.592	21854
860.725	21804
860.858	21842
860.99	21667
861.123	21580
861.256	21545
861.388	21595
861.521	22280
861.653	21534
861.786	21519
861.918	21389
862.05	21504
862.183	21530
862.315	21603
862.447	21580
862.58	21564
862.712	21367
862.844	21310
862.976	21466
863.108	21275
863.24	21743
863.372	21321
863.504	21313
863.636	21180
863.768	21348
863.9	21275
864.032	21317
864.164	21180
864.296	21462
864.428	21447
864.559	21389
864.691	21412
864.823	21329
864.954	21188
865.086	21211
865.217	21211
865.349	21226
865.48	21268
865.612	21317
865.743	21321
865.875	21222
866.006	21329
866.137	21264
866.269	21222
866.4	21203
866.531	21256
866.662	21138
866.793	21252
866.924	21051
867.055	21298
867.186	21207
867.317	21195
867.448	21077
867.579	21180
867.71	21176
867.841	21036
867.972	21313
868.103	21085
868.233	21249
868.364	21116
868.495	21237
868.625	21298
868.756	21507
868.886	21355
869.017	21553
869.147	21462
869.278	21435
869.408	21542
869.539	21397
869.669	21469
869.799	21492
869.929	21443
870.06	21572
870.19	21793
870.32	21652
870.45	21793
870.58	21831
870.71	21812
870.84	21854
870.97	21770
871.1	21930
871.23	22078
871.36	21876
871.489	21991
871.619	21926
871.749	21964
871.879	22040
872.008	22120
872.138	21911
872.267	21998
872.397	21899
872.526	21922
872.656	21778
872.785	21797
872.915	21991
873.044	22150
873.173	22044
873.303	22017
873.432	22063
873.561	22166
873.69	22017
873.819	21949
873.948	22139
874.077	21911
874.206	21899
874.335	22021
874.464	22226
874.593	22211
874.722	22105
874.851	22249
874.979	22166
875.108	22280
875.237	22147
875.365	22177
875.494	22116
875.623	22215
875.751	22284
875.88	22341
876.008	22375
876.136	22386
876.265	22618
876.393	22812
876.521	22744
876.65	22694
876.778	22634
876.906	22573
877.034	22557
877.162	22634
877.29	22497
877.418	22531
877.546	22546
877.674	22596
877.802	22557
877.93	22569
878.058	22710
878.185	22265
878.313	22550
878.441	22634
878.568	22451
878.696	22497
878.824	22634
878.951	22672
879.079	22687
879.206	22820
879.333	22729
879.461	22622
879.588	22637
879.715	22725
879.842	22820
879.97	22603
880.097	22531
880.224	22424
880.351	22428
880.478	22474
880.605	22337
880.732	22436
880.859	22706
880.986	22466
881.112	22546
881.239	22242
881.366	22147
881.493	22166
881.619	21949
881.746	21956
881.872	21934
881.999	21998
882.125	21968
882.252	21953
882.378	21930
882.505	22051
882.631	21873
882.757	21652
882.883	21709
883.01	21587
883.136	21622
883.262	21443
883.388	21595
883.514	21679
883.64	21743
883.766	21633
883.892	21431
884.018	21576
884.143	21618
884.269	21675
884.395	21424
884.52	21275
884.646	21389
884.772	21275
884.897	21180
885.023	21374
885.148	21412
885.274	21420
885.399	21447
885.524	21363
885.65	21382
885.775	21287
885.9	21188
886.025	21370
886.15	21401
886.275	21268
886.4	21142
886.525	21321
886.65	21279
886.775	21218
886.9	21382
887.025	21526
887.149	21310
887.274	21188
887.399	21112
887.523	20990
887.648	20937
887.773	21047
887.897	21226
888.021	21036
888.146	20921
888.27	21165
888.395	21138
888.519	21062
888.643	21070
888.767	21039
888.891	20929
889.015	20819
889.139	20815
889.263	20883
889.387	21039
889.511	21138
889.635	21005
889.759	20845
889.883	20686
890.006	20773
890.13	20849
890.254	20788
890.377	20724
890.501	20583
890.624	20621
890.748	20674
890.871	20473
890.995	20495
891.118	20442
891.241	20465
891.364	20499
891.488	20499
891.611	20457
891.734	20370
891.857	20438
891.98	20465
892.103	20461
892.226	20446
892.349	20385
892.471	20119
892.594	20324
892.717	20473
892.839	20290
892.962	20324
893.085	20366
893.207	20309
893.33	20259
893.452	20298
893.575	20336
893.697	20214
893.819	20454
893.941	20476
894.064	20492
894.186	20286
894.308	20153
894.43	20431
894.552	20465
894.674	20488
894.796	20282
894.918	20237
895.04	20275
895.161	20259
895.283	20389
895.405	20100
895.526	20381
895.648	20309
895.769	20320
895.891	20381
896.012	20324
896.134	20347
896.255	20362
896.376	20324
896.498	20431
896.619	20427
896.74	20259
896.861	20305
896.982	20663
897.103	20781
897.224	20533
897.345	20518
897.466	20419
897.587	20587
897.708	20575
897.828	20522
897.949	20419
898.07	20305
898.19	20434
898.311	20583
898.431	20541
898.552	20606
898.672	20545
898.792	20598
898.913	20522
899.033	20389
899.153	20347
899.273	20267
899.393	20218
899.513	20298
899.633	20298
899.753	20252
899.873	20206
899.993	20355
900.113	20332
900.232	20282
900.352	20176
900.472	20073
900.591	20054
900.711	20096
900.83	19955
900.95	20164
901.069	20115
901.189	20001
901.308	19689
901.427	19662
901.546	19674
901.665	19655
901.784	19578
901.904	19620
902.023	19453
902.141	19179
902.26	19164
902.379	19183
902.498	19072
902.617	19103
902.735	19293
902.854	19046
902.973	19061
903.091	18715
903.21	18764
903.328	18871
903.446	18833
903.565	18620
903.683	18620
903.801	18559
903.919	18635
904.038	18429
904.156	18304
904.274	18426
904.392	18334
904.51	18353
904.627	18369
904.745	18498
904.863	18410
904.981	18083
905.098	18038
905.216	17965
905.334	18152
905.451	18106
905.569	17984
905.686	18114
905.803	17992
905.921	17756
906.038	17824
906.155	17912
906.272	17775
906.389	17710
906.506	17512
906.623	17623
906.74	17573
906.857	17516
906.974	17493
907.091	17608
907.208	17627
907.324	17585
907.441	17482
907.557	17288
907.674	17330
907.79	17140
907.907	17269
908.023	17239
908.139	17322
908.256	17178
908.372	17170
908.488	17208
908.604	16987
908.72	16999
908.836	17102
908.952	16942
909.068	17022
909.184	17064
909.3	17064
909.415	17003
909.531	17117
909.647	16759
909.762	16729
909.878	16710
909.993	16763
910.108	16698
910.224	16664
910.339	16649
910.454	16584
910.57	16573
910.685	16546
910.8	16774
910.915	16713
911.03	16455
911.145	16398
911.259	16356
911.374	16344
911.489	16207
911.604	16074
911.718	16116
911.833	16097
911.947	16025
912.062	15895
912.176	16029
912.291	16025
912.405	16051
912.519	16234
912.633	16287
912.748	16192
912.862	16067
912.976	15884
913.09	15724
913.204	15808
913.318	15930
913.431	15922
913.545	15930
913.659	15934
913.772	15899
913.886	15713
914	15694
914.113	15701
914.226	15751
914.34	15823
914.453	15625
914.566	15656
914.68	15599
914.793	15473
914.906	15249
915.019	15340
915.132	15199
915.245	15272
915.358	15207
915.47	15180
915.583	15192
915.696	15287
915.809	15336
915.921	15363
916.034	15268
916.146	15199
916.259	15127
916.371	15169
916.483	15142
916.595	15150
916.708	15119
916.82	15150
916.932	15093
917.044	14998
917.156	15020
917.268	14933
917.38	14956
917.491	14948
917.603	14887
917.715	15032
917.826	14944
917.938	14807
918.049	14785
918.161	14887
918.272	14979
918.384	14960
918.495	14819
918.606	14697
918.717	14674
918.828	14701
918.939	14701
919.05	14518
919.161	14590
919.272	14434
919.383	14465
919.494	14689
919.604	14960
919.715	14648
919.826	14610
919.936	14568
920.047	14686
920.157	14621
920.267	14902
920.378	14556
920.488	14530
920.598	14693
920.708	14838
920.818	14754
920.928	14724
921.038	14918
921.148	14864
921.258	14579
921.368	14450
921.477	14389
921.587	14400
921.697	14157
921.806	14324
921.916	14180
922.025	14065
922.134	14020
922.244	13978
922.353	14062
922.462	13879
922.571	13723
922.68	13651
922.789	13624
922.898	13795
923.007	13662
923.116	13605
923.224	13578
923.333	13571
923.442	13499
923.55	13460
923.659	13453
923.767	13544
923.876	13464
923.984	13453
924.092	13282
924.201	13400
924.309	13346
924.417	13514
924.525	13244
924.633	13411
924.741	14191
924.849	13152
924.956	13301
925.064	13084
925.172	13042
925.279	12993
925.387	13118
925.494	13126
925.602	13164
925.709	12989
925.816	13046
925.924	12981
926.031	13053
926.138	12981
926.245	13027
926.352	12867
926.459	13015
926.566	13099
926.673	12924
926.779	12848
926.886	12722
926.993	12757
927.099	12696
927.206	12547
927.312	12570
927.419	12635
927.525	12540
927.631	12612
927.737	12506
927.843	12388
927.95	12509
928.056	12422
928.162	12403
928.267	12528
928.373	13137
928.479	12464
928.585	12292
928.69	12407
928.796	12456
928.901	12330
929.007	12136
929.112	12251
929.218	12232
929.323	12239
929.428	12087
929.533	12247
929.638	12110
929.743	12129
929.848	12140
929.953	12106
930.058	12034
930.163	11840
930.267	11840
930.372	12015
930.477	11832
930.581	11958
930.685	11897
930.79	11764
930.894	11726
930.998	11786
931.103	11824
931.207	11478
931.311	11421
931.415	11315
931.519	11159
931.623	11117
