Data from test_V78500241_1664.txt Node
Date: Fri Mar 25 15:21:26 CST 2022
User: usil
Spectrometer: V785-0024
Trigger mode: 0
Integration Time (sec): 4.000000E-1
Scans to average: 1
Nonlinearity correction enabled: false
Boxcar width: 0
Storing dark spectrum: false
XAxis mode: Wavelengths
Number of Pixels in Spectrum: 1024
>>>>>Begin Spectral Data<<<<<
801.071	28124
801.214	27994
801.356	27759
801.499	27622
801.641	27641
801.783	27519
801.926	27481
802.068	27587
802.211	27447
802.353	27332
802.496	27321
802.638	27157
802.78	27233
802.923	27017
803.065	26994
803.208	27085
803.35	27245
803.492	27211
803.635	27363
803.777	27241
803.919	27363
804.061	27701
804.204	27477
804.346	27241
804.488	27310
804.63	27378
804.773	27226
804.915	27424
805.057	27530
805.199	27401
805.341	27538
805.483	27603
805.626	27504
805.768	27492
805.91	27488
806.052	27652
806.194	27458
806.336	27679
806.478	27458
806.62	27530
806.762	27778
806.904	27857
807.046	28048
807.188	27922
807.33	27793
807.472	27934
807.614	27892
807.756	27861
807.898	27793
808.04	27705
808.182	27736
808.324	27766
808.465	27774
808.607	28135
808.749	28261
808.891	28306
809.033	28238
809.174	28169
809.316	28162
809.458	28341
809.6	28116
809.741	28280
809.883	28223
810.025	28413
810.166	28390
810.308	28428
810.45	28379
810.591	28272
810.733	28242
810.875	28139
811.016	28029
811.158	28002
811.299	28272
811.441	28333
811.582	28272
811.724	28215
811.865	28131
812.007	28120
812.148	28162
812.29	28394
812.431	28268
812.573	28535
812.714	28535
812.855	28748
812.997	28824
813.138	28949
813.279	28755
813.421	28694
813.562	28470
813.703	28557
813.845	28337
813.986	28067
814.127	28002
814.268	27793
814.41	27861
814.551	27846
814.692	27945
814.833	27808
814.974	27873
815.115	27812
815.256	27686
815.397	27804
815.539	27774
815.68	27568
815.821	27576
815.962	27720
816.103	27629
816.244	27424
816.385	27416
816.526	27397
816.666	27169
816.807	27169
816.948	27359
817.089	27100
817.23	27165
817.371	27093
817.512	27195
817.653	27192
817.793	27154
817.934	27165
818.075	27119
818.216	27165
818.356	27055
818.497	26982
818.638	26880
818.778	26838
818.919	27062
819.06	26979
819.2	27081
819.341	27089
819.481	27081
819.622	27466
819.762	27420
819.903	27405
820.043	27142
820.184	27252
820.324	27169
820.465	27252
820.605	27306
820.746	27161
820.886	27077
821.026	27192
821.167	27317
821.307	27165
821.447	27146
821.588	27017
821.728	27077
821.868	26773
822.008	26629
822.149	26636
822.289	26530
822.429	26324
822.569	26301
822.709	26450
822.849	26073
822.99	26077
823.13	26069
823.27	26103
823.41	25928
823.55	25849
823.69	26050
823.83	26111
823.97	25818
824.11	25731
824.25	25723
824.389	25780
824.529	25852
824.669	25776
824.809	25856
824.949	25909
825.089	25776
825.228	25723
825.368	25693
825.508	25632
825.648	25613
825.787	25693
825.927	25738
826.067	25639
826.206	25670
826.346	25643
826.485	25738
826.625	25502
826.765	25658
826.904	25689
827.044	25483
827.183	25411
827.323	25308
827.462	25537
827.601	25346
827.741	25289
827.88	25312
828.02	25270
828.159	25247
828.298	25335
828.437	25327
828.577	25274
828.716	25396
828.855	25297
828.994	24958
829.134	25099
829.273	25126
829.412	24962
829.551	24882
829.69	25019
829.829	25065
829.968	25122
830.107	25122
830.246	25031
830.385	24844
830.524	24981
830.663	24875
830.802	24745
830.941	24783
831.08	24517
831.219	24696
831.357	24741
831.496	24977
831.635	24631
831.774	24635
831.913	24559
832.051	24441
832.19	24437
832.329	24467
832.467	24338
832.606	24243
832.744	24319
832.883	24342
833.022	24334
833.16	24342
833.299	24456
833.437	24304
833.576	24403
833.714	24426
833.852	24494
833.991	24464
834.129	24429
834.267	24285
834.406	24353
834.544	24334
834.682	24414
834.821	24494
834.959	24582
835.097	24270
835.235	24505
835.373	24300
835.511	24460
835.65	24266
835.788	24178
835.926	24155
836.064	24007
836.202	24011
836.34	24285
836.478	24315
836.615	24266
836.753	24220
836.891	24380
837.029	24315
837.167	24121
837.305	24152
837.443	24015
837.58	24034
837.718	24095
837.856	24045
837.993	24026
838.131	24022
838.269	23969
838.406	23992
838.544	23798
838.681	23691
838.819	23630
838.956	23501
839.094	23642
839.231	23570
839.369	23737
839.506	24018
839.643	23805
839.781	23589
839.918	23391
840.055	23539
840.193	23547
840.33	23452
840.467	23478
840.604	23619
840.742	23642
840.879	23353
841.016	23322
841.153	23330
841.29	23604
841.427	23490
841.564	23474
841.701	23486
841.838	23463
841.975	23376
842.112	23379
842.249	23212
842.385	23269
842.522	23334
842.659	23265
842.796	23166
842.933	23185
843.069	23208
843.206	23181
843.343	23223
843.479	23246
843.616	23200
843.752	23003
843.889	23006
844.025	23223
844.162	22930
844.298	23033
844.435	23003
844.571	23048
844.708	22984
844.844	23098
844.98	23193
845.117	23113
845.253	22972
845.389	22809
845.525	22919
845.661	22877
845.798	22744
845.934	22790
846.07	22653
846.206	22729
846.342	22755
846.478	22679
846.614	22497
846.75	22375
846.886	22402
847.022	22474
847.158	22550
847.294	22402
847.429	22481
847.565	22329
847.701	22630
847.837	22185
847.972	22177
848.108	22295
848.244	22173
848.379	22120
848.515	22093
848.65	21880
848.786	22074
848.921	22097
849.057	22207
849.192	21998
849.328	22154
849.463	21934
849.598	22048
849.734	21899
849.869	21842
850.004	21747
850.14	21941
850.275	21789
850.41	21804
850.545	21770
850.68	21793
850.815	21831
850.95	21747
851.085	21945
851.22	21949
851.355	21732
851.49	21690
851.625	21804
851.76	21663
851.895	21732
852.03	21850
852.165	21789
852.299	21793
852.434	21800
852.569	21774
852.703	21797
852.838	21827
852.973	21953
853.107	21907
853.242	21793
853.376	21663
853.511	21591
853.645	21595
853.78	21766
853.914	21644
854.048	21648
854.183	21660
854.317	21591
854.451	21846
854.585	21545
854.72	21606
854.854	21633
854.988	21564
855.122	21492
855.256	21523
855.39	21500
855.524	21637
855.658	21709
855.792	21603
855.926	21542
856.06	21682
856.194	21751
856.327	21641
856.461	21572
856.595	21587
856.729	21587
856.862	21766
856.996	21572
857.13	21720
857.263	21732
857.397	21686
857.53	21473
857.664	21526
857.797	21751
857.931	21660
858.064	21633
858.197	21686
858.331	21667
858.464	21553
858.597	21401
858.731	21515
858.864	21511
858.997	21557
859.13	21663
859.263	21576
859.396	21759
859.529	21671
859.662	21580
859.795	21538
859.928	21591
860.061	21675
860.194	21770
860.327	21583
860.46	21572
860.592	21743
860.725	21903
860.858	21755
860.99	21629
861.123	21526
861.256	21603
861.388	21462
861.521	22287
861.653	21477
861.786	21450
861.918	21504
862.05	21481
862.183	21557
862.315	21439
862.447	21603
862.58	21534
862.712	21291
862.844	21279
862.976	21458
863.108	21378
863.24	21827
863.372	21176
863.504	21291
863.636	21268
863.768	21393
863.9	21363
864.032	21226
864.164	21374
864.296	21363
864.428	21291
864.559	21348
864.691	21492
864.823	21374
864.954	21302
865.086	21302
865.217	21363
865.349	21131
865.48	21249
865.612	21237
865.743	21344
865.875	21294
866.006	21252
866.137	21192
866.269	21291
866.4	21211
866.531	21195
866.662	21077
866.793	21096
866.924	21199
867.055	21199
867.186	21173
867.317	21142
867.448	21051
867.579	20986
867.71	21058
867.841	21085
867.972	21161
868.103	21207
868.233	21203
868.364	21131
868.495	21249
868.625	21439
868.756	21469
868.886	21291
869.017	21367
869.147	21507
869.278	21492
869.408	21370
869.539	21405
869.669	21382
869.799	21363
869.929	21553
870.06	21386
870.19	21603
870.32	21614
870.45	21663
870.58	21762
870.71	21873
870.84	21778
870.97	21762
871.1	21812
871.23	21816
871.36	21861
871.489	21907
871.619	21972
871.749	21972
871.879	21991
872.008	22177
872.138	22063
872.267	21892
872.397	21819
872.526	21804
872.656	21816
872.785	21880
872.915	21979
873.044	22128
873.173	22017
873.303	22063
873.432	22120
873.561	22067
873.69	21884
873.819	22010
873.948	22097
874.077	22067
874.206	21865
874.335	22109
874.464	22116
874.593	22177
874.722	22207
874.851	22280
874.979	22211
875.108	22139
875.237	22276
875.365	22116
875.494	22185
875.623	22204
875.751	22177
875.88	22207
876.008	22303
876.136	22333
876.265	22637
876.393	22755
876.521	22634
876.65	22812
876.778	22637
876.906	22618
877.034	22626
877.162	22660
877.29	22580
877.418	22531
877.546	22622
877.674	22641
877.802	22485
877.93	22489
878.058	22466
878.185	22386
878.313	22485
878.441	22436
878.568	22432
878.696	22424
878.824	22588
878.951	22584
879.079	22740
879.206	22831
879.333	22748
879.461	22516
879.588	22626
879.715	22687
879.842	22866
879.97	22660
880.097	22470
880.224	22386
880.351	22371
880.478	22219
880.605	22356
880.732	22413
880.859	22603
880.986	22375
881.112	22535
881.239	22268
881.366	22169
881.493	22101
881.619	21949
881.746	21968
881.872	21987
881.999	21922
882.125	21915
882.252	21903
882.378	21823
882.505	21968
882.631	21789
882.757	21694
882.883	21736
883.01	21629
883.136	21663
883.262	21469
883.388	21458
883.514	21564
883.64	21648
883.766	21545
883.892	21504
884.018	21378
884.143	21682
884.269	21618
884.395	21359
884.52	21195
884.646	21336
884.772	21230
884.897	21207
885.023	21264
885.148	21386
885.274	21538
885.399	21370
885.524	21408
885.65	21306
885.775	21264
885.9	21272
886.025	21298
886.15	21344
886.275	21184
886.4	21176
886.525	21351
886.65	21207
886.775	21241
886.9	21382
887.025	21420
887.149	21233
887.274	21081
887.399	21104
887.523	21195
887.648	21055
887.773	20982
887.897	21032
888.021	21138
888.146	21070
888.27	21127
888.395	21108
888.519	21180
888.643	21009
888.767	21055
888.891	21123
889.015	20807
889.139	20872
889.263	20777
889.387	20963
889.511	21085
889.635	20941
889.759	20880
889.883	20773
890.006	20853
890.13	21047
890.254	20864
890.377	20815
890.501	20644
890.624	20590
890.748	20583
890.871	20499
890.995	20412
891.118	20400
891.241	20434
891.364	20324
891.488	20571
891.611	20419
891.734	20450
891.857	20473
891.98	20465
892.103	20396
892.226	20389
892.349	20408
892.471	20240
892.594	20324
892.717	20377
892.839	20366
892.962	20233
893.085	20389
893.207	20221
893.33	20126
893.452	20355
893.575	20362
893.697	20282
893.819	20514
893.941	20442
894.064	20499
894.186	20229
894.308	20278
894.43	20469
894.552	20355
894.674	20396
894.796	20298
894.918	20339
895.04	20206
895.161	20366
895.283	20240
895.405	20229
895.526	20271
895.648	20339
895.769	20347
895.891	20275
896.012	20362
896.134	20324
896.255	20290
896.376	20412
896.498	20282
896.619	20305
896.74	20358
896.861	20408
896.982	20537
897.103	20720
897.224	20507
897.345	20549
897.466	20533
897.587	20556
897.708	20613
897.828	20636
897.949	20412
898.07	20278
898.19	20488
898.311	20632
898.431	20503
898.552	20442
898.672	20579
898.792	20663
898.913	20526
899.033	20366
899.153	20336
899.273	20176
899.393	20290
899.513	20412
899.633	20180
899.753	20229
899.873	20221
899.993	20278
900.113	20214
900.232	20271
900.352	20225
900.472	20035
900.591	20027
900.711	20027
900.83	19959
900.95	20168
901.069	20054
901.189	19936
901.308	19731
901.427	19605
901.546	19696
901.665	19628
901.784	19632
901.904	19365
902.023	19293
902.141	19183
902.26	19206
902.379	19266
902.498	19164
902.617	19160
902.735	19000
902.854	19050
902.973	19091
903.091	18894
903.21	18703
903.328	18779
903.446	18722
903.565	18692
903.683	18593
903.801	18376
903.919	18646
904.038	18456
904.156	18441
904.274	18388
904.392	18380
904.51	18266
904.627	18384
904.745	18414
904.863	18429
904.981	18273
905.098	18076
905.216	18060
905.334	18144
905.451	18026
905.569	17988
905.686	18045
905.803	17958
905.921	17840
906.038	17904
906.155	17832
906.272	17703
906.389	17676
906.506	17585
906.623	17573
906.74	17486
906.857	17551
906.974	17478
907.091	17634
907.208	17551
907.324	17661
907.441	17398
907.557	17330
907.674	17334
907.79	17223
907.907	17212
908.023	17284
908.139	17334
908.256	17356
908.372	17121
908.488	17143
908.604	16980
908.72	16961
908.836	17014
908.952	16953
909.068	16976
909.184	16999
909.3	17010
909.415	17033
909.531	17022
909.647	16889
909.762	16755
909.878	16580
909.993	16790
910.108	16717
910.224	16542
910.339	16694
910.454	16580
910.57	16508
910.685	16394
910.8	16683
910.915	16634
911.03	16424
911.145	16276
911.259	16413
911.374	16329
911.489	16162
911.604	16143
911.718	16090
911.833	16010
911.947	15934
912.062	15876
912.176	16055
912.291	16029
912.405	15956
912.519	16215
912.633	16253
912.748	16055
912.862	16074
912.976	15991
913.09	15774
913.204	15774
913.318	15854
913.431	16021
913.545	15892
913.659	15956
913.772	15857
913.886	15728
914	15690
914.113	15747
914.226	15743
914.34	15675
914.453	15572
914.566	15694
914.68	15507
914.793	15553
914.906	15367
915.019	15268
915.132	15222
915.245	15294
915.358	15222
915.47	15245
915.583	15230
915.696	15313
915.809	15355
915.921	15462
916.034	15226
916.146	15123
916.259	15100
916.371	15230
916.483	15173
916.595	15070
916.708	15108
916.82	15043
916.932	15043
917.044	15093
917.156	14986
917.268	14937
917.38	14864
917.491	14971
917.603	14899
917.715	14941
917.826	15028
917.938	14853
918.049	14792
918.161	14754
918.272	14952
918.384	15005
918.495	14811
918.606	14644
918.717	14663
918.828	14648
918.939	14727
919.05	14575
919.161	14587
919.272	14381
919.383	14495
919.494	14632
919.604	14804
919.715	14663
919.826	14511
919.936	14610
920.047	14773
920.157	14575
920.267	14804
920.378	14602
920.488	14461
920.598	14765
920.708	14861
920.818	14750
920.928	14773
921.038	14921
921.148	14800
921.258	14526
921.368	14415
921.477	14419
921.587	14347
921.697	14195
921.806	14415
921.916	14176
922.025	14020
922.134	14012
922.244	14012
922.353	14016
922.462	13928
922.571	13841
922.68	13616
922.789	13643
922.898	13609
923.007	13605
923.116	13590
923.224	13666
923.333	13483
923.442	13419
923.55	13415
923.659	13468
923.767	13510
923.876	13343
923.984	13506
924.092	13346
924.201	13415
924.309	13335
924.417	13316
924.525	13282
924.633	13293
924.741	14073
924.849	13038
924.956	13270
925.064	13118
925.172	13069
925.279	12996
925.387	13107
925.494	13019
925.602	13088
925.709	13069
925.816	13061
925.924	13019
926.031	13080
926.138	12958
926.245	13000
926.352	12947
926.459	12993
926.566	13053
926.673	12932
926.779	12741
926.886	12715
926.993	12646
927.099	12677
927.206	12544
927.312	12559
927.419	12665
927.525	12574
927.631	12658
927.737	12540
927.843	12456
927.95	12380
928.056	12433
928.162	12433
928.267	12456
928.373	13057
928.479	12513
928.585	12273
928.69	12369
928.796	12376
928.901	12270
929.007	12239
929.112	12330
929.218	12194
929.323	12133
929.428	12136
929.533	12239
929.638	12072
929.743	12072
929.848	12098
929.953	12159
930.058	12057
930.163	11851
930.267	11901
930.372	11916
930.477	11798
930.581	12003
930.685	11897
930.79	11646
930.894	11756
930.998	11722
931.103	11832
931.207	11414
931.311	11459
931.415	11326
931.519	11132
931.623	11041
