Data from test_V78500241_1406.txt Node
Date: Fri Mar 25 15:19:38 CST 2022
User: usil
Spectrometer: V785-0024
Trigger mode: 0
Integration Time (sec): 4.000000E-1
Scans to average: 1
Nonlinearity correction enabled: false
Boxcar width: 0
Storing dark spectrum: false
XAxis mode: Wavelengths
Number of Pixels in Spectrum: 1024
>>>>>Begin Spectral Data<<<<<
801.071	28204
801.214	27903
801.356	27751
801.499	27774
801.641	27576
801.783	27542
801.926	27625
802.068	27606
802.211	27629
802.353	27538
802.496	27397
802.638	27397
802.78	27370
802.923	27408
803.065	27173
803.208	27055
803.35	27241
803.492	27386
803.635	27466
803.777	27477
803.919	27473
804.061	27781
804.204	27648
804.346	27424
804.488	27370
804.63	27545
804.773	27443
804.915	27481
805.057	27481
805.199	27534
805.341	27679
805.483	27686
805.626	27686
805.768	27511
805.91	27705
806.052	27633
806.194	27644
806.336	27838
806.478	27698
806.62	27587
806.762	27880
806.904	27819
807.046	28177
807.188	27987
807.33	28124
807.472	28185
807.614	28010
807.756	27994
807.898	27895
808.04	27945
808.182	27945
808.324	28006
808.465	28082
808.607	28059
808.749	28363
808.891	28401
809.033	28618
809.174	28527
809.316	28398
809.458	28314
809.6	28223
809.741	28341
809.883	28470
810.025	28538
810.166	28493
810.308	28592
810.45	28542
810.591	28592
810.733	28421
810.875	28303
811.016	28192
811.158	28188
811.299	28474
811.441	28565
811.582	28527
811.724	28272
811.865	28322
812.007	28314
812.148	28268
812.29	28272
812.431	28599
812.573	28622
812.714	28774
812.855	28752
812.997	28854
813.138	29181
813.279	28915
813.421	28946
813.562	28774
813.703	28668
813.845	28462
813.986	28310
814.127	28135
814.268	27979
814.41	28101
814.551	28124
814.692	28055
814.833	27918
814.974	28048
815.115	27991
815.256	27770
815.397	27892
815.539	27835
815.68	27850
815.821	27728
815.962	27922
816.103	27827
816.244	27797
816.385	27610
816.526	27477
816.666	27469
816.807	27256
816.948	27458
817.089	27393
817.23	27336
817.371	27370
817.512	27427
817.653	27260
817.793	27195
817.934	27222
818.075	27355
818.216	27393
818.356	27291
818.497	27252
818.638	27074
818.778	27051
818.919	26990
819.06	27188
819.2	27207
819.341	27203
819.481	27348
819.622	27416
819.762	27629
819.903	27618
820.043	27625
820.184	27595
820.324	27439
820.465	27348
820.605	27408
820.746	27443
820.886	27374
821.026	27431
821.167	27256
821.307	27408
821.447	27264
821.588	27241
821.728	27119
821.868	26864
822.008	26716
822.149	26735
822.289	26929
822.429	26412
822.569	26408
822.709	26461
822.849	26237
822.99	26301
823.13	26252
823.27	26206
823.41	26134
823.55	26046
823.69	26111
823.83	26046
823.97	26153
824.11	25791
824.25	25906
824.389	26001
824.529	26043
824.669	25833
824.809	26069
824.949	25902
825.089	26016
825.228	25936
825.368	25925
825.508	25738
825.648	25769
825.787	25845
825.927	25944
826.067	25860
826.206	25784
826.346	25936
826.485	25841
826.625	25715
826.765	25928
826.904	25765
827.044	25586
827.183	25487
827.323	25635
827.462	25460
827.601	25472
827.741	25373
827.88	25582
828.02	25415
828.159	25491
828.298	25529
828.437	25609
828.577	25441
828.716	25723
828.855	25411
828.994	25187
829.134	25244
829.273	25266
829.412	25168
829.551	25148
829.69	25206
829.829	25240
829.968	25171
830.107	25228
830.246	25171
830.385	25133
830.524	25133
830.663	24966
830.802	24871
830.941	24837
831.08	24757
831.219	24996
831.357	24848
831.496	25050
831.635	24795
831.774	24764
831.913	24783
832.051	24616
832.19	24593
832.329	24601
832.467	24494
832.606	24532
832.744	24517
832.883	24426
833.022	24471
833.16	24452
833.299	24452
833.437	24570
833.576	24532
833.714	24578
833.852	24608
833.991	24631
834.129	24574
834.267	24604
834.406	24384
834.544	24604
834.682	24445
834.821	24650
834.959	24692
835.097	24479
835.235	24467
835.373	24528
835.511	24597
835.65	24342
835.788	24350
835.926	24235
836.064	24186
836.202	24102
836.34	24327
836.478	24410
836.615	24350
836.753	24471
836.891	24403
837.029	24437
837.167	24266
837.305	24205
837.443	24304
837.58	24190
837.718	24194
837.856	24121
837.993	24136
838.131	24216
838.269	24030
838.406	24117
838.544	24041
838.681	23805
838.819	23847
838.956	23665
839.094	23543
839.231	23756
839.369	23817
839.506	24072
839.643	23935
839.781	23699
839.918	23672
840.055	23627
840.193	23665
840.33	23566
840.467	23623
840.604	23676
840.742	23813
840.879	23490
841.016	23657
841.153	23474
841.29	23703
841.427	23604
841.564	23619
841.701	23520
841.838	23512
841.975	23429
842.112	23383
842.249	23334
842.385	23254
842.522	23417
842.659	23235
842.796	23315
842.933	23383
843.069	23273
843.206	23311
843.343	23345
843.479	23474
843.616	23436
843.752	23067
843.889	23159
844.025	23250
844.162	23075
844.298	23212
844.435	23105
844.571	23056
844.708	23117
844.844	23250
844.98	23136
845.117	23204
845.253	23105
845.389	22850
845.525	22980
845.661	22927
845.798	22930
845.934	22995
846.07	22850
846.206	22892
846.342	23064
846.478	22866
846.614	22702
846.75	22474
846.886	22554
847.022	22565
847.158	22538
847.294	22500
847.429	22569
847.565	22618
847.701	22702
847.837	22333
847.972	22147
848.108	22325
848.244	22424
848.379	22249
848.515	22162
848.65	22051
848.786	22287
848.921	22242
849.057	22314
849.192	22120
849.328	22211
849.463	22207
849.598	22162
849.734	22013
849.869	22006
850.004	21911
850.14	22021
850.275	21880
850.41	21941
850.545	21956
850.68	21778
850.815	21865
850.95	21941
851.085	21972
851.22	22116
851.355	21918
851.49	21907
851.625	21816
851.76	21949
851.895	21800
852.03	21873
852.165	21918
852.299	21972
852.434	22112
852.569	22021
852.703	21998
852.838	21816
852.973	21949
853.107	22048
853.242	21823
853.376	21812
853.511	21564
853.645	21660
853.78	21812
853.914	21709
854.048	21557
854.183	21603
854.317	21816
854.451	21903
854.585	21823
854.72	21755
854.854	21797
854.988	21694
855.122	21751
855.256	21686
855.39	21724
855.524	21831
855.658	21766
855.792	21808
855.926	21736
856.06	21812
856.194	21846
856.327	21717
856.461	21732
856.595	21728
856.729	21663
856.862	21804
856.996	21774
857.13	21728
857.263	21915
857.397	21827
857.53	21690
857.664	21732
857.797	21816
857.931	21918
858.064	21823
858.197	21903
858.331	21720
858.464	21660
858.597	21572
858.731	21709
858.864	21690
858.997	21629
859.13	21724
859.263	21728
859.396	21759
859.529	21717
859.662	21656
859.795	21618
859.928	21739
860.061	21854
860.194	21876
860.327	21892
860.46	21766
860.592	21918
860.725	21918
860.858	21884
860.99	21770
861.123	21625
861.256	21705
861.388	21694
861.521	22333
861.653	21523
861.786	21553
861.918	21507
862.05	21618
862.183	21561
862.315	21515
862.447	21751
862.58	21587
862.712	21477
862.844	21401
862.976	21504
863.108	21504
863.24	21865
863.372	21428
863.504	21420
863.636	21393
863.768	21450
863.9	21435
864.032	21386
864.164	21447
864.296	21538
864.428	21519
864.559	21526
864.691	21462
864.823	21466
864.954	21378
865.086	21424
865.217	21298
865.349	21180
865.48	21321
865.612	21287
865.743	21393
865.875	21310
866.006	21272
866.137	21260
866.269	21348
866.4	21351
866.531	21241
866.662	21093
866.793	21252
866.924	21302
867.055	21306
867.186	21218
867.317	21230
867.448	21127
867.579	21135
867.71	21214
867.841	21081
867.972	21306
868.103	21249
868.233	21298
868.364	21294
868.495	21310
868.625	21469
868.756	21614
868.886	21298
869.017	21447
869.147	21557
869.278	21568
869.408	21557
869.539	21488
869.669	21549
869.799	21549
869.929	21564
870.06	21515
870.19	21785
870.32	21918
870.45	21819
870.58	21793
870.71	22070
870.84	22017
870.97	21789
871.1	21827
871.23	21949
871.36	22059
871.489	21983
871.619	22029
871.749	22112
871.879	22124
872.008	22177
872.138	22101
872.267	22166
872.397	21983
872.526	21888
872.656	21934
872.785	21934
872.915	22112
873.044	22105
873.173	22192
873.303	22078
873.432	22188
873.561	22249
873.69	22162
873.819	22116
873.948	22261
874.077	22253
874.206	22048
874.335	21983
874.464	22169
874.593	22276
874.722	22112
874.851	22242
874.979	22337
875.108	22249
875.237	22249
875.365	22265
875.494	22265
875.623	22299
875.751	22287
875.88	22318
876.008	22550
876.136	22508
876.265	22721
876.393	22793
876.521	22771
876.65	22889
876.778	22729
876.906	22611
877.034	22527
877.162	22603
877.29	22485
877.418	22645
877.546	22664
877.674	22634
877.802	22862
877.93	22710
878.058	22538
878.185	22603
878.313	22672
878.441	22687
878.568	22485
878.696	22557
878.824	22790
878.951	22618
879.079	22866
879.206	22984
879.333	22797
879.461	22656
879.588	22767
879.715	22774
879.842	22911
879.97	22702
880.097	22481
880.224	22424
880.351	22481
880.478	22398
880.605	22303
880.732	22466
880.859	22645
880.986	22447
881.112	22478
881.239	22382
881.366	22139
881.493	22219
881.619	22105
881.746	22135
881.872	21998
881.999	21953
882.125	21975
882.252	22109
882.378	21991
882.505	22131
882.631	21865
882.757	21793
882.883	21823
883.01	21709
883.136	21728
883.262	21606
883.388	21481
883.514	21705
883.64	21766
883.766	21644
883.892	21431
884.018	21610
884.143	21625
884.269	21698
884.395	21454
884.52	21344
884.646	21523
884.772	21272
884.897	21237
885.023	21302
885.148	21614
885.274	21534
885.399	21500
885.524	21317
885.65	21340
885.775	21443
885.9	21287
886.025	21431
886.15	21405
886.275	21408
886.4	21249
886.525	21226
886.65	21256
886.775	21275
886.9	21469
887.025	21682
887.149	21389
887.274	21351
887.399	21070
887.523	21138
887.648	21074
887.773	21047
887.897	21222
888.021	21279
888.146	21192
888.27	21112
888.395	21283
888.519	21127
888.643	21150
888.767	21127
888.891	21108
889.015	20952
889.139	20941
889.263	20963
889.387	21055
889.511	21077
889.635	20979
889.759	20986
889.883	20902
890.006	20994
890.13	20910
890.254	20819
890.377	20815
890.501	20735
890.624	20678
890.748	20667
890.871	20636
890.995	20495
891.118	20522
891.241	20393
891.364	20495
891.488	20549
891.611	20370
891.734	20457
891.857	20511
891.98	20571
892.103	20495
892.226	20495
892.349	20503
892.471	20332
892.594	20385
892.717	20336
892.839	20476
892.962	20465
893.085	20476
893.207	20419
893.33	20278
893.452	20332
893.575	20446
893.697	20355
893.819	20560
893.941	20495
894.064	20629
894.186	20343
894.308	20336
894.43	20442
894.552	20499
894.674	20518
894.796	20290
894.918	20332
895.04	20290
895.161	20298
895.283	20393
895.405	20301
895.526	20396
895.648	20309
895.769	20396
895.891	20492
896.012	20351
896.134	20419
896.255	20415
896.376	20317
896.498	20237
896.619	20423
896.74	20362
896.861	20415
896.982	20621
897.103	20731
897.224	20651
897.345	20655
897.466	20575
897.587	20598
897.708	20773
897.828	20560
897.949	20427
898.07	20358
898.19	20522
898.311	20488
898.431	20431
898.552	20587
898.672	20705
898.792	20625
898.913	20609
899.033	20503
899.153	20446
899.273	20263
899.393	20370
899.513	20423
899.633	20275
899.753	20358
899.873	20210
899.993	20343
900.113	20191
900.232	20271
900.352	20271
900.472	20313
900.591	20138
900.711	19970
900.83	20081
900.95	20142
901.069	20161
901.189	20024
901.308	19913
901.427	19731
901.546	19772
901.665	19731
901.784	19776
901.904	19559
902.023	19502
902.141	19400
902.26	19168
902.379	19194
902.498	19099
902.617	19137
902.735	19266
902.854	19072
902.973	19168
903.091	18958
903.21	18897
903.328	18837
903.446	18829
903.565	18738
903.683	18604
903.801	18517
903.919	18509
904.038	18486
904.156	18292
904.274	18578
904.392	18502
904.51	18502
904.627	18353
904.745	18456
904.863	18536
904.981	18163
905.098	18155
905.216	18083
905.334	18205
905.451	18053
905.569	18022
905.686	18133
905.803	18034
905.921	17836
906.038	18015
906.155	17965
906.272	17824
906.389	17870
906.506	17630
906.623	17623
906.74	17558
906.857	17463
906.974	17524
907.091	17684
907.208	17809
907.324	17680
907.441	17448
907.557	17368
907.674	17318
907.79	17284
907.907	17322
908.023	17345
908.139	17368
908.256	17383
908.372	17216
908.488	17284
908.604	17189
908.72	16995
908.836	17147
908.952	17105
909.068	17098
909.184	17204
909.3	17109
909.415	17132
909.531	16968
909.647	16843
909.762	16786
909.878	16710
909.993	16740
910.108	16805
910.224	16771
910.339	16759
910.454	16694
910.57	16630
910.685	16512
910.8	16767
910.915	16752
911.03	16512
911.145	16432
911.259	16432
911.374	16356
911.489	16318
911.604	16280
911.718	16109
911.833	16086
911.947	15854
912.062	15956
912.176	16150
912.291	16128
912.405	16029
912.519	16337
912.633	16219
912.748	16177
912.862	16048
912.976	15892
913.09	15800
913.204	15895
913.318	15869
913.431	16055
913.545	16120
913.659	16063
913.772	15781
913.886	15778
914	15774
914.113	15797
914.226	15918
914.34	15819
914.453	15576
914.566	15732
914.68	15603
914.793	15534
914.906	15386
915.019	15405
915.132	15241
915.245	15226
915.358	15397
915.47	15374
915.583	15348
915.696	15374
915.809	15355
915.921	15420
916.034	15287
916.146	15249
916.259	15199
916.371	15272
916.483	15180
916.595	15150
916.708	15039
916.82	15188
916.932	15123
917.044	15188
917.156	15032
917.268	15058
917.38	15100
917.491	14948
917.603	15085
917.715	15104
917.826	14963
917.938	14937
918.049	14800
918.161	14941
918.272	14986
918.384	14906
918.495	14937
918.606	14659
918.717	14693
918.828	14670
918.939	14834
919.05	14617
919.161	14667
919.272	14431
919.383	14552
919.494	14743
919.604	14887
919.715	14693
919.826	14629
919.936	14613
920.047	14716
920.157	14632
920.267	14773
920.378	14697
920.488	14712
920.598	14819
920.708	14933
920.818	14956
920.928	14746
921.038	14929
921.148	14902
921.258	14682
921.368	14568
921.477	14298
921.587	14347
921.697	14252
921.806	14370
921.916	14202
922.025	14096
922.134	14081
922.244	13974
922.353	13989
922.462	13959
922.571	13894
922.68	13632
922.789	13788
922.898	13731
923.007	13651
923.116	13674
923.224	13700
923.333	13651
923.442	13590
923.55	13548
923.659	13499
923.767	13575
923.876	13480
923.984	13518
924.092	13415
924.201	13491
924.309	13468
924.417	13449
924.525	13369
924.633	13327
924.741	14088
924.849	13133
924.956	13339
925.064	13187
925.172	13004
925.279	13046
925.387	13168
925.494	12996
925.602	13308
925.709	13171
925.816	12970
925.924	13057
926.031	12993
926.138	13088
926.245	13114
926.352	12878
926.459	13038
926.566	13118
926.673	12947
926.779	12886
926.886	12806
926.993	12711
927.099	12604
927.206	12692
927.312	12593
927.419	12642
927.525	12662
927.631	12692
927.737	12445
927.843	12551
927.95	12365
928.056	12475
928.162	12528
928.267	12620
928.373	13194
928.479	12559
928.585	12342
928.69	12433
928.796	12471
928.901	12330
929.007	12262
929.112	12448
929.218	12319
929.323	12175
929.428	12247
929.533	12285
929.638	12060
929.743	12098
929.848	12144
929.953	12171
930.058	12038
930.163	11851
930.267	11923
930.372	12076
930.477	11745
930.581	12064
930.685	11916
930.79	11794
930.894	11733
930.998	11836
931.103	11927
931.207	11516
931.311	11425
931.415	11330
931.519	11216
931.623	11193
