Data from test_V78500241_3182.txt Node
Date: Fri Mar 25 15:32:01 CST 2022
User: usil
Spectrometer: V785-0024
Trigger mode: 0
Integration Time (sec): 4.000000E-1
Scans to average: 1
Nonlinearity correction enabled: false
Boxcar width: 0
Storing dark spectrum: false
XAxis mode: Wavelengths
Number of Pixels in Spectrum: 1024
>>>>>Begin Spectral Data<<<<<
801.071	27119
801.214	27013
801.356	26769
801.499	26815
801.641	26564
801.783	26705
801.926	26769
802.068	26686
802.211	26682
802.353	26503
802.496	26336
802.638	26324
802.78	26191
802.923	26168
803.065	26050
803.208	26202
803.35	26210
803.492	26480
803.635	26355
803.777	26393
803.919	26438
804.061	26754
804.204	26492
804.346	26374
804.488	26317
804.63	26332
804.773	26244
804.915	26556
805.057	26613
805.199	26484
805.341	26518
805.483	26499
805.626	26507
805.768	26495
805.91	26636
806.052	26526
806.194	26461
806.336	26701
806.478	26446
806.62	26431
806.762	26602
806.904	26819
807.046	26929
807.188	26940
807.33	27028
807.472	27173
807.614	26701
807.756	26876
807.898	26697
808.04	26651
808.182	26659
808.324	26651
808.465	26883
808.607	26902
808.749	27074
808.891	27096
809.033	27367
809.174	27272
809.316	27066
809.458	27108
809.6	27074
809.741	27150
809.883	27298
810.025	27245
810.166	27351
810.308	27420
810.45	27435
810.591	27249
810.733	27142
810.875	27024
811.016	26990
811.158	27039
811.299	27374
811.441	27310
811.582	27226
811.724	26956
811.865	27184
812.007	26956
812.148	26990
812.29	27207
812.431	27249
812.573	27386
812.714	27557
812.855	27473
812.997	27701
813.138	27888
813.279	27831
813.421	27682
813.562	27583
813.703	27408
813.845	27302
813.986	26994
814.127	26948
814.268	26769
814.41	26895
814.551	26678
814.692	26845
814.833	26746
814.974	26796
815.115	26765
815.256	26632
815.397	26682
815.539	26587
815.68	26587
815.821	26438
815.962	26476
816.103	26640
816.244	26366
816.385	26275
816.526	26298
816.666	26077
816.807	25955
816.948	26043
817.089	26134
817.23	26142
817.371	25925
817.512	25997
817.653	25959
817.793	25970
817.934	25940
818.075	26031
818.216	26001
818.356	25986
818.497	25864
818.638	25712
818.778	25723
818.919	25780
819.06	25818
819.2	25925
819.341	26005
819.481	25966
819.622	26176
819.762	26423
819.903	26282
820.043	26088
820.184	26221
820.324	26069
820.465	26199
820.605	26172
820.746	25913
820.886	25917
821.026	26027
821.167	26176
821.307	26206
821.447	25928
821.588	25963
821.728	25776
821.868	25719
822.008	25544
822.149	25445
822.289	25434
822.429	25247
822.569	25088
822.709	25160
822.849	25023
822.99	24954
823.13	24935
823.27	25076
823.41	24779
823.55	24696
823.69	24916
823.83	24715
823.97	24920
824.11	24646
824.25	24627
824.389	24536
824.529	24646
824.669	24703
824.809	24722
824.949	24635
825.089	24681
825.228	24612
825.368	24372
825.508	24505
825.648	24471
825.787	24445
825.927	24604
826.067	24563
826.206	24467
826.346	24589
826.485	24620
826.625	24452
826.765	24585
826.904	24570
827.044	24270
827.183	24201
827.323	24091
827.462	24186
827.601	24213
827.741	24144
827.88	24281
828.02	24038
828.159	24220
828.298	24091
828.437	24068
828.577	24087
828.716	24258
828.855	24140
828.994	23973
829.134	23950
829.273	23840
829.412	23794
829.551	23790
829.69	23908
829.829	23935
829.968	23961
830.107	23935
830.246	23874
830.385	23916
830.524	23767
830.663	23805
830.802	23630
830.941	23452
831.08	23459
831.219	23691
831.357	23710
831.496	23714
831.635	23581
831.774	23402
831.913	23330
832.051	23280
832.19	23288
832.329	23200
832.467	23105
832.606	23037
832.744	23075
832.883	23193
833.022	23227
833.16	23258
833.299	23349
833.437	23189
833.576	23254
833.714	23250
833.852	23341
833.991	23250
834.129	23383
834.267	23337
834.406	23360
834.544	23425
834.682	23303
834.821	23220
834.959	23330
835.097	23105
835.235	23303
835.373	23193
835.511	23341
835.65	23273
835.788	23098
835.926	22934
836.064	22927
836.202	23006
836.34	23189
836.478	23239
836.615	23159
836.753	23124
836.891	23250
837.029	23086
837.167	23086
837.305	23044
837.443	22991
837.58	23033
837.718	23098
837.856	23155
837.993	22923
838.131	22908
838.269	22782
838.406	22984
838.544	22850
838.681	22641
838.819	22531
838.956	22478
839.094	22497
839.231	22459
839.369	22580
839.506	22885
839.643	22641
839.781	22459
839.918	22409
840.055	22367
840.193	22344
840.33	22367
840.467	22367
840.604	22409
840.742	22702
840.879	22230
841.016	22238
841.153	22325
841.29	22550
841.427	22398
841.564	22348
841.701	22375
841.838	22318
841.975	22314
842.112	22405
842.249	22181
842.385	22196
842.522	22303
842.659	22299
842.796	22185
842.933	22154
843.069	22017
843.206	22036
843.343	22238
843.479	22162
843.616	22150
843.752	21895
843.889	21907
844.025	22070
844.162	21968
844.298	22025
844.435	22048
844.571	21880
844.708	21972
844.844	22177
844.98	22116
845.117	21869
845.253	21934
845.389	21800
845.525	21804
845.661	21812
845.798	21610
845.934	21732
846.07	21644
846.206	21732
846.342	21762
846.478	21637
846.614	21481
846.75	21374
846.886	21386
847.022	21496
847.158	21428
847.294	21340
847.429	21412
847.565	21230
847.701	21572
847.837	21146
847.972	21100
848.108	21180
848.244	21245
848.379	21039
848.515	20948
848.65	20952
848.786	20986
848.921	20986
849.057	21123
849.192	20982
849.328	20982
849.463	21157
849.598	20925
849.734	20861
849.869	20762
850.004	20777
850.14	20883
850.275	20864
850.41	20632
850.545	20777
850.68	20720
850.815	20705
850.95	20815
851.085	20842
851.22	20804
851.355	20792
851.49	20731
851.625	20705
851.76	20876
851.895	20758
852.03	20659
852.165	20796
852.299	20686
852.434	20845
852.569	20868
852.703	20769
852.838	20765
852.973	20845
853.107	20834
853.242	20720
853.376	20583
853.511	20465
853.645	20476
853.78	20575
853.914	20602
854.048	20541
854.183	20602
854.317	20640
854.451	20777
854.585	20541
854.72	20514
854.854	20724
854.988	20495
855.122	20590
855.256	20389
855.39	20571
855.524	20590
855.658	20651
855.792	20598
855.926	20682
856.06	20632
856.194	20682
856.327	20625
856.461	20396
856.595	20484
856.729	20495
856.862	20651
856.996	20552
857.13	20701
857.263	20609
857.397	20689
857.53	20514
857.664	20674
857.797	20674
857.931	20659
858.064	20590
858.197	20602
858.331	20442
858.464	20476
858.597	20461
858.731	20556
858.864	20552
858.997	20499
859.13	20560
859.263	20556
859.396	20648
859.529	20667
859.662	20492
859.795	20594
859.928	20602
860.061	20746
860.194	20708
860.327	20727
860.46	20590
860.592	20674
860.725	20708
860.858	20651
860.99	20655
861.123	20499
861.256	20507
861.388	20590
861.521	21161
861.653	20446
861.786	20362
861.918	20377
862.05	20545
862.183	20450
862.315	20590
862.447	20499
862.58	20617
862.712	20317
862.844	20336
862.976	20351
863.108	20305
863.24	20670
863.372	20218
863.504	20454
863.636	20320
863.768	20419
863.9	20351
864.032	20214
864.164	20237
864.296	20427
864.428	20415
864.559	20366
864.691	20396
864.823	20313
864.954	20290
865.086	20313
865.217	20263
865.349	20157
865.48	20248
865.612	20256
865.743	20351
865.875	20225
866.006	20134
866.137	20107
866.269	20149
866.4	20191
866.531	20225
866.662	20088
866.793	20084
866.924	20195
867.055	20180
867.186	20145
867.317	20142
867.448	20043
867.579	20164
867.71	20069
867.841	20081
867.972	20149
868.103	20050
868.233	20119
868.364	20183
868.495	20233
868.625	20476
868.756	20514
868.886	20278
869.017	20389
869.147	20473
869.278	20457
869.408	20442
869.539	20362
869.669	20552
869.799	20518
869.929	20583
870.06	20511
870.19	20693
870.32	20777
870.45	20746
870.58	20678
870.71	20925
870.84	20948
870.97	20857
871.1	20910
871.23	20918
871.36	21051
871.489	20849
871.619	21036
871.749	21051
871.879	21009
872.008	21108
872.138	21070
872.267	21062
872.397	20921
872.526	20845
872.656	20918
872.785	20823
872.915	21081
873.044	21207
873.173	21089
873.303	21009
873.432	21093
873.561	21036
873.69	21081
873.819	20967
873.948	21077
874.077	21028
874.206	21009
874.335	21028
874.464	21119
874.593	21279
874.722	21230
874.851	21355
874.979	21367
875.108	21275
875.237	21138
875.365	21298
875.494	21325
875.623	21272
875.751	21252
875.88	21275
876.008	21492
876.136	21504
876.265	21663
876.393	21751
876.521	21713
876.65	21770
876.778	21644
876.906	21599
877.034	21667
877.162	21652
877.29	21625
877.418	21549
877.546	21705
877.674	21709
877.802	21553
877.93	21576
878.058	21595
878.185	21538
878.313	21519
878.441	21564
878.568	21393
878.696	21622
878.824	21576
878.951	21633
879.079	21751
879.206	21903
879.333	21759
879.461	21580
879.588	21724
879.715	21835
879.842	21842
879.97	21682
880.097	21538
880.224	21614
880.351	21405
880.478	21492
880.605	21310
880.732	21374
880.859	21743
880.986	21466
881.112	21500
881.239	21302
881.366	21150
881.493	21161
881.619	20990
881.746	21043
881.872	21089
881.999	21005
882.125	20994
882.252	21055
882.378	20986
882.505	21207
882.631	20914
882.757	20815
882.883	20762
883.01	20800
883.136	20716
883.262	20511
883.388	20686
883.514	20689
883.64	20864
883.766	20598
883.892	20488
884.018	20583
884.143	20705
884.269	20849
884.395	20419
884.52	20408
884.646	20396
884.772	20294
884.897	20343
885.023	20343
885.148	20427
885.274	20469
885.399	20488
885.524	20214
885.65	20358
885.775	20290
885.9	20431
886.025	20495
886.15	20465
886.275	20396
886.4	20240
886.525	20370
886.65	20294
886.775	20233
886.9	20480
887.025	20457
887.149	20389
887.274	20218
887.399	20145
887.523	20130
887.648	20168
887.773	20107
887.897	20195
888.021	20256
888.146	20107
888.27	20301
888.395	20305
888.519	20187
888.643	20225
888.767	20161
888.891	20005
889.015	19944
889.139	20016
889.263	20005
889.387	19947
889.511	20153
889.635	20050
889.759	19932
889.883	20008
890.006	19925
890.13	20065
890.254	19944
890.377	19814
890.501	19712
890.624	19639
890.748	19913
890.871	19537
890.995	19647
891.118	19506
891.241	19480
891.364	19624
891.488	19632
891.611	19510
891.734	19438
891.857	19594
891.98	19586
892.103	19639
892.226	19616
892.349	19548
892.471	19293
892.594	19453
892.717	19582
892.839	19601
892.962	19506
893.085	19632
893.207	19449
893.33	19388
893.452	19304
893.575	19537
893.697	19422
893.819	19624
893.941	19632
894.064	19651
894.186	19540
894.308	19354
894.43	19537
894.552	19620
894.674	19575
894.796	19369
894.918	19441
895.04	19441
895.161	19537
895.283	19540
895.405	19346
895.526	19403
895.648	19392
895.769	19487
895.891	19506
896.012	19537
896.134	19563
896.255	19529
896.376	19476
896.498	19457
896.619	19480
896.74	19453
896.861	19582
896.982	19799
897.103	19928
897.224	19624
897.345	19666
897.466	19635
897.587	19715
897.708	19898
897.828	19715
897.949	19575
898.07	19681
898.19	19727
898.311	19807
898.431	19609
898.552	19681
898.672	19799
898.792	19814
898.913	19830
899.033	19609
899.153	19362
899.273	19335
899.393	19487
899.513	19521
899.633	19518
899.753	19563
899.873	19384
899.993	19422
900.113	19415
900.232	19407
900.352	19377
900.472	19339
900.591	19171
900.711	19381
900.83	19194
900.95	19354
901.069	19350
901.189	19145
901.308	19046
901.427	18779
901.546	18886
901.665	18848
901.784	18905
901.904	18745
902.023	18661
902.141	18407
902.26	18384
902.379	18418
902.498	18361
902.617	18155
902.735	18292
902.854	18330
902.973	18258
903.091	18076
903.21	18030
903.328	18003
903.446	17897
903.565	17824
903.683	17798
903.801	17729
903.919	17805
904.038	17809
904.156	17608
904.274	17619
904.392	17532
904.51	17615
904.627	17642
904.745	17646
904.863	17745
904.981	17535
905.098	17307
905.216	17292
905.334	17345
905.451	17360
905.569	17277
905.686	17231
905.803	17334
905.921	17094
906.038	17166
906.155	17094
906.272	16942
906.389	17041
906.506	16835
906.623	16915
906.74	16904
906.857	16793
906.974	16812
907.091	16889
907.208	17029
907.324	16850
907.441	16771
907.557	16660
907.674	16573
907.79	16508
907.907	16523
908.023	16432
908.139	16637
908.256	16493
908.372	16538
908.488	16417
908.604	16451
908.72	16287
908.836	16375
908.952	16230
909.068	16363
909.184	16367
909.3	16226
909.415	16284
909.531	16375
909.647	16051
909.762	16025
909.878	15956
909.993	16025
910.108	16051
910.224	15930
910.339	16006
910.454	15842
910.57	15838
910.685	15739
910.8	15987
910.915	15960
911.03	15781
911.145	15614
911.259	15561
911.374	15732
911.489	15523
911.604	15496
911.718	15443
911.833	15447
911.947	15180
912.062	15119
912.176	15359
912.291	15359
912.405	15401
912.519	15496
912.633	15534
912.748	15393
912.862	15184
912.976	15138
913.09	15142
913.204	15161
913.318	15203
913.431	15272
913.545	15298
913.659	15325
913.772	15112
913.886	15013
914	14918
914.113	15017
914.226	15119
914.34	15032
914.453	14868
914.566	15020
914.68	14830
914.793	14819
914.906	14689
915.019	14621
915.132	14514
915.245	14541
915.358	14655
915.47	14655
915.583	14552
915.696	14602
915.809	14689
915.921	14750
916.034	14526
916.146	14423
916.259	14556
916.371	14613
916.483	14522
916.595	14469
916.708	14450
916.82	14549
916.932	14454
917.044	14389
917.156	14389
917.268	14301
917.38	14339
917.491	14339
917.603	14294
917.715	14320
917.826	14404
917.938	14244
918.049	14134
918.161	14282
918.272	14381
918.384	14389
918.495	14282
918.606	14050
918.717	13955
918.828	14054
918.939	14031
919.05	14031
919.161	14001
919.272	13856
919.383	13894
919.494	13974
919.604	14191
919.715	14012
919.826	13951
919.936	14024
920.047	14027
920.157	13997
920.267	14111
920.378	14119
920.488	13989
920.598	14199
920.708	14286
920.818	14191
920.928	14100
921.038	14282
921.148	14221
921.258	13997
921.368	13989
921.477	13807
921.587	13765
921.697	13616
921.806	13769
921.916	13734
922.025	13582
922.134	13521
922.244	13396
922.353	13407
922.462	13183
922.571	13324
922.68	13065
922.789	13042
922.898	13008
923.007	13050
923.116	13027
923.224	13019
923.333	13008
923.442	12977
923.55	12920
923.659	12932
923.767	12977
923.876	12890
923.984	12939
924.092	12795
924.201	12909
924.309	12840
924.417	12886
924.525	12730
924.633	12703
924.741	13590
924.849	12642
924.956	12722
925.064	12555
925.172	12475
925.279	12540
925.387	12601
925.494	12566
925.602	12563
925.709	12559
925.816	12414
925.924	12540
926.031	12521
926.138	12490
926.245	12479
926.352	12270
926.459	12547
926.566	12555
926.673	12376
926.779	12300
926.886	12289
926.993	12060
927.099	12110
927.206	12049
927.312	12019
927.419	12167
927.525	12060
927.631	12175
927.737	12022
927.843	11927
927.95	11878
928.056	11893
928.162	11931
928.267	12049
928.373	12696
928.479	11851
928.585	11786
928.69	11798
928.796	11927
928.901	11790
929.007	11668
929.112	11779
929.218	11741
929.323	11623
929.428	11638
929.533	11805
929.638	11634
929.743	11623
929.848	11585
929.953	11619
930.058	11379
930.163	11330
930.267	11391
930.372	11566
930.477	11379
930.581	11478
930.685	11353
930.79	11140
930.894	11220
930.998	11220
931.103	11318
931.207	10984
931.311	10991
931.415	10774
931.519	10649
931.623	10584
