Data from test_V78500241_905.txt Node
Date: Fri Mar 25 15:16:09 CST 2022
User: usil
Spectrometer: V785-0024
Trigger mode: 0
Integration Time (sec): 4.000000E-1
Scans to average: 1
Nonlinearity correction enabled: false
Boxcar width: 0
Storing dark spectrum: false
XAxis mode: Wavelengths
Number of Pixels in Spectrum: 1024
>>>>>Begin Spectral Data<<<<<
801.071	28109
801.214	28143
801.356	27895
801.499	27922
801.641	27846
801.783	27884
801.926	27922
802.068	27778
802.211	27728
802.353	27701
802.496	27458
802.638	27504
802.78	27530
802.923	27473
803.065	27477
803.208	27321
803.35	27351
803.492	27614
803.635	27618
803.777	27591
803.919	27755
804.061	27972
804.204	27770
804.346	27603
804.488	27507
804.63	27785
804.773	27572
804.915	27709
805.057	27922
805.199	27679
805.341	27770
805.483	27850
805.626	27899
805.768	27717
805.91	27838
806.052	27755
806.194	27793
806.336	27953
806.478	27884
806.62	27812
806.762	27876
806.904	28013
807.046	28421
807.188	28215
807.33	28246
807.472	28295
807.614	28154
807.756	28128
807.898	28147
808.04	28207
808.182	27994
808.324	28074
808.465	28265
808.607	28398
808.749	28512
808.891	28478
809.033	28687
809.174	28451
809.316	28451
809.458	28462
809.6	28470
809.741	28664
809.883	28584
810.025	28725
810.166	28656
810.308	28668
810.45	28592
810.591	28580
810.733	28447
810.875	28455
811.016	28481
811.158	28481
811.299	28653
811.441	28630
811.582	28656
811.724	28554
811.865	28394
812.007	28470
812.148	28584
812.29	28573
812.431	28694
812.573	28923
812.714	28927
812.855	29025
812.997	29147
813.138	29356
813.279	29269
813.421	29197
813.562	29037
813.703	28957
813.845	28752
813.986	28504
814.127	28268
814.268	28166
814.41	28303
814.551	28173
814.692	28303
814.833	28169
814.974	28272
815.115	28261
815.256	27930
815.397	28116
815.539	28017
815.68	28032
815.821	27926
815.962	27949
816.103	27979
816.244	27975
816.385	27785
816.526	27800
816.666	27599
816.807	27519
816.948	27450
817.089	27728
817.23	27549
817.371	27488
817.512	27648
817.653	27545
817.793	27481
817.934	27644
818.075	27728
818.216	27610
818.356	27496
818.497	27386
818.638	27203
818.778	27275
818.919	27374
819.06	27226
819.2	27370
819.341	27526
819.481	27454
819.622	27572
819.762	27903
819.903	27705
820.043	27774
820.184	27625
820.324	27610
820.465	27564
820.605	27633
820.746	27671
820.886	27477
821.026	27641
821.167	27599
821.307	27656
821.447	27641
821.588	27496
821.728	27188
821.868	27161
822.008	27089
822.149	27085
822.289	26956
822.429	26549
822.569	26705
822.709	26731
822.849	26457
822.99	26530
823.13	26427
823.27	26366
823.41	26400
823.55	26176
823.69	26339
823.83	26324
823.97	26259
824.11	26138
824.25	26126
824.389	26100
824.529	26210
824.669	26126
824.809	26286
824.949	26191
825.089	26320
825.228	26256
825.368	26001
825.508	25982
825.648	25986
825.787	26069
825.927	26161
826.067	26027
826.206	26107
826.346	26031
826.485	26149
826.625	25959
826.765	26180
826.904	26103
827.044	25715
827.183	25803
827.323	25704
827.462	25868
827.601	25826
827.741	25712
827.88	25868
828.02	25647
828.159	25776
828.298	25780
828.437	25830
828.577	25693
828.716	25921
828.855	25765
828.994	25571
829.134	25487
829.273	25518
829.412	25331
829.551	25343
829.69	25620
829.829	25472
829.968	25491
830.107	25479
830.246	25438
830.385	25392
830.524	25377
830.663	25301
830.802	25198
830.941	25103
831.08	25099
831.219	25194
831.357	25175
831.496	25358
831.635	25099
831.774	24939
831.913	25034
832.051	24802
832.19	24894
832.329	24817
832.467	24745
832.606	24658
832.744	24692
832.883	24738
833.022	24757
833.16	24787
833.299	24856
833.437	24787
833.576	24741
833.714	24871
833.852	24871
833.991	24939
834.129	24951
834.267	24958
834.406	24897
834.544	24798
834.682	24776
834.821	24829
834.959	25038
835.097	24741
835.235	24901
835.373	24711
835.511	24787
835.65	24646
835.788	24684
835.926	24570
836.064	24426
836.202	24502
836.34	24620
836.478	24741
836.615	24570
836.753	24604
836.891	24726
837.029	24791
837.167	24570
837.305	24486
837.443	24555
837.58	24528
837.718	24604
837.856	24570
837.993	24334
838.131	24433
838.269	24323
838.406	24388
838.544	24357
838.681	24114
838.819	24076
838.956	23923
839.094	23916
839.231	23935
839.369	24167
839.506	24216
839.643	24140
839.781	23855
839.918	23969
840.055	23935
840.193	23897
840.33	23840
840.467	23821
840.604	23828
840.742	23942
840.879	23718
841.016	23783
841.153	23733
841.29	23843
841.427	23923
841.564	23965
841.701	23855
841.838	23790
841.975	23752
842.112	23809
842.249	23600
842.385	23642
842.522	23726
842.659	23596
842.796	23585
842.933	23512
843.069	23474
843.206	23554
843.343	23619
843.479	23661
843.616	23627
843.752	23421
843.889	23433
844.025	23634
844.162	23471
844.298	23425
844.435	23337
844.571	23288
844.708	23330
844.844	23531
844.98	23531
845.117	23467
845.253	23406
845.389	23208
845.525	23345
845.661	23178
845.798	23098
845.934	23197
846.07	23155
846.206	23181
846.342	23204
846.478	23094
846.614	22908
846.75	22839
846.886	22774
847.022	22866
847.158	22809
847.294	22889
847.429	22843
847.565	22759
847.701	22984
847.837	22527
847.972	22580
848.108	22736
848.244	22611
848.379	22508
848.515	22436
848.65	22409
848.786	22451
848.921	22447
849.057	22455
849.192	22504
849.328	22599
849.463	22466
849.598	22500
849.734	22238
849.869	22314
850.004	22211
850.14	22276
850.275	22211
850.41	22067
850.545	22147
850.68	22074
850.815	22196
850.95	22101
851.085	22356
851.22	22382
851.355	22284
851.49	22162
851.625	22223
851.76	22325
851.895	22124
852.03	22109
852.165	22246
852.299	22139
852.434	22204
852.569	22219
852.703	22196
852.838	22306
852.973	22356
853.107	22253
853.242	22192
853.376	22048
853.511	22021
853.645	22029
853.78	22116
853.914	22048
854.048	21964
854.183	22036
854.317	22105
854.451	22173
854.585	21949
854.72	22010
854.854	22010
854.988	21949
855.122	22105
855.256	21850
855.39	22013
855.524	22105
855.658	22067
855.792	22063
855.926	21941
856.06	22013
856.194	22040
856.327	21994
856.461	21922
856.595	22002
856.729	21857
856.862	22070
856.996	22173
857.13	22029
857.263	22036
857.397	22067
857.53	21964
857.664	22093
857.797	22120
857.931	22112
858.064	22044
858.197	22238
858.331	21998
858.464	21956
858.597	21884
858.731	21873
858.864	21964
858.997	21994
859.13	22044
859.263	22010
859.396	22150
859.529	22063
859.662	22105
859.795	22070
859.928	22006
860.061	22299
860.194	22131
860.327	22013
860.46	22002
860.592	22120
860.725	22219
860.858	22082
860.99	22013
861.123	21903
861.256	21915
861.388	22128
861.521	22752
861.653	21895
861.786	21770
861.918	21785
862.05	21850
862.183	21884
862.315	21857
862.447	21934
862.58	21975
862.712	21656
862.844	21648
862.976	21857
863.108	21819
863.24	22055
863.372	21656
863.504	21717
863.636	21682
863.768	21759
863.9	21736
864.032	21629
864.164	21694
864.296	21762
864.428	21819
864.559	21789
864.691	21892
864.823	21701
864.954	21770
865.086	21679
865.217	21637
865.349	21610
865.48	21557
865.612	21614
865.743	21770
865.875	21618
866.006	21580
866.137	21564
866.269	21610
866.4	21515
866.531	21583
866.662	21462
866.793	21511
866.924	21492
867.055	21614
867.186	21561
867.317	21526
867.448	21439
867.579	21481
867.71	21416
867.841	21370
867.972	21492
868.103	21500
868.233	21641
868.364	21523
868.495	21580
868.625	21660
868.756	21816
868.886	21701
869.017	21812
869.147	21785
869.278	21835
869.408	21800
869.539	21766
869.669	21789
869.799	21915
869.929	21861
870.06	21884
870.19	21998
870.32	22025
870.45	22139
870.58	22181
870.71	22158
870.84	22196
870.97	22154
871.1	22166
871.23	22322
871.36	22474
871.489	22162
871.619	22166
871.749	22405
871.879	22394
872.008	22508
872.138	22329
872.267	22379
872.397	22147
872.526	22211
872.656	22162
872.785	22238
872.915	22462
873.044	22474
873.173	22329
873.303	22409
873.432	22421
873.561	22512
873.69	22417
873.819	22272
873.948	22394
874.077	22291
874.206	22318
874.335	22131
874.464	22367
874.593	22512
874.722	22637
874.851	22618
874.979	22599
875.108	22656
875.237	22409
875.365	22565
875.494	22538
875.623	22592
875.751	22573
875.88	22580
876.008	22615
876.136	22828
876.265	22881
876.393	22991
876.521	23025
876.65	22976
876.778	22946
876.906	22984
877.034	22934
877.162	22972
877.29	22835
877.418	22858
877.546	22995
877.674	22976
877.802	22805
877.93	22987
878.058	22755
878.185	22793
878.313	22847
878.441	22869
878.568	22782
878.696	22885
878.824	22915
878.951	22949
879.079	23018
879.206	23204
879.333	22991
879.461	22991
879.588	23044
879.715	23006
879.842	23212
879.97	22904
880.097	22812
880.224	22774
880.351	22793
880.478	22767
880.605	22584
880.732	22706
880.859	22908
880.986	22660
881.112	22843
881.239	22721
881.366	22466
881.493	22421
881.619	22329
881.746	22405
881.872	22242
881.999	22200
882.125	22276
882.252	22303
882.378	22341
882.505	22409
882.631	22147
882.757	22124
882.883	22226
883.01	22040
883.136	21949
883.262	21865
883.388	21880
883.514	22166
883.64	22059
883.766	21968
883.892	21793
884.018	21747
884.143	21945
884.269	21888
884.395	21720
884.52	21488
884.646	21603
884.772	21698
884.897	21572
885.023	21671
885.148	21682
885.274	21789
885.399	21816
885.524	21523
885.65	21652
885.775	21641
885.9	21454
886.025	21728
886.15	21682
886.275	21587
886.4	21523
886.525	21606
886.65	21542
886.775	21622
886.9	21838
887.025	21785
887.149	21545
887.274	21306
887.399	21435
887.523	21424
887.648	21420
887.773	21287
887.897	21530
888.021	21504
888.146	21268
888.27	21462
888.395	21538
888.519	21450
888.643	21389
888.767	21481
888.891	21336
889.015	21241
889.139	21370
889.263	21192
889.387	21363
889.511	21359
889.635	21351
889.759	21275
889.883	21112
890.006	21154
890.13	21264
890.254	21150
890.377	21150
890.501	20979
890.624	20937
890.748	21005
890.871	20724
890.995	20758
891.118	20678
891.241	20708
891.364	20765
891.488	20842
891.611	20773
891.734	20758
891.857	20788
891.98	20838
892.103	20800
892.226	20815
892.349	20705
892.471	20526
892.594	20731
892.717	20621
892.839	20682
892.962	20583
893.085	20781
893.207	20583
893.33	20571
893.452	20663
893.575	20739
893.697	20648
893.819	20800
893.941	20891
894.064	20769
894.186	20590
894.308	20556
894.43	20655
894.552	20758
894.674	20720
894.796	20609
894.918	20469
895.04	20568
895.161	20655
895.283	20659
895.405	20537
895.526	20587
895.648	20590
895.769	20781
895.891	20724
896.012	20674
896.134	20777
896.255	20769
896.376	20693
896.498	20655
896.619	20720
896.74	20621
896.861	20632
896.982	21009
897.103	20979
897.224	20823
897.345	20834
897.466	20906
897.587	20834
897.708	20941
897.828	20811
897.949	20807
898.07	20720
898.19	20754
898.311	20777
898.431	20682
898.552	20819
898.672	20910
898.792	20918
898.913	20872
899.033	20792
899.153	20636
899.273	20590
899.393	20587
899.513	20655
899.633	20594
899.753	20552
899.873	20568
899.993	20609
900.113	20537
900.232	20617
900.352	20514
900.472	20408
900.591	20454
900.711	20427
900.83	20256
900.95	20438
901.069	20438
901.189	20328
901.308	20130
901.427	19841
901.546	19906
901.665	19841
901.784	19917
901.904	19757
902.023	19811
902.141	19403
902.26	19445
902.379	19597
902.498	19449
902.617	19441
902.735	19460
902.854	19468
902.973	19308
903.091	19084
903.21	19103
903.328	19069
903.446	18989
903.565	18901
903.683	18894
903.801	18939
903.919	18871
904.038	18776
904.156	18559
904.274	18779
904.392	18616
904.51	18650
904.627	18582
904.745	18738
904.863	18696
904.981	18429
905.098	18418
905.216	18251
905.334	18372
905.451	18327
905.569	18319
905.686	18369
905.803	18399
905.921	18220
906.038	18224
906.155	18102
906.272	17969
906.389	18015
906.506	17958
906.623	17939
906.74	17802
906.857	17623
906.974	17710
907.091	17889
907.208	18049
907.324	17908
907.441	17726
907.557	17535
907.674	17676
907.79	17524
907.907	17554
908.023	17562
908.139	17589
908.256	17566
908.372	17436
908.488	17478
908.604	17311
908.72	17265
908.836	17326
908.952	17162
909.068	17341
909.184	17258
909.3	17326
909.415	17326
909.531	17223
909.647	17056
909.762	17014
909.878	17079
909.993	16930
910.108	17014
910.224	16972
910.339	17025
910.454	16828
910.57	16854
910.685	16774
910.8	16984
910.915	16965
911.03	16733
911.145	16630
911.259	16561
911.374	16554
911.489	16474
911.604	16462
911.718	16329
911.833	16314
911.947	16196
912.062	16044
912.176	16333
912.291	16249
912.405	16333
912.519	16447
912.633	16531
912.748	16287
912.862	16325
912.976	16207
913.09	15945
913.204	16105
913.318	16169
913.431	16105
913.545	16204
913.659	16226
913.772	16025
913.886	15960
914	15873
914.113	15987
914.226	16048
914.34	15941
914.453	15842
914.566	16044
914.68	15789
914.793	15827
914.906	15584
915.019	15561
915.132	15504
915.245	15389
915.358	15481
915.47	15629
915.583	15534
915.696	15511
915.809	15698
915.921	15686
916.034	15431
916.146	15485
916.259	15431
916.371	15401
916.483	15454
916.595	15351
916.708	15416
916.82	15405
916.932	15367
917.044	15275
917.156	15279
917.268	15233
917.38	15214
917.491	15275
917.603	15192
917.715	15214
917.826	15195
917.938	15074
918.049	14975
918.161	15150
918.272	15176
918.384	15218
918.495	15074
918.606	14925
918.717	14868
918.828	14921
918.939	14956
919.05	14868
919.161	14807
919.272	14762
919.383	14788
919.494	14857
919.604	15100
919.715	14921
919.826	14880
919.936	14872
920.047	15077
920.157	14788
920.267	15051
920.378	14933
920.488	14929
920.598	15043
920.708	15108
920.818	15077
920.928	14963
921.038	15165
921.148	15089
921.258	14895
921.368	14762
921.477	14629
921.587	14659
921.697	14457
921.806	14640
921.916	14476
922.025	14332
922.134	14240
922.244	14214
922.353	14336
922.462	14157
922.571	14046
922.68	13928
922.789	13898
922.898	13989
923.007	13906
923.116	13921
923.224	13864
923.333	13864
923.442	13765
923.55	13791
923.659	13776
923.767	13776
923.876	13662
923.984	13609
924.092	13533
924.201	13666
924.309	13643
924.417	13658
924.525	13529
924.633	13677
924.741	14355
924.849	13464
924.956	13601
925.064	13335
925.172	13198
925.279	13251
925.387	13343
925.494	13270
925.602	13426
925.709	13316
925.816	13187
925.924	13221
926.031	13297
926.138	13240
926.245	13316
926.352	13137
926.459	13403
926.566	13331
926.673	13164
926.779	13023
926.886	13072
926.993	12928
927.099	12829
927.206	12787
927.312	12772
927.419	12913
927.525	12909
927.631	12886
927.737	12817
927.843	12681
927.95	12494
928.056	12715
928.162	12703
928.267	12753
928.373	13266
928.479	12760
928.585	12509
928.69	12604
928.796	12627
928.901	12464
929.007	12418
929.112	12429
929.218	12429
929.323	12410
929.428	12399
929.533	12486
929.638	12395
929.743	12365
929.848	12414
929.953	12384
930.058	12182
930.163	12053
930.267	12117
930.372	12175
930.477	12114
930.581	12239
930.685	12106
930.79	11954
930.894	12011
930.998	11901
931.103	12110
931.207	11661
931.311	11630
931.415	11532
931.519	11387
931.623	11330
