Data from test_V78500241_2052.txt Node
Date: Fri Mar 25 15:24:08 CST 2022
User: usil
Spectrometer: V785-0024
Trigger mode: 0
Integration Time (sec): 4.000000E-1
Scans to average: 1
Nonlinearity correction enabled: false
Boxcar width: 0
Storing dark spectrum: false
XAxis mode: Wavelengths
Number of Pixels in Spectrum: 1024
>>>>>Begin Spectral Data<<<<<
801.071	27686
801.214	27580
801.356	27450
801.499	27275
801.641	27214
801.783	27135
801.926	27302
802.068	27226
802.211	27222
802.353	27100
802.496	26948
802.638	26937
802.78	26727
802.923	26899
803.065	26773
803.208	26670
803.35	26864
803.492	26979
803.635	27032
803.777	27043
803.919	26975
804.061	27245
804.204	27028
804.346	26956
804.488	27104
804.63	27077
804.773	27081
804.915	26994
805.057	27264
805.199	26960
805.341	27119
805.483	27214
805.626	27211
805.768	27108
805.91	27062
806.052	27218
806.194	27135
806.336	27355
806.478	27192
806.62	27275
806.762	27370
806.904	27306
807.046	27656
807.188	27519
807.33	27644
807.472	27637
807.614	27473
807.756	27443
807.898	27443
808.04	27458
808.182	27427
808.324	27427
808.465	27496
808.607	27572
808.749	27701
808.891	27911
809.033	27880
809.174	27755
809.316	27759
809.458	28021
809.6	27660
809.741	27816
809.883	27926
810.025	28055
810.166	28177
810.308	27937
810.45	28013
810.591	27998
810.733	27694
810.875	27903
811.016	27724
811.158	27709
811.299	27850
811.441	27865
811.582	27903
811.724	27671
811.865	27778
812.007	27762
812.148	27793
812.29	27797
812.431	27972
812.573	28135
812.714	28192
812.855	28287
812.997	28280
813.138	28371
813.279	28280
813.421	28265
813.562	28200
813.703	28097
813.845	28074
813.986	27652
814.127	27515
814.268	27515
814.41	27397
814.551	27397
814.692	27583
814.833	27477
814.974	27389
815.115	27614
815.256	27283
815.397	27340
815.539	27367
815.68	27279
815.821	27116
815.962	27245
816.103	27214
816.244	27188
816.385	26902
816.526	26994
816.666	26823
816.807	26701
816.948	26823
817.089	26857
817.23	26845
817.371	26724
817.512	26773
817.653	26739
817.793	26682
817.934	26724
818.075	26640
818.216	26674
818.356	26640
818.497	26648
818.638	26476
818.778	26465
818.919	26507
819.06	26606
819.2	26648
819.341	26781
819.481	26731
819.622	26906
819.762	27043
819.903	26944
820.043	27039
820.184	26785
820.324	26781
820.465	26914
820.605	26781
820.746	26785
820.886	26594
821.026	26640
821.167	26781
821.307	26815
821.447	26758
821.588	26541
821.728	26461
821.868	26305
822.008	26214
822.149	26180
822.289	26084
822.429	26054
822.569	25849
822.709	25879
822.849	25852
822.99	25776
823.13	25662
823.27	25674
823.41	25616
823.55	25468
823.69	25430
823.83	25635
823.97	25377
824.11	25415
824.25	25255
824.389	25346
824.529	25422
824.669	25244
824.809	25533
824.949	25339
825.089	25244
825.228	25343
825.368	25183
825.508	25171
825.648	25190
825.787	25247
825.927	25164
826.067	25141
826.206	25103
826.346	25225
826.485	25343
826.625	25304
826.765	25335
826.904	25221
827.044	25069
827.183	24951
827.323	24992
827.462	24837
827.601	24996
827.741	24875
827.88	24954
828.02	24730
828.159	24992
828.298	24833
828.437	24863
828.577	24779
828.716	25004
828.855	24989
828.994	24585
829.134	24639
829.273	24726
829.412	24612
829.551	24601
829.69	24696
829.829	24536
829.968	24661
830.107	24578
830.246	24612
830.385	24486
830.524	24536
830.663	24475
830.802	24342
830.941	24281
831.08	24072
831.219	24273
831.357	24258
831.496	24498
831.635	24281
831.774	24136
831.913	24053
832.051	23950
832.19	23927
832.329	23897
832.467	23954
832.606	23859
832.744	23828
832.883	23882
833.022	23916
833.16	23996
833.299	23988
833.437	23923
833.576	23999
833.714	24064
833.852	23965
833.991	23980
834.129	23958
834.267	23965
834.406	23961
834.544	23958
834.682	23794
834.821	23954
834.959	24190
835.097	23809
835.235	23828
835.373	23916
835.511	23863
835.65	23802
835.788	23855
835.926	23646
836.064	23680
836.202	23589
836.34	23843
836.478	23942
836.615	23847
836.753	23813
836.891	23920
837.029	23798
837.167	23756
837.305	23672
837.443	23585
837.58	23657
837.718	23687
837.856	23668
837.993	23528
838.131	23627
838.269	23417
838.406	23509
838.544	23516
838.681	23376
838.819	23128
838.956	22987
839.094	23124
839.231	23090
839.369	23349
839.506	23646
839.643	23429
839.781	23155
839.918	23010
840.055	23151
840.193	23041
840.33	23056
840.467	23003
840.604	23052
840.742	23242
840.879	22805
841.016	22976
841.153	22908
841.29	23098
841.427	23041
841.564	22999
841.701	23098
841.838	23033
841.975	22869
842.112	22790
842.249	22839
842.385	22752
842.522	22987
842.659	22786
842.796	22744
842.933	22694
843.069	22759
843.206	22683
843.343	22858
843.479	22717
843.616	22820
843.752	22538
843.889	22691
844.025	22626
844.162	22497
844.298	22592
844.435	22470
844.571	22424
844.708	22637
844.844	22763
844.98	22752
845.117	22790
845.253	22508
845.389	22398
845.525	22394
845.661	22329
845.798	22405
845.934	22386
846.07	22219
846.206	22280
846.342	22459
846.478	22246
846.614	22128
846.75	21918
846.886	22013
847.022	22055
847.158	22143
847.294	21979
847.429	21949
847.565	21907
847.701	22238
847.837	21663
847.972	21629
848.108	21819
848.244	21838
848.379	21549
848.515	21641
848.65	21618
848.786	21519
848.921	21576
849.057	21705
849.192	21542
849.328	21629
849.463	21637
849.598	21553
849.734	21526
849.869	21488
850.004	21260
850.14	21386
850.275	21435
850.41	21329
850.545	21260
850.68	21256
850.815	21469
850.95	21317
851.085	21618
851.22	21538
851.355	21329
851.49	21310
851.625	21412
851.76	21272
851.895	21211
852.03	21230
852.165	21192
852.299	21367
852.434	21310
852.569	21336
852.703	21313
852.838	21515
852.973	21428
853.107	21473
853.242	21450
853.376	21176
853.511	21119
853.645	21135
853.78	21233
853.914	21245
854.048	21226
854.183	21135
854.317	21249
854.451	21405
854.585	21211
854.72	21211
854.854	21226
854.988	21028
855.122	21275
855.256	21100
855.39	21188
855.524	21077
855.658	21169
855.792	21233
855.926	21264
856.06	21218
856.194	21260
856.327	21074
856.461	21081
856.595	21089
856.729	21199
856.862	21332
856.996	21173
857.13	21226
857.263	21317
857.397	21241
857.53	21230
857.664	21275
857.797	21382
857.931	21241
858.064	21161
858.197	21252
858.331	21233
858.464	21100
858.597	21001
858.731	21096
858.864	21028
858.997	21199
859.13	21195
859.263	21108
859.396	21218
859.529	21119
859.662	21058
859.795	21119
859.928	21203
860.061	21291
860.194	21340
860.327	21351
860.46	21192
860.592	21355
860.725	21264
860.858	21211
860.99	21222
861.123	21039
861.256	21207
861.388	21157
861.521	21945
861.653	21001
861.786	20872
861.918	20982
862.05	20994
862.183	21081
862.315	21013
862.447	21100
862.58	21055
862.712	20880
862.844	20971
862.976	20967
863.108	20925
863.24	21268
863.372	20750
863.504	20815
863.636	20921
863.768	20914
863.9	20925
864.032	20823
864.164	20880
864.296	20921
864.428	21024
864.559	20975
864.691	21085
864.823	20975
864.954	20830
865.086	20910
865.217	20853
865.349	20708
865.48	20724
865.612	20765
865.743	20842
865.875	20826
866.006	20659
866.137	20819
866.269	20731
866.4	20815
866.531	20708
866.662	20716
866.793	20674
866.924	20697
867.055	20807
867.186	20785
867.317	20762
867.448	20629
867.579	20686
867.71	20655
867.841	20632
867.972	20773
868.103	20792
868.233	20815
868.364	20686
868.495	20868
868.625	20895
868.756	21001
868.886	20876
869.017	20921
869.147	21077
869.278	21089
869.408	20994
869.539	20979
869.669	20952
869.799	21032
869.929	21146
870.06	21211
870.19	21199
870.32	21306
870.45	21310
870.58	21283
870.71	21477
870.84	21431
870.97	21329
871.1	21351
871.23	21572
871.36	21568
871.489	21481
871.619	21439
871.749	21599
871.879	21606
872.008	21557
872.138	21595
872.267	21591
872.397	21431
872.526	21279
872.656	21405
872.785	21557
872.915	21568
873.044	21625
873.173	21580
873.303	21629
873.432	21603
873.561	21568
873.69	21511
873.819	21545
873.948	21572
874.077	21587
874.206	21428
874.335	21538
874.464	21576
874.593	21857
874.722	21766
874.851	21850
874.979	21747
875.108	21781
875.237	21667
875.365	21694
875.494	21751
875.623	22010
875.751	21869
875.88	21934
876.008	21812
876.136	22059
876.265	22150
876.393	22280
876.521	22295
876.65	22337
876.778	22185
876.906	22116
877.034	22013
877.162	22154
877.29	22067
877.418	22128
877.546	22166
877.674	22090
877.802	22051
877.93	22074
878.058	21934
878.185	22067
878.313	22082
878.441	22044
878.568	21930
878.696	22219
878.824	22246
878.951	22211
879.079	22379
879.206	22542
879.333	22382
879.461	22147
879.588	22116
879.715	22234
879.842	22363
879.97	22226
880.097	22048
880.224	21903
880.351	22002
880.478	22029
880.605	21968
880.732	22044
880.859	22226
880.986	21987
881.112	21934
881.239	21808
881.366	21766
881.493	21614
881.619	21439
881.746	21644
881.872	21561
881.999	21587
882.125	21469
882.252	21606
882.378	21603
882.505	21686
882.631	21458
882.757	21370
882.883	21332
883.01	21336
883.136	21180
883.262	21119
883.388	21119
883.514	21313
883.64	21378
883.766	21207
883.892	21085
884.018	21074
884.143	21127
884.269	21272
884.395	21070
884.52	20815
884.646	20902
884.772	20785
884.897	20735
885.023	20887
885.148	20967
885.274	21077
885.399	20998
885.524	20842
885.65	20921
885.775	20906
885.9	20929
886.025	20960
886.15	20906
886.275	20902
886.4	20758
886.525	20838
886.65	20826
886.775	20697
886.9	20921
887.025	20956
887.149	20815
887.274	20731
887.399	20708
887.523	20659
887.648	20499
887.773	20552
887.897	20735
888.021	20701
888.146	20651
888.27	20667
888.395	20739
888.519	20693
888.643	20648
888.767	20788
888.891	20568
889.015	20450
889.139	20480
889.263	20450
889.387	20537
889.511	20533
889.635	20556
889.759	20499
889.883	20518
890.006	20545
890.13	20583
890.254	20377
890.377	20457
890.501	20206
890.624	20187
890.748	20305
890.871	20134
890.995	20126
891.118	20020
891.241	20039
891.364	20058
891.488	20145
891.611	19951
891.734	19993
891.857	20111
891.98	20035
892.103	20145
892.226	20084
892.349	20012
892.471	19849
892.594	20012
892.717	20005
892.839	20012
892.962	20012
893.085	19986
893.207	20016
893.33	19734
893.452	19818
893.575	19989
893.697	19947
893.819	20062
893.941	20103
894.064	20039
894.186	19932
894.308	19940
894.43	20058
894.552	20073
894.674	20062
894.796	19830
894.918	19959
895.04	19978
895.161	20054
895.283	19970
895.405	19959
895.526	19974
895.648	19852
895.769	20073
895.891	19963
896.012	20168
896.134	20035
896.255	19955
896.376	19906
896.498	20024
896.619	19963
896.74	19989
896.861	20081
896.982	20157
897.103	20336
897.224	20256
897.345	20244
897.466	20092
897.587	20073
897.708	20229
897.828	20202
897.949	20145
898.07	19951
898.19	20069
898.311	20267
898.431	20100
898.552	20142
898.672	20149
898.792	20248
898.913	20168
899.033	20077
899.153	20077
899.273	19887
899.393	19852
899.513	19951
899.633	19849
899.753	19856
899.873	19807
899.993	20035
900.113	19845
900.232	19890
900.352	19822
900.472	19742
900.591	19670
900.711	19845
900.83	19658
900.95	19750
901.069	19887
901.189	19605
901.308	19289
901.427	19285
901.546	19460
901.665	19324
901.784	19259
901.904	19061
902.023	19110
902.141	18882
902.26	18795
902.379	18913
902.498	18783
902.617	18772
902.735	18837
902.854	18673
902.973	18749
903.091	18471
903.21	18521
903.328	18555
903.446	18422
903.565	18300
903.683	18281
903.801	18171
903.919	18251
904.038	18152
904.156	18026
904.274	18091
904.392	17973
904.51	17996
904.627	18068
904.745	18117
904.863	18091
904.981	17870
905.098	17710
905.216	17741
905.334	17756
905.451	17824
905.569	17741
905.686	17760
905.803	17699
905.921	17528
906.038	17581
906.155	17512
906.272	17512
906.389	17414
906.506	17265
906.623	17318
906.74	17216
906.857	17223
906.974	17159
907.091	17315
907.208	17368
907.324	17334
907.441	17109
907.557	17128
907.674	16953
907.79	16946
907.907	17041
908.023	16915
908.139	16946
908.256	16965
908.372	16904
908.488	16782
908.604	16740
908.72	16649
908.836	16752
908.952	16596
909.068	16634
909.184	16797
909.3	16694
909.415	16824
909.531	16565
909.647	16382
909.762	16455
909.878	16432
909.993	16478
910.108	16409
910.224	16363
910.339	16295
910.454	16246
910.57	16124
910.685	16120
910.8	16470
910.915	16379
911.03	16303
911.145	16093
911.259	15979
911.374	16051
911.489	15873
911.604	15804
911.718	15797
911.833	15747
911.947	15717
912.062	15667
912.176	15641
912.291	15648
912.405	15759
912.519	15937
912.633	15865
912.748	15747
912.862	15804
912.976	15576
913.09	15511
913.204	15538
913.318	15526
913.431	15523
913.545	15667
913.659	15591
913.772	15576
913.886	15351
914	15329
914.113	15439
914.226	15382
914.34	15351
914.453	15291
914.566	15344
914.68	15226
914.793	15195
914.906	15028
915.019	14982
915.132	14853
915.245	14880
915.358	14910
915.47	14979
915.583	15089
915.696	14956
915.809	15100
915.921	15119
916.034	14883
916.146	14883
916.259	14823
916.371	14994
916.483	14838
916.595	14853
916.708	14785
916.82	14754
916.932	14746
917.044	14693
917.156	14861
917.268	14598
917.38	14727
917.491	14621
917.603	14716
917.715	14762
917.826	14670
917.938	14530
918.049	14473
918.161	14526
918.272	14762
918.384	14765
918.495	14526
918.606	14415
918.717	14377
918.828	14431
918.939	14404
919.05	14396
919.161	14495
919.272	14092
919.383	14218
919.494	14431
919.604	14594
919.715	14412
919.826	14298
919.936	14324
920.047	14393
920.157	14377
920.267	14552
920.378	14366
920.488	14275
920.598	14552
920.708	14644
920.818	14480
920.928	14560
921.038	14560
921.148	14560
921.258	14362
921.368	14183
921.477	14062
921.587	14149
921.697	14035
921.806	14142
921.916	13902
922.025	13849
922.134	13761
922.244	13868
922.353	13727
922.462	13620
922.571	13677
922.68	13525
922.789	13339
922.898	13472
923.007	13343
923.116	13381
923.224	13381
923.333	13358
923.442	13312
923.55	13194
923.659	13293
923.767	13339
923.876	13145
923.984	13232
924.092	13114
924.201	13206
924.309	13107
924.417	13095
924.525	13129
924.633	13015
924.741	13761
924.849	12859
924.956	13023
925.064	12848
925.172	12791
925.279	12814
925.387	12825
925.494	12806
925.602	12901
925.709	12844
925.816	12711
925.924	12768
926.031	12867
926.138	12810
926.245	12840
926.352	12654
926.459	12711
926.566	12852
926.673	12764
926.779	12563
926.886	12544
926.993	12410
927.099	12399
927.206	12342
927.312	12395
927.419	12380
927.525	12384
927.631	12327
927.737	12292
927.843	12300
927.95	12095
928.056	12235
928.162	12232
928.267	12365
928.373	12844
928.479	12292
928.585	11988
928.69	12186
928.796	12110
928.901	12110
929.007	11942
929.112	12087
929.218	12098
929.323	12015
929.428	11939
929.533	12007
929.638	11866
929.743	11885
929.848	11958
929.953	11805
930.058	11790
930.163	11657
930.267	11714
930.372	11748
930.477	11573
930.581	11821
930.685	11672
930.79	11471
930.894	11509
930.998	11524
931.103	11566
931.207	11273
931.311	11181
931.415	11166
931.519	10938
931.623	10938
