Data from test_V78500241_1971.txt Node
Date: Fri Mar 25 15:23:34 CST 2022
User: usil
Spectrometer: V785-0024
Trigger mode: 0
Integration Time (sec): 4.000000E-1
Scans to average: 1
Nonlinearity correction enabled: false
Boxcar width: 0
Storing dark spectrum: false
XAxis mode: Wavelengths
Number of Pixels in Spectrum: 1024
>>>>>Begin Spectral Data<<<<<
801.071	27686
801.214	27660
801.356	27523
801.499	27466
801.641	27264
801.783	27462
801.926	27408
802.068	27405
802.211	27313
802.353	27294
802.496	27024
802.638	26895
802.78	26887
802.923	27070
803.065	26975
803.208	26800
803.35	26937
803.492	27127
803.635	27161
803.777	27127
803.919	27176
804.061	27302
804.204	27222
804.346	27184
804.488	27066
804.63	27233
804.773	27055
804.915	27188
805.057	27344
805.199	27127
805.341	27135
805.483	27412
805.626	27439
805.768	27161
805.91	27298
806.052	27405
806.194	27260
806.336	27389
806.478	27306
806.62	27340
806.762	27485
806.904	27538
807.046	27728
807.188	27694
807.33	27694
807.472	27743
807.614	27660
807.756	27728
807.898	27427
808.04	27443
808.182	27519
808.324	27500
808.465	27583
808.607	27846
808.749	27934
808.891	27838
809.033	28101
809.174	28082
809.316	27766
809.458	27884
809.6	27785
809.741	28010
809.883	28082
810.025	28226
810.166	28207
810.308	28093
810.45	28116
810.591	28082
810.733	27972
810.875	27850
811.016	27774
811.158	27892
811.299	27975
811.441	28036
811.582	28166
811.724	27975
811.865	27861
812.007	27827
812.148	27850
812.29	28109
812.431	28105
812.573	28249
812.714	28409
812.855	28299
812.997	28379
813.138	28645
813.279	28470
813.421	28527
813.562	28497
813.703	28207
813.845	28116
813.986	27945
814.127	27819
814.268	27545
814.41	27717
814.551	27515
814.692	27629
814.833	27416
814.974	27542
815.115	27633
815.256	27485
815.397	27526
815.539	27507
815.68	27424
815.821	27211
815.962	27477
816.103	27416
816.244	27336
816.385	27268
816.526	27070
816.666	26990
816.807	26861
816.948	27169
817.089	26982
817.23	26967
817.371	26979
817.512	26967
817.653	26864
817.793	26998
817.934	26857
818.075	26971
818.216	26876
818.356	26800
818.497	26785
818.638	26636
818.778	26651
818.919	26606
819.06	26754
819.2	26693
819.341	26967
819.481	26773
819.622	27070
819.762	27237
819.903	27176
820.043	27066
820.184	27195
820.324	26975
820.465	27058
820.605	26967
820.746	27043
820.886	26857
821.026	26952
821.167	26883
821.307	27081
821.447	26940
821.588	26830
821.728	26613
821.868	26693
822.008	26396
822.149	26419
822.289	26278
822.429	26126
822.569	26088
822.709	26134
822.849	25826
822.99	25799
823.13	25849
823.27	25841
823.41	25651
823.55	25662
823.69	25662
823.83	25761
823.97	25628
824.11	25563
824.25	25457
824.389	25552
824.529	25571
824.669	25460
824.809	25693
824.949	25556
825.089	25491
825.228	25681
825.368	25331
825.508	25403
825.648	25358
825.787	25487
825.927	25491
826.067	25354
826.206	25434
826.346	25483
826.485	25400
826.625	25434
826.765	25476
826.904	25510
827.044	25236
827.183	25198
827.323	25145
827.462	25168
827.601	25015
827.741	25084
827.88	25091
828.02	25015
828.159	24996
828.298	25023
828.437	25065
828.577	25107
828.716	25175
828.855	24996
828.994	24741
829.134	24760
829.273	24913
829.412	24878
829.551	24749
829.69	24825
829.829	24943
829.968	24947
830.107	24848
830.246	24894
830.385	24859
830.524	24684
830.663	24707
830.802	24437
830.941	24456
831.08	24357
831.219	24536
831.357	24528
831.496	24574
831.635	24372
831.774	24327
831.913	24308
832.051	24163
832.19	24232
832.329	24213
832.467	24003
832.606	24068
832.744	23973
832.883	24095
833.022	24087
833.16	24057
833.299	24114
833.437	24079
833.576	24247
833.714	24136
833.852	24216
833.991	24194
834.129	24224
834.267	24315
834.406	24186
834.544	24209
834.682	24155
834.821	24197
834.959	24251
835.097	24232
835.235	24190
835.373	24190
835.511	24041
835.65	24152
835.788	24038
835.926	24018
836.064	23665
836.202	23965
836.34	24045
836.478	24213
836.615	24038
836.753	23992
836.891	24038
837.029	23980
837.167	23954
837.305	23923
837.443	23950
837.58	23885
837.718	23984
837.856	23783
837.993	23752
838.131	23851
838.269	23699
838.406	23760
838.544	23687
838.681	23436
838.819	23318
838.956	23303
839.094	23406
839.231	23440
839.369	23551
839.506	23672
839.643	23611
839.781	23368
839.918	23311
840.055	23284
840.193	23334
840.33	23162
840.467	23288
840.604	23288
840.742	23562
840.879	23071
841.016	23292
841.153	23052
841.29	23307
841.427	23121
841.564	23322
841.701	23235
841.838	23231
841.975	23094
842.112	23090
842.249	23048
842.385	22923
842.522	23162
842.659	23029
842.796	22946
842.933	23014
843.069	23010
843.206	22995
843.343	23052
843.479	23033
843.616	22938
843.752	22763
843.889	22896
844.025	22889
844.162	22733
844.298	22999
844.435	22626
844.571	22748
844.708	22919
844.844	22946
844.98	22900
845.117	22923
845.253	22729
845.389	22519
845.525	22580
845.661	22649
845.798	22538
845.934	22592
846.07	22527
846.206	22497
846.342	22603
846.478	22561
846.614	22436
846.75	22246
846.886	22207
847.022	22367
847.158	22086
847.294	22242
847.429	22295
847.565	22177
847.701	22470
847.837	22006
847.972	21998
848.108	22036
848.244	22002
848.379	21857
848.515	21842
848.65	21903
848.786	21690
848.921	21895
849.057	21918
849.192	21873
849.328	21861
849.463	21819
849.598	21762
849.734	21717
849.869	21762
850.004	21690
850.14	21690
850.275	21739
850.41	21625
850.545	21549
850.68	21496
850.815	21561
850.95	21698
851.085	21797
851.22	21694
851.355	21644
851.49	21622
851.625	21572
851.76	21519
851.895	21576
852.03	21416
852.165	21606
852.299	21603
852.434	21660
852.569	21523
852.703	21397
852.838	21603
852.973	21637
853.107	21686
853.242	21473
853.376	21485
853.511	21207
853.645	21249
853.78	21564
853.914	21507
854.048	21370
854.183	21374
854.317	21401
854.451	21553
854.585	21428
854.72	21367
854.854	21557
854.988	21382
855.122	21310
855.256	21473
855.39	21412
855.524	21450
855.658	21401
855.792	21443
855.926	21583
856.06	21450
856.194	21462
856.327	21283
856.461	21348
856.595	21428
856.729	21389
856.862	21622
856.996	21473
857.13	21439
857.263	21507
857.397	21614
857.53	21359
857.664	21481
857.797	21401
857.931	21515
858.064	21469
858.197	21469
858.331	21450
858.464	21241
858.597	21275
858.731	21283
858.864	21374
858.997	21447
859.13	21374
859.263	21454
859.396	21629
859.529	21416
859.662	21317
859.795	21283
859.928	21294
860.061	21572
860.194	21637
860.327	21439
860.46	21530
860.592	21553
860.725	21435
860.858	21587
860.99	21412
861.123	21370
861.256	21488
861.388	21405
861.521	22067
861.653	21256
861.786	21332
861.918	21207
862.05	21291
862.183	21340
862.315	21306
862.447	21310
862.58	21355
862.712	21195
862.844	21058
862.976	21211
863.108	21195
863.24	21641
863.372	20971
863.504	21161
863.636	21062
863.768	21169
863.9	21123
864.032	21005
864.164	21112
864.296	21237
864.428	21214
864.559	21268
864.691	21237
864.823	21173
864.954	21169
865.086	21165
865.217	21062
865.349	20887
865.48	21062
865.612	20967
865.743	21169
865.875	20963
866.006	20998
866.137	20990
866.269	20990
866.4	20929
866.531	20971
866.662	20845
866.793	20998
866.924	20929
867.055	21020
867.186	21001
867.317	21058
867.448	20800
867.579	20952
867.71	20929
867.841	20754
867.972	20914
868.103	20868
868.233	21001
868.364	20937
868.495	21032
868.625	21028
868.756	21355
868.886	21146
869.017	21119
869.147	21405
869.278	21302
869.408	21146
869.539	21207
869.669	21256
869.799	21256
869.929	21302
870.06	21260
870.19	21523
870.32	21348
870.45	21553
870.58	21564
870.71	21717
870.84	21652
870.97	21568
871.1	21568
871.23	21701
871.36	21629
871.489	21747
871.619	21679
871.749	21778
871.879	21766
872.008	21983
872.138	21816
872.267	21766
872.397	21701
872.526	21656
872.656	21580
872.785	21679
872.915	21694
873.044	21854
873.173	21903
873.303	21819
873.432	21831
873.561	21911
873.69	21819
873.819	21781
873.948	21819
874.077	21774
874.206	21739
874.335	21808
874.464	21953
874.593	22200
874.722	21983
874.851	21968
874.979	22006
875.108	22166
875.237	21930
875.365	21964
875.494	21968
875.623	21953
875.751	22010
875.88	21953
876.008	22109
876.136	22173
876.265	22443
876.393	22611
876.521	22504
876.65	22607
876.778	22402
876.906	22493
877.034	22398
877.162	22341
877.29	22363
877.418	22432
877.546	22363
877.674	22382
877.802	22413
877.93	22341
878.058	22382
878.185	22265
878.313	22382
878.441	22329
878.568	22131
878.696	22204
878.824	22382
878.951	22440
879.079	22485
879.206	22588
879.333	22493
879.461	22504
879.588	22474
879.715	22512
879.842	22611
879.97	22485
880.097	22234
880.224	22192
880.351	22226
880.478	22276
880.605	22150
880.732	22219
880.859	22447
880.986	22295
881.112	22295
881.239	22116
881.366	22006
881.493	21774
881.619	21789
881.746	21816
881.872	21724
881.999	21793
882.125	21686
882.252	21819
882.378	21789
882.505	21975
882.631	21679
882.757	21519
882.883	21534
883.01	21526
883.136	21462
883.262	21283
883.388	21332
883.514	21504
883.64	21561
883.766	21363
883.892	21142
884.018	21203
884.143	21260
884.269	21515
884.395	21188
884.52	21123
884.646	21203
884.772	21157
884.897	21085
885.023	21062
885.148	21245
885.274	21226
885.399	21199
885.524	21062
885.65	21180
885.775	21192
885.9	21138
886.025	21161
886.15	21135
886.275	21062
886.4	21013
886.525	21089
886.65	20963
886.775	21013
886.9	21165
887.025	21317
887.149	21165
887.274	20982
887.399	20788
887.523	20921
887.648	20864
887.773	20750
887.897	20956
888.021	20971
888.146	20807
888.27	20902
888.395	20948
888.519	20933
888.643	20868
888.767	21051
888.891	20716
889.015	20720
889.139	20891
889.263	20655
889.387	20792
889.511	20918
889.635	20834
889.759	20621
889.883	20579
890.006	20693
890.13	20765
890.254	20587
890.377	20602
890.501	20415
890.624	20526
890.748	20499
890.871	20305
890.995	20164
891.118	20134
891.241	20218
891.364	20355
891.488	20301
891.611	20210
891.734	20267
891.857	20374
891.98	20305
892.103	20275
892.226	20183
892.349	20240
892.471	20001
892.594	20073
892.717	20161
892.839	20225
892.962	20138
893.085	20286
893.207	20214
893.33	20024
893.452	20062
893.575	20164
893.697	20149
893.819	20248
893.941	20305
894.064	20298
894.186	20077
894.308	20046
894.43	20187
894.552	20248
894.674	20161
894.796	20100
894.918	20077
895.04	20180
895.161	20134
895.283	20259
895.405	20214
895.526	20115
895.648	20259
895.769	20134
895.891	20176
896.012	20183
896.134	20214
896.255	20138
896.376	20050
896.498	20206
896.619	20161
896.74	20024
896.861	20145
896.982	20575
897.103	20579
897.224	20358
897.345	20461
897.466	20298
897.587	20404
897.708	20431
897.828	20450
897.949	20336
898.07	20111
898.19	20309
898.311	20396
898.431	20267
898.552	20336
898.672	20457
898.792	20446
898.913	20389
899.033	20282
899.153	20164
899.273	20062
899.393	20100
899.513	20237
899.633	19944
899.753	20172
899.873	19997
899.993	20164
900.113	20039
900.232	20005
900.352	19993
900.472	19894
900.591	19776
900.711	19913
900.83	19849
900.95	19944
901.069	19947
901.189	19708
901.308	19518
901.427	19464
901.546	19487
901.665	19594
901.784	19464
901.904	19362
902.023	19187
902.141	18928
902.26	18996
902.379	19042
902.498	18928
902.617	18996
902.735	18935
902.854	18897
902.973	18878
903.091	18612
903.21	18616
903.328	18631
903.446	18521
903.565	18479
903.683	18460
903.801	18285
903.919	18448
904.038	18410
904.156	18285
904.274	18369
904.392	18235
904.51	18167
904.627	18102
904.745	18163
904.863	18311
904.981	18072
905.098	17901
905.216	17923
905.334	17965
905.451	18007
905.569	17916
905.686	17961
905.803	17859
905.921	17710
906.038	17756
906.155	17672
906.272	17585
906.389	17566
906.506	17505
906.623	17429
906.74	17444
906.857	17261
906.974	17307
907.091	17406
907.208	17562
907.324	17387
907.441	17372
907.557	17200
907.674	17136
907.79	17128
907.907	17132
908.023	17147
908.139	17071
908.256	17067
908.372	17022
908.488	17048
908.604	16942
908.72	16820
908.836	16927
908.952	16892
909.068	16850
909.184	16942
909.3	16873
909.415	16843
909.531	16805
909.647	16538
909.762	16637
909.878	16607
909.993	16618
910.108	16565
910.224	16580
910.339	16645
910.454	16569
910.57	16371
910.685	16344
910.8	16554
910.915	16561
911.03	16386
911.145	16226
911.259	16147
911.374	16071
911.489	16010
911.604	16059
911.718	15907
911.833	15911
911.947	15831
912.062	15667
912.176	15827
912.291	15888
912.405	15819
912.519	16086
912.633	16097
912.748	16093
912.862	15915
912.976	15732
913.09	15614
913.204	15747
913.318	15713
913.431	15732
913.545	15850
913.659	15808
913.772	15686
913.886	15595
914	15622
914.113	15572
914.226	15663
914.34	15526
914.453	15420
914.566	15545
914.68	15397
914.793	15367
914.906	15165
915.019	15165
915.132	15150
915.245	15146
915.358	15211
915.47	15089
915.583	15188
915.696	15199
915.809	15233
915.921	15294
916.034	15100
916.146	15074
916.259	14948
916.371	15116
916.483	15062
916.595	14914
916.708	14952
916.82	14982
916.932	14845
917.044	15001
917.156	14906
917.268	14853
917.38	14876
917.491	14610
917.603	14686
917.715	14800
917.826	14800
917.938	14705
918.049	14670
918.161	14705
918.272	14830
918.384	14849
918.495	14762
918.606	14590
918.717	14518
918.828	14598
918.939	14541
919.05	14454
919.161	14495
919.272	14370
919.383	14404
919.494	14613
919.604	14788
919.715	14541
919.826	14381
919.936	14469
920.047	14473
920.157	14480
920.267	14701
920.378	14511
920.488	14419
920.598	14617
920.708	14819
920.818	14598
920.928	14571
921.038	14804
921.148	14712
921.258	14404
921.368	14328
921.477	14172
921.587	14180
921.697	14073
921.806	14183
921.916	14103
922.025	13925
922.134	13898
922.244	13811
922.353	13875
922.462	13704
922.571	13689
922.68	13559
922.789	13502
922.898	13559
923.007	13464
923.116	13529
923.224	13460
923.333	13453
923.442	13396
923.55	13304
923.659	13369
923.767	13358
923.876	13236
923.984	13358
924.092	13171
924.201	13316
924.309	13251
924.417	13217
924.525	13213
924.633	13122
924.741	13909
924.849	12981
924.956	13164
925.064	13080
925.172	12973
925.279	12916
925.387	13008
925.494	12981
925.602	12958
925.709	12970
925.816	12905
925.924	12837
926.031	12996
926.138	12783
926.245	12954
926.352	12894
926.459	12970
926.566	12890
926.673	12760
926.779	12791
926.886	12616
926.993	12547
927.099	12502
927.206	12559
927.312	12467
927.419	12559
927.525	12502
927.631	12494
927.737	12365
927.843	12380
927.95	12163
928.056	12270
928.162	12330
928.267	12418
928.373	12993
928.479	12384
928.585	12106
928.69	12182
928.796	12369
928.901	12232
929.007	12163
929.112	12220
929.218	12114
929.323	12041
929.428	12083
929.533	12273
929.638	12041
929.743	12019
929.848	12041
929.953	11992
930.058	11851
930.163	11672
930.267	11661
930.372	11897
930.477	11592
930.581	11954
930.685	11783
930.79	11600
930.894	11676
930.998	11615
931.103	11726
931.207	11414
931.311	11330
931.415	11303
931.519	11098
931.623	10938
