Data from test_V78500241_2563.txt Node
Date: Fri Mar 25 15:27:42 CST 2022
User: usil
Spectrometer: V785-0024
Trigger mode: 0
Integration Time (sec): 4.000000E-1
Scans to average: 1
Nonlinearity correction enabled: false
Boxcar width: 0
Storing dark spectrum: false
XAxis mode: Wavelengths
Number of Pixels in Spectrum: 1024
>>>>>Begin Spectral Data<<<<<
801.071	27355
801.214	27176
801.356	26921
801.499	26960
801.641	26899
801.783	26914
801.926	26819
802.068	26834
802.211	26708
802.353	26644
802.496	26571
802.638	26415
802.78	26469
802.923	26423
803.065	26339
803.208	26237
803.35	26465
803.492	26453
803.635	26636
803.777	26549
803.919	26708
804.061	26952
804.204	26785
804.346	26629
804.488	26522
804.63	26651
804.773	26537
804.915	26659
805.057	26549
805.199	26682
805.341	26705
805.483	26796
805.626	26838
805.768	26648
805.91	26720
806.052	26796
806.194	26670
806.336	26785
806.478	26708
806.62	26686
806.762	26773
806.904	26986
807.046	27214
807.188	27180
807.33	27230
807.472	27249
807.614	27131
807.756	27043
807.898	26940
808.04	26891
808.182	26967
808.324	27047
808.465	26994
808.607	27230
808.749	27310
808.891	27424
809.033	27637
809.174	27386
809.316	27321
809.458	27325
809.6	27306
809.741	27378
809.883	27416
810.025	27713
810.166	27625
810.308	27580
810.45	27523
810.591	27549
810.733	27439
810.875	27294
811.016	27131
811.158	27169
811.299	27374
811.441	27603
811.582	27542
811.724	27386
811.865	27241
812.007	27283
812.148	27272
812.29	27249
812.431	27420
812.573	27561
812.714	27751
812.855	27762
812.997	27759
813.138	27865
813.279	27857
813.421	27690
813.562	27724
813.703	27580
813.845	27500
813.986	27264
814.127	27081
814.268	26975
814.41	27013
814.551	26899
814.692	26914
814.833	26929
814.974	26788
815.115	27039
815.256	26967
815.397	26792
815.539	26705
815.68	26899
815.821	26788
815.962	26720
816.103	26667
816.244	26587
816.385	26545
816.526	26492
816.666	26377
816.807	26229
816.948	26305
817.089	26370
817.23	26237
817.371	26237
817.512	26248
817.653	26366
817.793	26199
817.934	26275
818.075	26286
818.216	26377
818.356	26107
818.497	26168
818.638	26020
818.778	25928
818.919	25936
819.06	26103
819.2	26218
819.341	26259
819.481	26305
819.622	26446
819.762	26644
819.903	26663
820.043	26434
820.184	26358
820.324	26393
820.465	26453
820.605	26256
820.746	26351
820.886	26088
821.026	26263
821.167	26374
821.307	26320
821.447	26183
821.588	26229
821.728	25898
821.868	25871
822.008	25791
822.149	25799
822.289	25700
822.429	25464
822.569	25400
822.709	25396
822.849	25236
822.99	25152
823.13	25194
823.27	25217
823.41	24951
823.55	25027
823.69	25061
823.83	25027
823.97	24985
824.11	24863
824.25	24935
824.389	24776
824.529	25012
824.669	24821
824.809	25019
824.949	24863
825.089	24973
825.228	24745
825.368	24692
825.508	24730
825.648	24798
825.787	24886
825.927	24700
826.067	24719
826.206	24749
826.346	24859
826.485	24711
826.625	24722
826.765	24821
826.904	24757
827.044	24532
827.183	24559
827.323	24372
827.462	24399
827.601	24471
827.741	24433
827.88	24437
828.02	24270
828.159	24372
828.298	24448
828.437	24559
828.577	24209
828.716	24532
828.855	24319
828.994	24258
829.134	24155
829.273	24239
829.412	24243
829.551	24057
829.69	24095
829.829	24140
829.968	24266
830.107	24239
830.246	24216
830.385	24057
830.524	24053
830.663	24022
830.802	23893
830.941	23813
831.08	23646
831.219	23836
831.357	23802
831.496	24011
831.635	23893
831.774	23691
831.913	23600
832.051	23421
832.19	23585
832.329	23547
832.467	23501
832.606	23493
832.744	23417
832.883	23440
833.022	23364
833.16	23528
833.299	23482
833.437	23421
833.576	23539
833.714	23474
833.852	23577
833.991	23566
834.129	23649
834.267	23619
834.406	23505
834.544	23512
834.682	23501
834.821	23425
834.959	23764
835.097	23471
835.235	23596
835.373	23657
835.511	23486
835.65	23505
835.788	23368
835.926	23379
836.064	23166
836.202	23212
836.34	23349
836.478	23471
836.615	23322
836.753	23429
836.891	23467
837.029	23417
837.167	23360
837.305	23349
837.443	23292
837.58	23022
837.718	23391
837.856	23296
837.993	23239
838.131	23239
838.269	23128
838.406	23189
838.544	23147
838.681	22934
838.819	22858
838.956	22706
839.094	22717
839.231	22854
839.369	22911
839.506	23143
839.643	22885
839.781	22767
839.918	22645
840.055	22725
840.193	22630
840.33	22573
840.467	22675
840.604	22713
840.742	22900
840.879	22660
841.016	22557
841.153	22504
841.29	22729
841.427	22664
841.564	22664
841.701	22630
841.838	22500
841.975	22478
842.112	22573
842.249	22637
842.385	22424
842.522	22630
842.659	22607
842.796	22447
842.933	22455
843.069	22303
843.206	22291
843.343	22379
843.479	22352
843.616	22382
843.752	22185
843.889	22109
844.025	22352
844.162	22124
844.298	22291
844.435	22162
844.571	22143
844.708	22112
844.844	22280
844.98	22352
845.117	22352
845.253	22185
845.389	22097
845.525	22116
845.661	22150
845.798	21930
845.934	22074
846.07	21941
846.206	21941
846.342	21926
846.478	21831
846.614	21793
846.75	21637
846.886	21656
847.022	21797
847.158	21625
847.294	21728
847.429	21641
847.565	21732
847.701	21994
847.837	21386
847.972	21485
848.108	21454
848.244	21496
848.379	21348
848.515	21233
848.65	21272
848.786	21279
848.921	21302
849.057	21458
849.192	21397
849.328	21367
849.463	21195
849.598	21218
849.734	21138
849.869	21127
850.004	21058
850.14	21157
850.275	20921
850.41	20960
850.545	20967
850.68	20998
850.815	21066
850.95	21089
851.085	21135
851.22	21062
851.355	21020
851.49	20921
851.625	20952
851.76	21047
851.895	20933
852.03	20925
852.165	21066
852.299	21119
852.434	20998
852.569	21112
852.703	21077
852.838	21089
852.973	21077
853.107	21119
853.242	20849
853.376	20864
853.511	20758
853.645	20853
853.78	20845
853.914	20811
854.048	20785
854.183	20811
854.317	20826
854.451	20979
854.585	20872
854.72	20902
854.854	20887
854.988	20773
855.122	20785
855.256	20724
855.39	20857
855.524	21013
855.658	20796
855.792	20845
855.926	20910
856.06	20876
856.194	20861
856.327	20796
856.461	20861
856.595	20693
856.729	20838
856.862	21028
856.996	20933
857.13	20941
857.263	20838
857.397	21001
857.53	20739
857.664	20933
857.797	20906
857.931	20952
858.064	20921
858.197	21077
858.331	20819
858.464	20815
858.597	20830
858.731	20872
858.864	20788
858.997	20807
859.13	20746
859.263	20895
859.396	20834
859.529	20754
859.662	20830
859.795	20777
859.928	20754
860.061	21013
860.194	20998
860.327	20902
860.46	20853
860.592	20979
860.725	21009
860.858	20899
860.99	20792
861.123	20731
861.256	20807
861.388	20902
861.521	21496
861.653	20769
861.786	20617
861.918	20590
862.05	20762
862.183	20716
862.315	20750
862.447	20811
862.58	20640
862.712	20503
862.844	20480
862.976	20807
863.108	20530
863.24	21070
863.372	20454
863.504	20575
863.636	20522
863.768	20552
863.9	20583
864.032	20541
864.164	20454
864.296	20552
864.428	20621
864.559	20644
864.691	20530
864.823	20533
864.954	20632
865.086	20674
865.217	20419
865.349	20309
865.48	20495
865.612	20503
865.743	20606
865.875	20480
866.006	20492
866.137	20484
866.269	20457
866.4	20438
866.531	20415
866.662	20248
866.793	20457
866.924	20358
867.055	20419
867.186	20358
867.317	20324
867.448	20343
867.579	20427
867.71	20301
867.841	20202
867.972	20450
868.103	20339
868.233	20473
868.364	20438
868.495	20488
868.625	20587
868.756	20648
868.886	20598
869.017	20617
869.147	20781
869.278	20872
869.408	20667
869.539	20762
869.669	20701
869.799	20686
869.929	20758
870.06	20853
870.19	21009
870.32	20925
870.45	21024
870.58	20986
870.71	21173
870.84	21093
870.97	21013
871.1	21146
871.23	21211
871.36	21264
871.489	21157
871.619	21222
871.749	21195
871.879	21230
872.008	21325
872.138	21363
872.267	21184
872.397	21085
872.526	21104
872.656	21043
872.785	20975
872.915	21203
873.044	21241
873.173	21283
873.303	21340
873.432	21325
873.561	21363
873.69	21192
873.819	21275
873.948	21329
874.077	21241
874.206	21279
874.335	21291
874.464	21443
874.593	21477
874.722	21507
874.851	21408
874.979	21401
875.108	21507
875.237	21504
875.365	21336
875.494	21553
875.623	21610
875.751	21481
875.88	21530
876.008	21648
876.136	21583
876.265	21785
876.393	22059
876.521	22002
876.65	21998
876.778	21800
876.906	21854
877.034	22029
877.162	21899
877.29	21854
877.418	21915
877.546	21895
877.674	21907
877.802	21884
877.93	21827
878.058	21869
878.185	21701
878.313	21854
878.441	21846
878.568	21701
878.696	21873
878.824	21953
878.951	21922
879.079	21983
879.206	22173
879.333	22010
879.461	21888
879.588	21975
879.715	21994
879.842	22029
879.97	21880
880.097	21549
880.224	21625
880.351	21690
880.478	21667
880.605	21709
880.732	21736
880.859	21865
880.986	21675
881.112	21701
881.239	21580
881.366	21443
881.493	21317
881.619	21089
881.746	21325
881.872	21230
881.999	21245
882.125	21176
882.252	21222
882.378	21233
882.505	21332
882.631	21070
882.757	21020
882.883	21070
883.01	21005
883.136	20918
883.262	20941
883.388	20967
883.514	20967
883.64	20902
883.766	20902
883.892	20807
884.018	20689
884.143	20956
884.269	20975
884.395	20617
884.52	20602
884.646	20625
884.772	20514
884.897	20457
885.023	20552
885.148	20667
885.274	20697
885.399	20727
885.524	20632
885.65	20564
885.775	20632
885.9	20541
886.025	20804
886.15	20708
886.275	20644
886.4	20564
886.525	20545
886.65	20511
886.775	20564
886.9	20663
887.025	20857
887.149	20526
887.274	20408
887.399	20400
887.523	20579
887.648	20355
887.773	20244
887.897	20423
888.021	20408
888.146	20488
888.27	20465
888.395	20446
888.519	20549
888.643	20461
888.767	20461
888.891	20301
889.015	20256
889.139	20218
889.263	20328
889.387	20206
889.511	20355
889.635	20336
889.759	20138
889.883	20069
890.006	20157
890.13	20202
890.254	20195
890.377	20145
890.501	20024
890.624	20145
890.748	20073
890.871	19837
890.995	19738
891.118	19791
891.241	19742
891.364	19666
891.488	19932
891.611	19799
891.734	19746
891.857	19753
891.98	19757
892.103	19772
892.226	19883
892.349	19761
892.471	19521
892.594	19662
892.717	19818
892.839	19727
892.962	19666
893.085	19742
893.207	19635
893.33	19586
893.452	19628
893.575	19696
893.697	19639
893.819	19715
893.941	19818
894.064	19849
894.186	19674
894.308	19544
894.43	19769
894.552	19868
894.674	19753
894.796	19590
894.918	19616
895.04	19540
895.161	19715
895.283	19753
895.405	19632
895.526	19723
895.648	19567
895.769	19635
895.891	19693
896.012	19769
896.134	19677
896.255	19780
896.376	19712
896.498	19708
896.619	19662
896.74	19643
896.861	19757
896.982	20062
897.103	20172
897.224	19932
897.345	19776
897.466	19841
897.587	19909
897.708	20062
897.828	19864
897.949	19936
898.07	19814
898.19	19826
898.311	19947
898.431	19917
898.552	19795
898.672	20054
898.792	19955
898.913	19928
899.033	19852
899.153	19723
899.273	19601
899.393	19727
899.513	19624
899.633	19708
899.753	19723
899.873	19670
899.993	19685
900.113	19533
900.232	19704
900.352	19537
900.472	19449
900.591	19358
900.711	19449
900.83	19468
900.95	19464
901.069	19499
901.189	19335
901.308	19259
901.427	19008
901.546	19042
901.665	19008
901.784	19091
901.904	18973
902.023	18772
902.141	18639
902.26	18597
902.379	18616
902.498	18631
902.617	18551
902.735	18635
902.854	18601
902.973	18616
903.091	18209
903.21	18152
903.328	18251
903.446	18182
903.565	18022
903.683	18129
903.801	17897
903.919	18015
904.038	17923
904.156	17821
904.274	17946
904.392	17817
904.51	17752
904.627	17813
904.745	17904
904.863	17920
904.981	17592
905.098	17478
905.216	17497
905.334	17425
905.451	17611
905.569	17570
905.686	17596
905.803	17463
905.921	17277
906.038	17376
906.155	17376
906.272	17246
906.389	17258
906.506	17079
906.623	17105
906.74	16957
906.857	16911
906.974	17006
907.091	17022
907.208	17109
907.324	17056
907.441	17037
907.557	16755
907.674	16771
907.79	16782
907.907	16778
908.023	16839
908.139	16812
908.256	16717
908.372	16725
908.488	16679
908.604	16622
908.72	16512
908.836	16527
908.952	16409
909.068	16569
909.184	16634
909.3	16405
909.415	16424
909.531	16451
909.647	16246
909.762	16284
909.878	16276
909.993	16215
910.108	16101
910.224	16135
910.339	16169
910.454	16067
910.57	16002
910.685	16002
910.8	16261
910.915	16249
911.03	16021
911.145	15793
911.259	15797
911.374	15911
911.489	15720
911.604	15637
911.718	15587
911.833	15576
911.947	15523
912.062	15511
912.176	15701
912.291	15736
912.405	15625
912.519	15842
912.633	15762
912.748	15610
912.862	15389
912.976	15481
913.09	15260
913.204	15302
913.318	15443
913.431	15523
913.545	15504
913.659	15523
913.772	15317
913.886	15298
914	15108
914.113	15222
914.226	15329
914.34	15287
914.453	15047
914.566	15230
914.68	15097
914.793	15097
914.906	14925
915.019	14746
915.132	14785
915.245	14746
915.358	14826
915.47	14864
915.583	14842
915.696	14857
915.809	14967
915.921	14918
916.034	14739
916.146	14781
916.259	14686
916.371	14773
916.483	14765
916.595	14705
916.708	14602
916.82	14629
916.932	14575
917.044	14651
917.156	14590
917.268	14617
917.38	14488
917.491	14427
917.603	14541
917.715	14598
917.826	14537
917.938	14461
918.049	14286
918.161	14396
918.272	14613
918.384	14594
918.495	14351
918.606	14290
918.717	14100
918.828	14221
918.939	14229
919.05	14145
919.161	14218
919.272	14016
919.383	14065
919.494	14252
919.604	14450
919.715	14328
919.826	14096
919.936	14130
920.047	14233
920.157	14256
920.267	14431
920.378	14240
920.488	14286
920.598	14362
920.708	14492
920.818	14332
920.928	14256
921.038	14495
921.148	14457
921.258	14134
921.368	14134
921.477	13982
921.587	13967
921.697	13807
921.806	13928
921.916	13822
922.025	13731
922.134	13605
922.244	13605
922.353	13609
922.462	13453
922.571	13445
922.68	13312
922.789	13270
922.898	13244
923.007	13202
923.116	13255
923.224	13278
923.333	13149
923.442	13164
923.55	13072
923.659	13095
923.767	13247
923.876	13050
923.984	13156
924.092	12996
924.201	13050
924.309	12985
924.417	12993
924.525	12894
924.633	12977
924.741	13852
924.849	12684
924.956	12939
925.064	12707
925.172	12654
925.279	12601
925.387	12627
925.494	12642
925.602	12787
925.709	12639
925.816	12623
925.924	12601
926.031	12707
926.138	12528
926.245	12665
926.352	12525
926.459	12707
926.566	12650
926.673	12536
926.779	12521
926.886	12426
926.993	12262
927.099	12327
927.206	12273
927.312	12319
927.419	12273
927.525	12232
927.631	12285
927.737	12136
927.843	12144
927.95	12034
928.056	12072
928.162	12079
928.267	12102
928.373	12563
928.479	12159
928.585	11843
928.69	11977
928.796	12041
928.901	11988
929.007	11798
929.112	11996
929.218	11893
929.323	11889
929.428	11775
929.533	11863
929.638	11722
929.743	11714
929.848	11824
929.953	11756
930.058	11707
930.163	11516
930.267	11570
930.372	11642
930.477	11463
930.581	11699
930.685	11558
930.79	11360
930.894	11425
930.998	11334
931.103	11543
931.207	11155
931.311	11064
931.415	10957
931.519	10774
931.623	10729
