Data from test_V78500241_3000.txt Node
Date: Fri Mar 25 15:30:44 CST 2022
User: usil
Spectrometer: V785-0024
Trigger mode: 0
Integration Time (sec): 4.000000E-1
Scans to average: 1
Nonlinearity correction enabled: false
Boxcar width: 0
Storing dark spectrum: false
XAxis mode: Wavelengths
Number of Pixels in Spectrum: 1024
>>>>>Begin Spectral Data<<<<<
801.071	27332
801.214	27294
801.356	26986
801.499	26982
801.641	26842
801.783	26804
801.926	26762
802.068	26804
802.211	26781
802.353	26754
802.496	26594
802.638	26522
802.78	26503
802.923	26400
803.065	26332
803.208	26328
803.35	26488
803.492	26541
803.635	26613
803.777	26621
803.919	26625
804.061	26960
804.204	26655
804.346	26514
804.488	26503
804.63	26571
804.773	26594
804.915	26758
805.057	26765
805.199	26564
805.341	26667
805.483	26853
805.626	26765
805.768	26568
805.91	26617
806.052	26663
806.194	26785
806.336	26921
806.478	26727
806.62	26769
806.762	26815
806.904	26975
807.046	27386
807.188	27138
807.33	27233
807.472	27283
807.614	27039
807.756	27077
807.898	27058
808.04	26845
808.182	26975
808.324	26902
808.465	27203
808.607	27226
808.749	27291
808.891	27424
809.033	27515
809.174	27382
809.316	27564
809.458	27401
809.6	27378
809.741	27325
809.883	27420
810.025	27530
810.166	27713
810.308	27557
810.45	27534
810.591	27504
810.733	27408
810.875	27264
811.016	27192
811.158	27313
811.299	27587
811.441	27633
811.582	27629
811.724	27313
811.865	27283
812.007	27416
812.148	27485
812.29	27427
812.431	27515
812.573	27660
812.714	27755
812.855	27804
812.997	28021
813.138	28029
813.279	28055
813.421	27831
813.562	27778
813.703	27679
813.845	27507
813.986	27233
814.127	27070
814.268	26963
814.41	27100
814.551	26872
814.692	27066
814.833	26986
814.974	26986
815.115	27036
815.256	26716
815.397	26944
815.539	26940
815.68	26739
815.821	26689
815.962	26750
816.103	26777
816.244	26716
816.385	26701
816.526	26476
816.666	26400
816.807	26214
816.948	26225
817.089	26412
817.23	26317
817.371	26400
817.512	26199
817.653	26252
817.793	26172
817.934	26278
818.075	26381
818.216	26362
818.356	26294
818.497	26157
818.638	25944
818.778	25925
818.919	26012
819.06	26027
819.2	26130
819.341	26214
819.481	26324
819.622	26358
819.762	26568
819.903	26476
820.043	26347
820.184	26484
820.324	26412
820.465	26476
820.605	26362
820.746	26381
820.886	26172
821.026	26252
821.167	26218
821.307	26244
821.447	26256
821.588	26271
821.728	26103
821.868	25868
822.008	25769
822.149	25696
822.289	25795
822.429	25472
822.569	25430
822.709	25392
822.849	25236
822.99	25152
823.13	25236
823.27	25240
823.41	25072
823.55	24992
823.69	25206
823.83	25145
823.97	24989
824.11	24806
824.25	24894
824.389	24833
824.529	24947
824.669	24859
824.809	24920
824.949	25038
825.089	25004
825.228	24837
825.368	24642
825.508	24601
825.648	24722
825.787	24840
825.927	24719
826.067	24825
826.206	24620
826.346	24802
826.485	24677
826.625	24700
826.765	24867
826.904	24715
827.044	24414
827.183	24578
827.323	24456
827.462	24540
827.601	24486
827.741	24414
827.88	24433
828.02	24194
828.159	24292
828.298	24452
828.437	24490
828.577	24448
828.716	24585
828.855	24410
828.994	23999
829.134	24083
829.273	24121
829.412	24209
829.551	24102
829.69	24068
829.829	24106
829.968	24121
830.107	24262
830.246	24072
830.385	24041
830.524	24018
830.663	23935
830.802	23798
830.941	23714
831.08	23699
831.219	23885
831.357	23821
831.496	23996
831.635	23764
831.774	23630
831.913	23501
832.051	23531
832.19	23440
832.329	23600
832.467	23334
832.606	23311
832.744	23387
832.883	23467
833.022	23307
833.16	23425
833.299	23376
833.437	23448
833.576	23368
833.714	23516
833.852	23615
833.991	23417
834.129	23585
834.267	23509
834.406	23493
834.544	23505
834.682	23482
834.821	23467
834.959	23623
835.097	23478
835.235	23524
835.373	23425
835.511	23387
835.65	23239
835.788	23337
835.926	23181
836.064	23140
836.202	23132
836.34	23356
836.478	23303
836.615	23315
836.753	23185
836.891	23273
837.029	23368
837.167	23231
837.305	23204
837.443	23250
837.58	23174
837.718	23128
837.856	23079
837.993	23041
838.131	23075
838.269	23041
838.406	22930
838.544	22953
838.681	22835
838.819	22752
838.956	22763
839.094	22557
839.231	22561
839.369	22839
839.506	22980
839.643	22809
839.781	22542
839.918	22546
840.055	22736
840.193	22713
840.33	22474
840.467	22516
840.604	22596
840.742	22850
840.879	22382
841.016	22542
841.153	22489
841.29	22645
841.427	22519
841.564	22588
841.701	22432
841.838	22542
841.975	22398
842.112	22504
842.249	22466
842.385	22253
842.522	22599
842.659	22371
842.796	22322
842.933	22306
843.069	22230
843.206	22295
843.343	22360
843.479	22204
843.616	22382
843.752	22063
843.889	22101
844.025	22223
844.162	22032
844.298	22105
844.435	22105
844.571	22002
844.708	22070
844.844	22234
844.98	22143
845.117	22109
845.253	21979
845.389	21949
845.525	21903
845.661	21991
845.798	21800
845.934	21899
846.07	21842
846.206	21800
846.342	21873
846.478	21762
846.614	21641
846.75	21511
846.886	21538
847.022	21603
847.158	21595
847.294	21526
847.429	21572
847.565	21454
847.701	21724
847.837	21325
847.972	21222
848.108	21294
848.244	21386
848.379	21180
848.515	21138
848.65	21123
848.786	21218
848.921	21161
849.057	21161
849.192	21237
849.328	21108
849.463	21184
849.598	21180
849.734	21051
849.869	21096
850.004	20956
850.14	20887
850.275	20883
850.41	20811
850.545	20819
850.68	20853
850.815	20971
850.95	20929
851.085	21085
851.22	20994
851.355	20876
851.49	20921
851.625	20815
851.76	20967
851.895	20868
852.03	20769
852.165	20910
852.299	20963
852.434	20998
852.569	20834
852.703	20918
852.838	21081
852.973	21043
853.107	21070
853.242	20796
853.376	20762
853.511	20629
853.645	20598
853.78	20785
853.914	20648
854.048	20720
854.183	20590
854.317	20868
854.451	20990
854.585	20792
854.72	20663
854.854	20811
854.988	20594
855.122	20750
855.256	20621
855.39	20811
855.524	20785
855.658	20880
855.792	20758
855.926	20720
856.06	20754
856.194	20804
856.327	20659
856.461	20731
856.595	20667
856.729	20705
856.862	20785
856.996	20853
857.13	20876
857.263	20830
857.397	20842
857.53	20815
857.664	20705
857.797	20735
857.931	20880
858.064	20872
858.197	20754
858.331	20674
858.464	20636
858.597	20659
858.731	20632
858.864	20632
858.997	20625
859.13	20667
859.263	20788
859.396	20800
859.529	20792
859.662	20606
859.795	20724
859.928	20785
860.061	20925
860.194	20929
860.327	20792
860.46	20785
860.592	20826
860.725	20857
860.858	20834
860.99	20762
861.123	20670
861.256	20731
861.388	20648
861.521	21313
861.653	20571
861.786	20488
861.918	20476
862.05	20670
862.183	20720
862.315	20785
862.447	20724
862.58	20659
862.712	20469
862.844	20396
862.976	20697
863.108	20473
863.24	20887
863.372	20446
863.504	20298
863.636	20404
863.768	20450
863.9	20454
864.032	20366
864.164	20339
864.296	20457
864.428	20575
864.559	20473
864.691	20476
864.823	20507
864.954	20393
865.086	20507
865.217	20271
865.349	20275
865.48	20218
865.612	20305
865.743	20461
865.875	20290
866.006	20358
866.137	20381
866.269	20377
866.4	20362
866.531	20298
866.662	20275
866.793	20309
866.924	20237
867.055	20282
867.186	20248
867.317	20282
867.448	20263
867.579	20214
867.71	20233
867.841	20263
867.972	20355
868.103	20328
868.233	20233
868.364	20317
868.495	20282
868.625	20522
868.756	20590
868.886	20541
869.017	20480
869.147	20613
869.278	20568
869.408	20564
869.539	20514
869.669	20636
869.799	20541
869.929	20568
870.06	20625
870.19	20910
870.32	20796
870.45	20853
870.58	20944
870.71	20998
870.84	21051
870.97	20849
871.1	20941
871.23	21138
871.36	21108
871.489	20906
871.619	21104
871.749	21214
871.879	21108
872.008	21306
872.138	21135
872.267	21203
872.397	20971
872.526	20941
872.656	20925
872.785	21005
872.915	21203
873.044	21192
873.173	21081
873.303	21211
873.432	21176
873.561	21055
873.69	21211
873.819	21138
873.948	21154
874.077	21245
874.206	21089
874.335	21154
874.464	21195
874.593	21439
874.722	21329
874.851	21454
874.979	21428
875.108	21389
875.237	21329
875.365	21218
875.494	21408
875.623	21401
875.751	21408
875.88	21504
876.008	21595
876.136	21652
876.265	21705
876.393	21926
876.521	21907
876.65	21793
876.778	21819
876.906	21751
877.034	21679
877.162	21629
877.29	21785
877.418	21819
877.546	21800
877.674	21660
877.802	21774
877.93	21690
878.058	21705
878.185	21530
878.313	21686
878.441	21846
878.568	21473
878.696	21774
878.824	21781
878.951	21842
879.079	21930
879.206	21998
879.333	22002
879.461	21663
879.588	21895
879.715	21857
879.842	21941
879.97	21819
880.097	21500
880.224	21572
880.351	21561
880.478	21568
880.605	21523
880.732	21481
880.859	21827
880.986	21534
881.112	21576
881.239	21542
881.366	21283
881.493	21096
881.619	21138
881.746	21180
881.872	21138
881.999	21184
882.125	21013
882.252	21173
882.378	21112
882.505	21173
882.631	20994
882.757	20883
882.883	20864
883.01	20845
883.136	20853
883.262	20670
883.388	20769
883.514	20724
883.64	20864
883.766	20769
883.892	20686
884.018	20632
884.143	20727
884.269	20838
884.395	20571
884.52	20438
884.646	20454
884.772	20571
884.897	20415
885.023	20541
885.148	20495
885.274	20663
885.399	20549
885.524	20514
885.65	20492
885.775	20457
885.9	20366
886.025	20583
886.15	20495
886.275	20492
886.4	20560
886.525	20549
886.65	20431
886.775	20320
886.9	20571
887.025	20663
887.149	20438
887.274	20267
887.399	20301
887.523	20377
887.648	20214
887.773	20157
887.897	20259
888.021	20320
888.146	20278
888.27	20454
888.395	20400
888.519	20252
888.643	20339
888.767	20286
888.891	20191
889.015	20088
889.139	20180
889.263	20206
889.387	20229
889.511	20168
889.635	20103
889.759	20065
889.883	20043
890.006	20100
890.13	20218
890.254	19906
890.377	19925
890.501	19883
890.624	19799
890.748	19909
890.871	19723
890.995	19685
891.118	19658
891.241	19693
891.364	19723
891.488	19830
891.611	19689
891.734	19655
891.857	19666
891.98	19700
892.103	19655
892.226	19738
892.349	19632
892.471	19388
892.594	19487
892.717	19681
892.839	19540
892.962	19567
893.085	19552
893.207	19643
893.33	19483
893.452	19533
893.575	19681
893.697	19533
893.819	19750
893.941	19742
894.064	19571
894.186	19597
894.308	19419
894.43	19567
894.552	19731
894.674	19556
894.796	19529
894.918	19563
895.04	19514
895.161	19563
895.283	19647
895.405	19426
895.526	19521
895.648	19525
895.769	19605
895.891	19632
896.012	19734
896.134	19567
896.255	19670
896.376	19540
896.498	19586
896.619	19533
896.74	19571
896.861	19571
896.982	19974
897.103	20012
897.224	19932
897.345	19898
897.466	19814
897.587	19788
897.708	19875
897.828	19913
897.949	19753
898.07	19616
898.19	19666
898.311	19887
898.431	19689
898.552	19791
898.672	19871
898.792	19917
898.913	19791
899.033	19639
899.153	19723
899.273	19586
899.393	19575
899.513	19578
899.633	19525
899.753	19635
899.873	19521
899.993	19575
900.113	19483
900.232	19537
900.352	19544
900.472	19388
900.591	19362
900.711	19480
900.83	19343
900.95	19434
901.069	19525
901.189	19236
901.308	19061
901.427	18920
901.546	19046
901.665	18962
901.784	18897
901.904	18856
902.023	18730
902.141	18574
902.26	18532
902.379	18551
902.498	18513
902.617	18277
902.735	18517
902.854	18509
902.973	18509
903.091	18155
903.21	18228
903.328	18091
903.446	18057
903.565	17996
903.683	18064
903.801	17863
903.919	17904
904.038	17984
904.156	17687
904.274	17904
904.392	17733
904.51	17703
904.627	17528
904.745	17741
904.863	17786
904.981	17486
905.098	17455
905.216	17376
905.334	17520
905.451	17512
905.569	17318
905.686	17360
905.803	17425
905.921	17159
906.038	17220
906.155	17216
906.272	17052
906.389	17117
906.506	16968
906.623	16995
906.74	16873
906.857	16675
906.974	16843
907.091	16957
907.208	17025
907.324	16919
907.441	16801
907.557	16675
907.674	16603
907.79	16691
907.907	16687
908.023	16626
908.139	16786
908.256	16603
908.372	16592
908.488	16462
908.604	16489
908.72	16299
908.836	16390
908.952	16333
909.068	16344
909.184	16470
909.3	16371
909.415	16470
909.531	16333
909.647	16181
909.762	16124
909.878	15968
909.993	16082
910.108	16025
910.224	15987
910.339	16040
910.454	15953
910.57	15934
910.685	15831
910.8	16109
910.915	16048
911.03	15842
911.145	15732
911.259	15679
911.374	15751
911.489	15625
911.604	15576
911.718	15469
911.833	15412
911.947	15397
912.062	15389
912.176	15363
912.291	15515
912.405	15416
912.519	15656
912.633	15595
912.748	15584
912.862	15416
912.976	15264
913.09	15188
913.204	15192
913.318	15222
913.431	15313
913.545	15351
913.659	15424
913.772	15100
913.886	15146
914	15123
914.113	15154
914.226	15165
914.34	15154
914.453	15058
914.566	15142
914.68	14998
914.793	15020
914.906	14773
915.019	14754
915.132	14670
915.245	14579
915.358	14689
915.47	14651
915.583	14781
915.696	14613
915.809	14880
915.921	14788
916.034	14552
916.146	14571
916.259	14610
916.371	14613
916.483	14705
916.595	14579
916.708	14583
916.82	14568
916.932	14541
917.044	14465
917.156	14499
917.268	14461
917.38	14381
917.491	14358
917.603	14362
917.715	14419
917.826	14431
917.938	14202
918.049	14233
918.161	14317
918.272	14389
918.384	14324
918.495	14309
918.606	14256
918.717	14046
918.828	14123
918.939	14168
919.05	14096
919.161	14111
919.272	13963
919.383	13955
919.494	14134
919.604	14343
919.715	14115
919.826	14035
919.936	14058
920.047	14259
920.157	14065
920.267	14225
920.378	14073
920.488	14020
920.598	14229
920.708	14374
920.818	14199
920.928	14290
921.038	14377
921.148	14393
921.258	14035
921.368	13970
921.477	13852
921.587	13788
921.697	13723
921.806	13902
921.916	13677
922.025	13567
922.134	13499
922.244	13476
922.353	13457
922.462	13472
922.571	13415
922.68	13171
922.789	13202
922.898	13183
923.007	13069
923.116	13171
923.224	13171
923.333	13095
923.442	13019
923.55	13012
923.659	12981
923.767	13080
923.876	13004
923.984	13126
924.092	12840
924.201	12905
924.309	12909
924.417	12958
924.525	12802
924.633	12810
924.741	13537
924.849	12589
924.956	12692
925.064	12635
925.172	12513
925.279	12563
925.387	12585
925.494	12460
925.602	12669
925.709	12612
925.816	12525
925.924	12585
926.031	12585
926.138	12601
926.245	12502
926.352	12464
926.459	12547
926.566	12536
926.673	12490
926.779	12342
926.886	12350
926.993	12213
927.099	12159
927.206	12129
927.312	12121
927.419	12224
927.525	12213
927.631	12239
927.737	12003
927.843	12003
927.95	11878
928.056	11965
928.162	12003
928.267	12007
928.373	12604
928.479	12121
928.585	11942
928.69	11931
928.796	12022
928.901	11931
929.007	11710
929.112	11882
929.218	11824
929.323	11760
929.428	11691
929.533	11916
929.638	11703
929.743	11691
929.848	11809
929.953	11733
930.058	11573
930.163	11490
930.267	11372
930.372	11528
930.477	11383
930.581	11604
930.685	11410
930.79	11242
930.894	11265
930.998	11242
931.103	11474
931.207	11022
931.311	10999
931.415	10908
931.519	10717
931.623	10702
