Data from test_V78500241_320.txt Node
Date: Fri Mar 25 15:12:05 CST 2022
User: usil
Spectrometer: V785-0024
Trigger mode: 0
Integration Time (sec): 4.000000E-1
Scans to average: 1
Nonlinearity correction enabled: false
Boxcar width: 0
Storing dark spectrum: false
XAxis mode: Wavelengths
Number of Pixels in Spectrum: 1024
>>>>>Begin Spectral Data<<<<<
801.071	27701
801.214	27736
801.356	27485
801.499	27420
801.641	27363
801.783	27302
801.926	27488
802.068	27317
802.211	27260
802.353	27203
802.496	27066
802.638	26986
802.78	27024
802.923	26982
803.065	26785
803.208	26906
803.35	26990
803.492	27108
803.635	27123
803.777	26982
803.919	27108
804.061	27275
804.204	27039
804.346	27055
804.488	26887
804.63	27176
804.773	26883
804.915	27039
805.057	27112
805.199	27036
805.341	27127
805.483	27131
805.626	27176
805.768	27032
805.91	27036
806.052	27192
806.194	27047
806.336	27378
806.478	27226
806.62	27150
806.762	27256
806.904	27374
807.046	27690
807.188	27523
807.33	27420
807.472	27629
807.614	27557
807.756	27542
807.898	27412
808.04	27344
808.182	27386
808.324	27325
808.465	27450
808.607	27507
808.749	27614
808.891	27766
809.033	27956
809.174	27903
809.316	27842
809.458	27743
809.6	27804
809.741	27812
809.883	27857
810.025	27945
810.166	27823
810.308	27991
810.45	27930
810.591	27869
810.733	27743
810.875	27732
811.016	27682
811.158	27663
811.299	27717
811.441	27842
811.582	27907
811.724	27690
811.865	27618
812.007	27770
812.148	27709
812.29	27797
812.431	27876
812.573	28002
812.714	28139
812.855	28223
812.997	28341
813.138	28440
813.279	28382
813.421	28185
813.562	28048
813.703	28021
813.845	28051
813.986	27549
814.127	27447
814.268	27507
814.41	27458
814.551	27351
814.692	27363
814.833	27332
814.974	27447
815.115	27405
815.256	27252
815.397	27135
815.539	27275
815.68	27218
815.821	27135
815.962	27119
816.103	27066
816.244	27032
816.385	26899
816.526	26971
816.666	26739
816.807	26651
816.948	26625
817.089	26655
817.23	26492
817.371	26632
817.512	26488
817.653	26552
817.793	26549
817.934	26594
818.075	26571
818.216	26609
818.356	26530
818.497	26530
818.638	26153
818.778	26237
818.919	26408
819.06	26301
819.2	26511
819.341	26552
819.481	26556
819.622	26750
819.762	26876
819.903	26830
820.043	26731
820.184	26659
820.324	26735
820.465	26724
820.605	26735
820.746	26651
820.886	26518
821.026	26705
821.167	26590
821.307	26678
821.447	26522
821.588	26465
821.728	26450
821.868	26176
822.008	25940
822.149	25966
822.289	25951
822.429	25822
822.569	25772
822.709	25605
822.849	25563
822.99	25411
823.13	25502
823.27	25426
823.41	25403
823.55	25164
823.69	25259
823.83	25430
823.97	25190
824.11	25225
824.25	25263
824.389	25103
824.529	25270
824.669	25244
824.809	25232
824.949	25206
825.089	25183
825.228	25198
825.368	25091
825.508	25080
825.648	25023
825.787	25069
825.927	25091
826.067	24863
826.206	24996
826.346	24992
826.485	24958
826.625	24890
826.765	25099
826.904	25095
827.044	24677
827.183	24692
827.323	24635
827.462	24719
827.601	24601
827.741	24597
827.88	24669
828.02	24471
828.159	24726
828.298	24677
828.437	24646
828.577	24627
828.716	24776
828.855	24646
828.994	24460
829.134	24327
829.273	24502
829.412	24239
829.551	24464
829.69	24353
829.829	24391
829.968	24437
830.107	24471
830.246	24376
830.385	24338
830.524	24144
830.663	24106
830.802	24015
830.941	23939
831.08	23958
831.219	24068
831.357	23897
831.496	24121
831.635	23999
831.774	23935
831.913	23786
832.051	23722
832.19	23680
832.329	23817
832.467	23649
832.606	23608
832.744	23611
832.883	23577
833.022	23703
833.16	23703
833.299	23604
833.437	23684
833.576	23623
833.714	23710
833.852	23691
833.991	23760
834.129	23878
834.267	23771
834.406	23703
834.544	23707
834.682	23714
834.821	23634
834.959	23935
835.097	23627
835.235	23684
835.373	23573
835.511	23615
835.65	23562
835.788	23497
835.926	23509
836.064	23277
836.202	23193
836.34	23573
836.478	23722
836.615	23585
836.753	23440
836.891	23581
837.029	23440
837.167	23417
837.305	23402
837.443	23360
837.58	23417
837.718	23459
837.856	23455
837.993	23360
838.131	23562
838.269	23143
838.406	23269
838.544	23269
838.681	23079
838.819	22915
838.956	22934
839.094	22820
839.231	22957
839.369	23083
839.506	23345
839.643	23147
839.781	22850
839.918	22873
840.055	22927
840.193	22976
840.33	22748
840.467	22816
840.604	22725
840.742	23155
840.879	22660
841.016	22839
841.153	22675
841.29	22733
841.427	22710
841.564	22824
841.701	22748
841.838	22687
841.975	22649
842.112	22664
842.249	22459
842.385	22500
842.522	22740
842.659	22493
842.796	22561
842.933	22447
843.069	22424
843.206	22436
843.343	22645
843.479	22432
843.616	22561
843.752	22284
843.889	22238
844.025	22424
844.162	22219
844.298	22276
844.435	22223
844.571	22154
844.708	22306
844.844	22451
844.98	22394
845.117	22310
845.253	22284
845.389	22044
845.525	22128
845.661	22211
845.798	21941
845.934	22093
846.07	22017
846.206	22055
846.342	21983
846.478	21956
846.614	21808
846.75	21622
846.886	21724
847.022	21918
847.158	21747
847.294	21755
847.429	21701
847.565	21838
847.701	21956
847.837	21466
847.972	21355
848.108	21439
848.244	21473
848.379	21439
848.515	21397
848.65	21348
848.786	21386
848.921	21317
849.057	21431
849.192	21321
849.328	21291
849.463	21260
849.598	21222
849.734	21230
849.869	21150
850.004	21062
850.14	21108
850.275	21169
850.41	21089
850.545	20914
850.68	21081
850.815	21058
850.95	21032
851.085	21218
851.22	21199
851.355	21051
851.49	21108
851.625	21032
851.76	21127
851.895	20899
852.03	20979
852.165	20975
852.299	21024
852.434	21127
852.569	21096
852.703	21043
852.838	21066
852.973	21298
853.107	21233
853.242	20933
853.376	20899
853.511	20842
853.645	20804
853.78	20986
853.914	20929
854.048	20948
854.183	20826
854.317	20864
854.451	21028
854.585	20994
854.72	20880
854.854	20933
854.988	20724
855.122	20956
855.256	20845
855.39	20925
855.524	20880
855.658	20906
855.792	20929
855.926	20971
856.06	20971
856.194	20933
856.327	20864
856.461	20811
856.595	20792
856.729	20895
856.862	20937
856.996	20906
857.13	20967
857.263	21085
857.397	21051
857.53	20902
857.664	20952
857.797	20956
857.931	20937
858.064	20876
858.197	20941
858.331	20910
858.464	20804
858.597	20750
858.731	20807
858.864	20819
858.997	20910
859.13	20842
859.263	20906
859.396	21032
859.529	20815
859.662	20807
859.795	20739
859.928	20834
860.061	20963
860.194	21066
860.327	20937
860.46	20929
860.592	20952
860.725	20941
860.858	21043
860.99	20914
861.123	20834
861.256	20853
861.388	21001
861.521	21530
861.653	20720
861.786	20651
861.918	20689
862.05	20781
862.183	20777
862.315	20921
862.447	20861
862.58	20773
862.712	20640
862.844	20598
862.976	20560
863.108	20739
863.24	21154
863.372	20492
863.504	20602
863.636	20549
863.768	20598
863.9	20537
864.032	20545
864.164	20590
864.296	20579
864.428	20663
864.559	20712
864.691	20640
864.823	20606
864.954	20537
865.086	20571
865.217	20552
865.349	20461
865.48	20476
865.612	20568
865.743	20575
865.875	20537
866.006	20374
866.137	20473
866.269	20560
866.4	20339
866.531	20442
866.662	20381
866.793	20389
866.924	20385
867.055	20522
867.186	20324
867.317	20385
867.448	20328
867.579	20332
867.71	20370
867.841	20343
867.972	20412
868.103	20282
868.233	20423
868.364	20400
868.495	20575
868.625	20629
868.756	20777
868.886	20606
869.017	20651
869.147	20720
869.278	20727
869.408	20663
869.539	20659
869.669	20705
869.799	20724
869.929	20864
870.06	20769
870.19	20891
870.32	20994
870.45	20979
870.58	21085
870.71	21165
870.84	21116
870.97	20979
871.1	21070
871.23	21207
871.36	21180
871.489	21161
871.619	21230
871.749	21275
871.879	21275
872.008	21348
872.138	21294
872.267	21294
872.397	21142
872.526	21047
872.656	21013
872.785	21074
872.915	21272
873.044	21291
873.173	21249
873.303	21287
873.432	21378
873.561	21408
873.69	21294
873.819	21211
873.948	21310
874.077	21428
874.206	21203
874.335	21291
874.464	21473
874.593	21530
874.722	21477
874.851	21568
874.979	21515
875.108	21545
875.237	21439
875.365	21332
875.494	21447
875.623	21519
875.751	21431
875.88	21538
876.008	21599
876.136	21785
876.265	21956
876.393	21998
876.521	21922
876.65	21915
876.778	21888
876.906	21846
877.034	21823
877.162	21907
877.29	21793
877.418	21899
877.546	21793
877.674	21766
877.802	21930
877.93	21793
878.058	21755
878.185	21747
878.313	21857
878.441	21808
878.568	21713
878.696	21819
878.824	21724
878.951	21842
879.079	22120
879.206	22040
879.333	22059
879.461	21869
879.588	21915
879.715	21964
879.842	22086
879.97	21903
880.097	21690
880.224	21705
880.351	21663
880.478	21671
880.605	21545
880.732	21633
880.859	21857
880.986	21682
881.112	21538
881.239	21641
881.366	21408
881.493	21279
881.619	21268
881.746	21378
881.872	21199
881.999	21173
882.125	21169
882.252	21203
882.378	21207
882.505	21401
882.631	21100
882.757	21001
882.883	21093
883.01	20933
883.136	20952
883.262	20895
883.388	20838
883.514	20948
883.64	21104
883.766	20929
883.892	20705
884.018	20849
884.143	20963
884.269	20967
884.395	20724
884.52	20625
884.646	20659
884.772	20450
884.897	20571
885.023	20617
885.148	20632
885.274	20804
885.399	20727
885.524	20621
885.65	20651
885.775	20716
885.9	20670
886.025	20750
886.15	20522
886.275	20526
886.4	20541
886.525	20503
886.65	20507
886.775	20450
886.9	20750
887.025	20845
887.149	20609
887.274	20366
887.399	20393
887.523	20457
887.648	20400
887.773	20233
887.897	20366
888.021	20381
888.146	20248
888.27	20374
888.395	20507
888.519	20347
888.643	20427
888.767	20427
888.891	20374
889.015	20161
889.139	20271
889.263	20111
889.387	20263
889.511	20400
889.635	20358
889.759	20210
889.883	20180
890.006	20096
890.13	20278
890.254	20084
890.377	20100
890.501	19837
890.624	19750
890.748	19993
890.871	19993
890.995	19670
891.118	19769
891.241	19734
891.364	19742
891.488	19879
891.611	19769
891.734	19799
891.857	19830
891.98	19677
892.103	19769
892.226	19807
892.349	19693
892.471	19597
892.594	19662
892.717	19731
892.839	19639
892.962	19575
893.085	19750
893.207	19670
893.33	19632
893.452	19601
893.575	19609
893.697	19540
893.819	19822
893.941	19944
894.064	19731
894.186	19571
894.308	19533
894.43	19757
894.552	19814
894.674	19689
894.796	19643
894.918	19658
895.04	19635
895.161	19750
895.283	19719
895.405	19594
895.526	19658
895.648	19655
895.769	19738
895.891	19715
896.012	19769
896.134	19651
896.255	19681
896.376	19578
896.498	19696
896.619	19780
896.74	19708
896.861	19788
896.982	20016
897.103	20233
897.224	19940
897.345	19841
897.466	19856
897.587	19780
897.708	20012
897.828	19970
897.949	19883
898.07	19776
898.19	19734
898.311	19925
898.431	19837
898.552	19898
898.672	19970
898.792	19936
898.913	19955
899.033	19795
899.153	19708
899.273	19480
899.393	19651
899.513	19689
899.633	19704
899.753	19601
899.873	19495
899.993	19552
900.113	19578
900.232	19601
900.352	19635
900.472	19480
900.591	19297
900.711	19415
900.83	19365
900.95	19495
901.069	19460
901.189	19381
901.308	19091
901.427	18905
901.546	19038
901.665	19015
901.784	19050
901.904	18875
902.023	18810
902.141	18582
902.26	18502
902.379	18635
902.498	18403
902.617	18517
902.735	18555
902.854	18365
902.973	18498
903.091	18232
903.21	18144
903.328	18125
903.446	18129
903.565	17980
903.683	18079
903.801	17946
903.919	17973
904.038	17908
904.156	17824
904.274	17760
904.392	17684
904.51	17748
904.627	17794
904.745	17798
904.863	17760
904.981	17680
905.098	17414
905.216	17429
905.334	17482
905.451	17459
905.569	17414
905.686	17448
905.803	17459
905.921	17239
906.038	17353
906.155	17231
906.272	17181
906.389	17197
906.506	16980
906.623	17060
906.74	16896
906.857	16850
906.974	16980
907.091	17086
907.208	17105
907.324	17052
907.441	16900
907.557	16748
907.674	16691
907.79	16580
907.907	16607
908.023	16683
908.139	16755
908.256	16733
908.372	16527
908.488	16489
908.604	16470
908.72	16386
908.836	16356
908.952	16527
909.068	16379
909.184	16565
909.3	16360
909.415	16497
909.531	16375
909.647	16181
909.762	16124
909.878	16105
909.993	16131
910.108	16074
910.224	16105
910.339	16101
910.454	15960
910.57	15945
910.685	15895
910.8	16051
910.915	16082
911.03	15899
911.145	15751
911.259	15739
911.374	15690
911.489	15599
911.604	15526
911.718	15584
911.833	15454
911.947	15325
912.062	15302
912.176	15439
912.291	15450
912.405	15344
912.519	15568
912.633	15580
912.748	15447
912.862	15450
912.976	15317
913.09	15074
913.204	15249
913.318	15241
913.431	15374
913.545	15454
913.659	15340
913.772	15192
913.886	15039
914	15093
914.113	15203
914.226	15283
914.34	15135
914.453	15005
914.566	15131
914.68	14979
914.793	14868
914.906	14773
915.019	14735
915.132	14667
915.245	14659
915.358	14655
915.47	14724
915.583	14689
915.696	14743
915.809	14781
915.921	14864
916.034	14610
916.146	14644
916.259	14514
916.371	14636
916.483	14632
916.595	14526
916.708	14484
916.82	14461
916.932	14541
917.044	14602
917.156	14419
917.268	14317
917.38	14454
917.491	14298
917.603	14362
917.715	14358
917.826	14431
917.938	14275
918.049	14202
918.161	14343
918.272	14358
918.384	14473
918.495	14298
918.606	14123
918.717	14206
918.828	14119
918.939	14229
919.05	14035
919.161	14107
919.272	13928
919.383	13982
919.494	14206
919.604	14286
919.715	14138
919.826	13917
919.936	14126
920.047	14138
920.157	14126
920.267	14278
920.378	14096
920.488	14065
920.598	14267
920.708	14400
920.818	14183
920.928	14176
921.038	14355
921.148	14309
921.258	14065
921.368	14016
921.477	13871
921.587	13833
921.697	13651
921.806	13822
921.916	13746
922.025	13460
922.134	13506
922.244	13415
922.353	13483
922.462	13369
922.571	13263
922.68	13202
922.789	13149
922.898	13202
923.007	13012
923.116	13088
923.224	13141
923.333	13057
923.442	12859
923.55	12932
923.659	12996
923.767	12970
923.876	12935
923.984	13034
924.092	12867
924.201	12909
924.309	12890
924.417	12856
924.525	12719
924.633	12734
924.741	13613
924.849	12597
924.956	12757
925.064	12669
925.172	12471
925.279	12525
925.387	12627
925.494	12578
925.602	12665
925.709	12631
925.816	12471
925.924	12498
926.031	12665
926.138	12471
926.245	12540
926.352	12407
926.459	12506
926.566	12555
926.673	12555
926.779	12376
926.886	12213
926.993	12171
927.099	12076
927.206	12079
927.312	12068
927.419	12083
927.525	12144
927.631	12167
927.737	11939
927.843	11996
927.95	11923
928.056	11969
928.162	11939
928.267	11965
928.373	12585
928.479	11999
928.585	11874
928.69	11935
928.796	11920
928.901	11878
929.007	11657
929.112	11786
929.218	11779
929.323	11695
929.428	11684
929.533	11859
929.638	11623
929.743	11653
929.848	11680
929.953	11604
930.058	11589
930.163	11467
930.267	11414
930.372	11535
930.477	11433
930.581	11642
930.685	11433
930.79	11280
930.894	11299
930.998	11273
931.103	11368
931.207	11067
931.311	11014
931.415	10942
931.519	10641
931.623	10698
