Data from test_V78500241_2323.txt Node
Date: Fri Mar 25 15:26:02 CST 2022
User: usil
Spectrometer: V785-0024
Trigger mode: 0
Integration Time (sec): 4.000000E-1
Scans to average: 1
Nonlinearity correction enabled: false
Boxcar width: 0
Storing dark spectrum: false
XAxis mode: Wavelengths
Number of Pixels in Spectrum: 1024
>>>>>Begin Spectral Data<<<<<
801.071	27591
801.214	27553
801.356	27260
801.499	27169
801.641	27104
801.783	27020
801.926	27020
802.068	27051
802.211	27093
802.353	26899
802.496	26765
802.638	26697
802.78	26674
802.923	26617
803.065	26556
803.208	26682
803.35	26785
803.492	26674
803.635	26765
803.777	26815
803.919	26845
804.061	27275
804.204	26899
804.346	26796
804.488	26701
804.63	26895
804.773	26792
804.915	26864
805.057	26921
805.199	26883
805.341	26956
805.483	27047
805.626	26986
805.768	26975
805.91	26952
806.052	26940
806.194	26864
806.336	27058
806.478	27062
806.62	26891
806.762	27169
806.904	27211
807.046	27439
807.188	27427
807.33	27462
807.472	27420
807.614	27374
807.756	27386
807.898	27329
808.04	27211
808.182	27325
808.324	27252
808.465	27355
808.607	27473
808.749	27656
808.891	27667
809.033	27675
809.174	27648
809.316	27576
809.458	27542
809.6	27500
809.741	27713
809.883	27629
810.025	27903
810.166	27800
810.308	27823
810.45	27812
810.591	27732
810.733	27682
810.875	27427
811.016	27424
811.158	27488
811.299	27496
811.441	27679
811.582	27705
811.724	27549
811.865	27496
812.007	27488
812.148	27416
812.29	27599
812.431	27778
812.573	27914
812.714	28025
812.855	28048
812.997	28177
813.138	28272
813.279	28147
813.421	28116
813.562	27930
813.703	27781
813.845	27888
813.986	27504
814.127	27329
814.268	27291
814.41	27408
814.551	27287
814.692	27272
814.833	27199
814.974	27123
815.115	27291
815.256	27169
815.397	27173
815.539	27089
815.68	27032
815.821	26975
815.962	27024
816.103	27001
816.244	26960
816.385	26883
816.526	26670
816.666	26792
816.807	26545
816.948	26598
817.089	26549
817.23	26564
817.371	26469
817.512	26476
817.653	26621
817.793	26404
817.934	26663
818.075	26499
818.216	26461
818.356	26457
818.497	26252
818.638	26256
818.778	26248
818.919	26218
819.06	26400
819.2	26461
819.341	26465
819.481	26571
819.622	26606
819.762	26857
819.903	26716
820.043	26807
820.184	26769
820.324	26598
820.465	26746
820.605	26670
820.746	26606
820.886	26351
821.026	26617
821.167	26655
821.307	26655
821.447	26545
821.588	26560
821.728	26252
821.868	26256
822.008	26202
822.149	25997
822.289	25928
822.429	25761
822.569	25712
822.709	25712
822.849	25445
822.99	25529
823.13	25495
823.27	25426
823.41	25312
823.55	25365
823.69	25270
823.83	25285
823.97	25095
824.11	25240
824.25	24981
824.389	25107
824.529	25164
824.669	25183
824.809	25190
824.949	25289
825.089	25236
825.228	25209
825.368	24970
825.508	25023
825.648	25038
825.787	24992
825.927	25095
826.067	24863
826.206	24973
826.346	24985
826.485	25137
826.625	24985
826.765	25076
826.904	24966
827.044	24920
827.183	24711
827.323	24700
827.462	24783
827.601	24715
827.741	24620
827.88	24673
828.02	24528
828.159	24681
828.298	24700
828.437	24817
828.577	24563
828.716	24703
828.855	24639
828.994	24414
829.134	24376
829.273	24559
829.412	24319
829.551	24232
829.69	24407
829.829	24357
829.968	24525
830.107	24448
830.246	24399
830.385	24296
830.524	24270
830.663	24220
830.802	24140
830.941	24114
831.08	23969
831.219	24125
831.357	24106
831.496	24194
831.635	23942
831.774	24038
831.913	23893
832.051	23992
832.19	23836
832.329	23767
832.467	23729
832.606	23699
832.744	23630
832.883	23699
833.022	23680
833.16	23680
833.299	23699
833.437	23752
833.576	23779
833.714	23771
833.852	23729
833.991	23855
834.129	23916
834.267	23802
834.406	23786
834.544	23798
834.682	23760
834.821	23714
834.959	23912
835.097	23634
835.235	23832
835.373	23619
835.511	23665
835.65	23619
835.788	23646
835.926	23448
836.064	23463
836.202	23349
836.34	23562
836.478	23657
836.615	23589
836.753	23501
836.891	23783
837.029	23623
837.167	23467
837.305	23535
837.443	23459
837.58	23471
837.718	23524
837.856	23417
837.993	23467
838.131	23292
838.269	23284
838.406	23235
838.544	23288
838.681	23109
838.819	23022
838.956	22938
839.094	22809
839.231	23025
839.369	23086
839.506	23280
839.643	23155
839.781	22858
839.918	22801
840.055	22904
840.193	22949
840.33	22778
840.467	22793
840.604	22706
840.742	23018
840.879	22641
841.016	22843
841.153	22706
841.29	22672
841.427	22847
841.564	22763
841.701	22786
841.838	22812
841.975	22740
842.112	22801
842.249	22611
842.385	22653
842.522	22645
842.659	22664
842.796	22516
842.933	22615
843.069	22478
843.206	22569
843.343	22653
843.479	22615
843.616	22577
843.752	22478
843.889	22337
844.025	22470
844.162	22424
844.298	22394
844.435	22417
844.571	22253
844.708	22371
844.844	22489
844.98	22478
845.117	22344
845.253	22352
845.389	22166
845.525	22124
845.661	22090
845.798	22086
845.934	22223
846.07	21991
846.206	22067
846.342	22128
846.478	22086
846.614	21846
846.75	21747
846.886	21770
847.022	21911
847.158	21903
847.294	21812
847.429	21831
847.565	21800
847.701	22063
847.837	21564
847.972	21530
848.108	21629
848.244	21660
848.379	21477
848.515	21310
848.65	21325
848.786	21329
848.921	21462
849.057	21466
849.192	21530
849.328	21496
849.463	21439
849.598	21424
849.734	21325
849.869	21226
850.004	21123
850.14	21260
850.275	21096
850.41	21081
850.545	21085
850.68	21116
850.815	21195
850.95	21138
851.085	21291
851.22	21317
851.355	21233
851.49	21055
851.625	21089
851.76	21123
851.895	21161
852.03	20986
852.165	21127
852.299	21108
852.434	21180
852.569	21180
852.703	21146
852.838	21272
852.973	21241
853.107	21405
853.242	21066
853.376	21047
853.511	20800
853.645	20895
853.78	21176
853.914	21032
854.048	21013
854.183	20963
854.317	21028
854.451	21287
854.585	21017
854.72	20967
854.854	21036
854.988	20906
855.122	21100
855.256	20956
855.39	21001
855.524	21104
855.658	21089
855.792	21028
855.926	21017
856.06	21047
856.194	21211
856.327	20979
856.461	20895
856.595	20990
856.729	20845
856.862	21047
856.996	21085
857.13	21112
857.263	21089
857.397	20967
857.53	21005
857.664	21093
857.797	21028
857.931	21119
858.064	20952
858.197	21020
858.331	20986
858.464	21036
858.597	20914
858.731	20925
858.864	20883
858.997	20857
859.13	21009
859.263	20990
859.396	20967
859.529	20952
859.662	21062
859.795	20902
859.928	21047
860.061	21165
860.194	21275
860.327	20944
860.46	20944
860.592	21195
860.725	21066
860.858	21070
860.99	20887
861.123	20876
861.256	20956
861.388	20963
861.521	21625
861.653	20944
861.786	20788
861.918	20842
862.05	20941
862.183	20902
862.315	20960
862.447	20952
862.58	20788
862.712	20731
862.844	20648
862.976	20815
863.108	20750
863.24	21260
863.372	20629
863.504	20648
863.636	20720
863.768	20842
863.9	20746
864.032	20800
864.164	20716
864.296	20845
864.428	20720
864.559	20769
864.691	20785
864.823	20659
864.954	20655
865.086	20644
865.217	20575
865.349	20648
865.48	20644
865.612	20670
865.743	20727
865.875	20659
866.006	20606
866.137	20629
866.269	20571
866.4	20644
866.531	20590
866.662	20503
866.793	20640
866.924	20495
867.055	20541
867.186	20670
867.317	20530
867.448	20446
867.579	20503
867.71	20404
867.841	20499
867.972	20667
868.103	20511
868.233	20507
868.364	20598
868.495	20621
868.625	20754
868.756	20876
868.886	20705
869.017	20785
869.147	20952
869.278	20758
869.408	20716
869.539	20800
869.669	20963
869.799	20918
869.929	20921
870.06	20937
870.19	21036
870.32	21085
870.45	21150
870.58	21203
870.71	21207
870.84	21272
870.97	21233
871.1	21268
871.23	21367
871.36	21431
871.489	21207
871.619	21393
871.749	21397
871.879	21450
872.008	21538
872.138	21348
872.267	21329
872.397	21260
872.526	21252
872.656	21180
872.785	21211
872.915	21469
873.044	21523
873.173	21428
873.303	21443
873.432	21443
873.561	21485
873.69	21477
873.819	21481
873.948	21408
874.077	21336
874.206	21359
874.335	21325
874.464	21500
874.593	21652
874.722	21572
874.851	21671
874.979	21504
875.108	21671
875.237	21496
875.365	21526
875.494	21629
875.623	21625
875.751	21610
875.88	21675
876.008	21751
876.136	21892
876.265	22147
876.393	22139
876.521	22105
876.65	22150
876.778	22067
876.906	21884
877.034	21892
877.162	21953
877.29	21937
877.418	22093
877.546	21994
877.674	21987
877.802	22063
877.93	21983
878.058	21888
878.185	21983
878.313	21991
878.441	21865
878.568	21816
878.696	21804
878.824	22055
878.951	22021
879.079	22188
879.206	22265
879.333	22173
879.461	22006
879.588	22223
879.715	22082
879.842	22337
879.97	21945
880.097	21903
880.224	21759
880.351	21823
880.478	21884
880.605	21751
880.732	21785
880.859	22097
880.986	21800
881.112	21884
881.239	21679
881.366	21622
881.493	21401
881.619	21511
881.746	21481
881.872	21306
881.999	21348
882.125	21298
882.252	21382
882.378	21340
882.505	21428
882.631	21298
882.757	21024
882.883	21173
883.01	21104
883.136	21161
883.262	20914
883.388	20910
883.514	21104
883.64	21165
883.766	21043
883.892	20891
884.018	20998
884.143	20960
884.269	21146
884.395	20815
884.52	20804
884.646	20693
884.772	20708
884.897	20499
885.023	20701
885.148	20762
885.274	20845
885.399	20834
885.524	20670
885.65	20807
885.775	20701
885.9	20727
886.025	20796
886.15	20845
886.275	20781
886.4	20644
886.525	20712
886.65	20724
886.775	20632
886.9	20720
887.025	20929
887.149	20796
887.274	20598
887.399	20583
887.523	20454
887.648	20381
887.773	20454
887.897	20590
888.021	20590
888.146	20488
888.27	20507
888.395	20602
888.519	20507
888.643	20686
888.767	20575
888.891	20434
889.015	20294
889.139	20324
889.263	20240
889.387	20370
889.511	20503
889.635	20415
889.759	20244
889.883	20305
890.006	20347
890.13	20415
890.254	20176
890.377	20290
890.501	20221
890.624	20027
890.748	19955
890.871	19970
890.995	19883
891.118	19818
891.241	19887
891.364	19894
891.488	19970
891.611	19913
891.734	19894
891.857	19894
891.98	19879
892.103	19989
892.226	19909
892.349	19871
892.471	19715
892.594	19727
892.717	19833
892.839	19822
892.962	19902
893.085	19788
893.207	19906
893.33	19750
893.452	19765
893.575	19845
893.697	19761
893.819	19959
893.941	19860
894.064	19913
894.186	19826
894.308	19791
894.43	19879
894.552	20012
894.674	19818
894.796	19750
894.918	19788
895.04	19723
895.161	19898
895.283	19791
895.405	19837
895.526	19715
895.648	19784
895.769	19814
895.891	19727
896.012	19879
896.134	19860
896.255	19791
896.376	19875
896.498	19852
896.619	19799
896.74	19765
896.861	19898
896.982	20180
897.103	20259
897.224	20096
897.345	20035
897.466	19974
897.587	20050
897.708	20168
897.828	20024
897.949	19868
898.07	19811
898.19	19951
898.311	19997
898.431	19898
898.552	20039
898.672	20084
898.792	20142
898.913	20069
899.033	19978
899.153	19879
899.273	19609
899.393	19803
899.513	19780
899.633	19776
899.753	19818
899.873	19776
899.993	19712
900.113	19719
900.232	19795
900.352	19662
900.472	19567
900.591	19525
900.711	19578
900.83	19529
900.95	19635
901.069	19712
901.189	19518
901.308	19194
901.427	19046
901.546	19015
901.665	19187
901.784	19122
901.904	19061
902.023	19019
902.141	18852
902.26	18726
902.379	18768
902.498	18738
902.617	18669
902.735	18707
902.854	18570
902.973	18551
903.091	18353
903.21	18190
903.328	18319
903.446	18224
903.565	18087
903.683	18163
903.801	18034
903.919	18083
904.038	18121
904.156	18019
904.274	18072
904.392	17840
904.51	17851
904.627	17874
904.745	17931
904.863	17996
904.981	17859
905.098	17543
905.216	17566
905.334	17767
905.451	17623
905.569	17608
905.686	17661
905.803	17570
905.921	17326
906.038	17551
906.155	17376
906.272	17250
906.389	17250
906.506	17121
906.623	17181
906.74	17018
906.857	16968
906.974	17052
907.091	17265
907.208	17140
907.324	17140
907.441	16984
907.557	16843
907.674	16839
907.79	16774
907.907	16854
908.023	16858
908.139	16934
908.256	16824
908.372	16755
908.488	16694
908.604	16588
908.72	16596
908.836	16546
908.952	16584
909.068	16508
909.184	16649
909.3	16428
909.415	16637
909.531	16592
909.647	16253
909.762	16329
909.878	16135
909.993	16287
910.108	16268
910.224	16246
910.339	16242
910.454	16105
910.57	16055
910.685	15861
910.8	16341
910.915	16242
911.03	16044
911.145	15899
911.259	15869
911.374	15884
911.489	15743
911.604	15667
911.718	15553
911.833	15637
911.947	15511
912.062	15500
912.176	15507
912.291	15625
912.405	15557
912.519	15686
912.633	15797
912.748	15660
912.862	15576
912.976	15469
913.09	15272
913.204	15378
913.318	15420
913.431	15534
913.545	15511
913.659	15538
913.772	15287
913.886	15252
914	15264
914.113	15275
914.226	15466
914.34	15283
914.453	15199
914.566	15287
914.68	15131
914.793	15058
914.906	14902
915.019	14880
915.132	14720
915.245	14804
915.358	14906
915.47	14891
915.583	14811
915.696	14826
915.809	14956
915.921	14963
916.034	14762
916.146	14727
916.259	14712
916.371	14861
916.483	14781
916.595	14686
916.708	14625
916.82	14724
916.932	14678
917.044	14667
917.156	14625
917.268	14461
917.38	14427
917.491	14579
917.603	14575
917.715	14476
917.826	14674
917.938	14488
918.049	14328
918.161	14400
918.272	14541
918.384	14533
918.495	14400
918.606	14267
918.717	14237
918.828	14259
918.939	14313
919.05	14199
919.161	14168
919.272	14123
919.383	14065
919.494	14328
919.604	14503
919.715	14298
919.826	14214
919.936	14172
920.047	14313
920.157	14309
920.267	14320
920.378	14218
920.488	14130
920.598	14336
920.708	14503
920.818	14469
920.928	14377
921.038	14526
921.148	14457
921.258	14161
921.368	14016
921.477	14001
921.587	13879
921.697	13826
921.806	13947
921.916	13868
922.025	13628
922.134	13708
922.244	13578
922.353	13658
922.462	13548
922.571	13388
922.68	13373
922.789	13225
922.898	13320
923.007	13213
923.116	13316
923.224	13194
923.333	13289
923.442	13198
923.55	13099
923.659	13122
923.767	13152
923.876	13095
923.984	13141
924.092	13080
924.201	13114
924.309	13042
924.417	13053
924.525	12882
924.633	12939
924.741	13879
924.849	12673
924.956	12935
925.064	12715
925.172	12642
925.279	12616
925.387	12749
925.494	12662
925.602	12791
925.709	12734
925.816	12681
925.924	12650
926.031	12783
926.138	12711
926.245	12719
926.352	12616
926.459	12669
926.566	12730
926.673	12589
926.779	12467
926.886	12471
926.993	12197
927.099	12281
927.206	12133
927.312	12197
927.419	12292
927.525	12285
927.631	12262
927.737	12152
927.843	12095
927.95	12064
928.056	12091
928.162	12114
928.267	12243
928.373	12642
928.479	12182
928.585	11931
928.69	12148
928.796	12083
928.901	11954
929.007	11863
929.112	12034
929.218	11935
929.323	11920
929.428	11821
929.533	11988
929.638	11733
929.743	11813
929.848	11824
929.953	11802
930.058	11676
930.163	11493
930.267	11585
930.372	11638
930.477	11444
930.581	11760
930.685	11630
930.79	11463
930.894	11512
930.998	11417
931.103	11562
931.207	11178
931.311	11181
931.415	11071
931.519	10911
931.623	10790
