Data from test_V78500241_36.txt Node
Date: Fri Mar 25 15:10:06 CST 2022
User: usil
Spectrometer: V785-0024
Trigger mode: 0
Integration Time (sec): 4.000000E-1
Scans to average: 1
Nonlinearity correction enabled: false
Boxcar width: 0
Storing dark spectrum: false
XAxis mode: Wavelengths
Number of Pixels in Spectrum: 1024
>>>>>Begin Spectral Data<<<<<
801.071	28706
801.214	28744
801.356	28432
801.499	28485
801.641	28219
801.783	28318
801.926	28341
802.068	28131
802.211	28162
802.353	28207
802.496	27789
802.638	27914
802.78	27865
802.923	27728
803.065	27770
803.208	27797
803.35	27793
803.492	27907
803.635	27953
803.777	27926
803.919	27964
804.061	28329
804.204	27922
804.346	27797
804.488	27888
804.63	27884
804.773	27888
804.915	27873
805.057	27922
805.199	27861
805.341	28017
805.483	28090
805.626	27994
805.768	27895
805.91	27884
806.052	27987
806.194	28070
806.336	28074
806.478	28025
806.62	27903
806.762	28074
806.904	28284
807.046	28421
807.188	28299
807.33	28306
807.472	28363
807.614	28211
807.756	28314
807.898	28120
808.04	28040
808.182	28067
808.324	28070
808.465	28097
808.607	28265
808.749	28356
808.891	28546
809.033	28626
809.174	28405
809.316	28413
809.458	28379
809.6	28500
809.741	28561
809.883	28584
810.025	28675
810.166	28603
810.308	28721
810.45	28599
810.591	28607
810.733	28478
810.875	28436
811.016	28299
811.158	28303
811.299	28409
811.441	28493
811.582	28516
811.724	28169
811.865	28257
812.007	28398
812.148	28287
812.29	28409
812.431	28550
812.573	28668
812.714	28938
812.855	28911
812.997	29109
813.138	29094
813.279	29124
813.421	29006
813.562	28862
813.703	28721
813.845	28573
813.986	28280
814.127	28044
814.268	28105
814.41	28025
814.551	28029
814.692	28074
814.833	27960
814.974	28082
815.115	27934
815.256	27854
815.397	27785
815.539	27819
815.68	27728
815.821	27686
815.962	27793
816.103	27736
816.244	27462
816.385	27515
816.526	27439
816.666	27275
816.807	27093
816.948	27207
817.089	27264
817.23	27169
817.371	27058
817.512	27150
817.653	26986
817.793	26956
817.934	27062
818.075	27104
818.216	27093
818.356	27093
818.497	26918
818.638	26724
818.778	26948
818.919	26819
819.06	26887
819.2	26895
819.341	26975
819.481	26963
819.622	27169
819.762	27291
819.903	27237
820.043	27146
820.184	27138
820.324	26990
820.465	27268
820.605	27291
820.746	27104
820.886	26940
821.026	27032
821.167	26929
821.307	26948
821.447	26834
821.588	26891
821.728	26670
821.868	26621
822.008	26419
822.149	26343
822.289	26484
822.429	26046
822.569	26027
822.709	26035
822.849	25982
822.99	25860
823.13	25811
823.27	25681
823.41	25734
823.55	25597
823.69	25715
823.83	25666
823.97	25750
824.11	25499
824.25	25460
824.389	25533
824.529	25597
824.669	25449
824.809	25464
824.949	25544
825.089	25620
825.228	25453
825.368	25285
825.508	25259
825.648	25373
825.787	25392
825.927	25251
826.067	25263
826.206	25118
826.346	25289
826.485	25270
826.625	25202
826.765	25373
826.904	25266
827.044	24894
827.183	25042
827.323	25008
827.462	24981
827.601	24992
827.741	24913
827.88	24863
828.02	24650
828.159	24764
828.298	24932
828.437	24894
828.577	24909
828.716	25080
828.855	24791
828.994	24642
829.134	24563
829.273	24650
829.412	24483
829.551	24445
829.69	24517
829.829	24593
829.968	24616
830.107	24658
830.246	24544
830.385	24528
830.524	24528
830.663	24357
830.802	24190
830.941	24194
831.08	23984
831.219	24182
831.357	24224
831.496	24270
831.635	24011
831.774	23958
831.913	23992
832.051	23946
832.19	23912
832.329	23901
832.467	23756
832.606	23668
832.744	23551
832.883	23756
833.022	23695
833.16	23748
833.299	23805
833.437	23726
833.576	23653
833.714	23699
833.852	23790
833.991	23874
834.129	23882
834.267	23882
834.406	23661
834.544	23665
834.682	23752
834.821	23691
834.959	23908
835.097	23767
835.235	23843
835.373	23790
835.511	23703
835.65	23585
835.788	23592
835.926	23372
836.064	23284
836.202	23402
836.34	23528
836.478	23745
836.615	23543
836.753	23611
836.891	23627
837.029	23558
837.167	23528
837.305	23448
837.443	23486
837.58	23463
837.718	23448
837.856	23543
837.993	23417
838.131	23379
838.269	23258
838.406	23376
838.544	23159
838.681	23022
838.819	22873
838.956	22809
839.094	22759
839.231	22885
839.369	23022
839.506	23193
839.643	22995
839.781	22816
839.918	22694
840.055	22683
840.193	22679
840.33	22694
840.467	22786
840.604	22668
840.742	23003
840.879	22603
841.016	22538
841.153	22599
841.29	22782
841.427	22577
841.564	22717
841.701	22729
841.838	22542
841.975	22527
842.112	22611
842.249	22466
842.385	22341
842.522	22504
842.659	22356
842.796	22348
842.933	22409
843.069	22424
843.206	22215
843.343	22538
843.479	22390
843.616	22398
843.752	22158
843.889	22234
844.025	22394
844.162	22128
844.298	22204
844.435	22090
844.571	21994
844.708	22112
844.844	22230
844.98	22253
845.117	22200
845.253	22150
845.389	21949
845.525	22169
845.661	21937
845.798	21808
845.934	21846
846.07	21709
846.206	21857
846.342	21861
846.478	21762
846.614	21648
846.75	21538
846.886	21534
847.022	21675
847.158	21553
847.294	21511
847.429	21549
847.565	21473
847.701	21755
847.837	21359
847.972	21104
848.108	21351
848.244	21378
848.379	21188
848.515	21135
848.65	21001
848.786	21127
848.921	21043
849.057	21127
849.192	21245
849.328	21089
849.463	21028
849.598	20941
849.734	20929
849.869	20899
850.004	20864
850.14	20765
850.275	20838
850.41	20864
850.545	20891
850.68	20712
850.815	20876
850.95	20800
851.085	20819
851.22	20967
851.355	20727
851.49	20792
851.625	20826
851.76	20693
851.895	20689
852.03	20678
852.165	20617
852.299	20678
852.434	20883
852.569	20678
852.703	20792
852.838	20834
852.973	20887
853.107	20857
853.242	20693
853.376	20613
853.511	20503
853.645	20571
853.78	20712
853.914	20492
854.048	20564
854.183	20564
854.317	20648
854.451	20811
854.585	20663
854.72	20560
854.854	20632
854.988	20465
855.122	20583
855.256	20438
855.39	20552
855.524	20579
855.658	20621
855.792	20549
855.926	20507
856.06	20575
856.194	20796
856.327	20651
856.461	20533
856.595	20450
856.729	20541
856.862	20587
856.996	20488
857.13	20571
857.263	20727
857.397	20739
857.53	20530
857.664	20522
857.797	20804
857.931	20743
858.064	20526
858.197	20446
858.331	20514
858.464	20457
858.597	20476
858.731	20431
858.864	20450
858.997	20396
859.13	20503
859.263	20511
859.396	20617
859.529	20438
859.662	20434
859.795	20457
859.928	20545
860.061	20533
860.194	20686
860.327	20438
860.46	20480
860.592	20537
860.725	20617
860.858	20594
860.99	20450
861.123	20412
861.256	20328
861.388	20404
861.521	21032
861.653	20320
861.786	20351
861.918	20332
862.05	20457
862.183	20549
862.315	20609
862.447	20621
862.58	20575
862.712	20271
862.844	20286
862.976	20256
863.108	20229
863.24	20720
863.372	20107
863.504	20248
863.636	20183
863.768	20358
863.9	20252
864.032	20054
864.164	20084
864.296	20218
864.428	20263
864.559	20271
864.691	20282
864.823	20237
864.954	20252
865.086	20107
865.217	20134
865.349	20008
865.48	20069
865.612	20058
865.743	20267
865.875	19989
866.006	20020
866.137	20122
866.269	20024
866.4	20065
866.531	19967
866.662	20138
866.793	20020
866.924	19986
867.055	20020
867.186	19917
867.317	19909
867.448	19852
867.579	19989
867.71	19951
867.841	19917
867.972	20119
868.103	19913
868.233	20119
868.364	19925
868.495	19978
868.625	20229
868.756	20309
868.886	20111
869.017	20153
869.147	20294
869.278	20271
869.408	20263
869.539	20161
869.669	20355
869.799	20225
869.929	20400
870.06	20339
870.19	20552
870.32	20526
870.45	20530
870.58	20648
870.71	20708
870.84	20765
870.97	20568
871.1	20560
871.23	20792
871.36	20891
871.489	20739
871.619	20823
871.749	20792
871.879	20823
872.008	20975
872.138	20842
872.267	20838
872.397	20590
872.526	20636
872.656	20663
872.785	20629
872.915	20830
873.044	20918
873.173	20838
873.303	20891
873.432	20868
873.561	20895
873.69	20876
873.819	20918
873.948	20952
874.077	20785
874.206	20849
874.335	20838
874.464	20929
874.593	20982
874.722	21112
874.851	21108
874.979	21100
875.108	21112
875.237	21077
875.365	20921
875.494	21081
875.623	21089
875.751	21119
875.88	21116
876.008	21294
876.136	21237
876.265	21511
876.393	21679
876.521	21473
876.65	21500
876.778	21416
876.906	21386
877.034	21401
877.162	21633
877.29	21348
877.418	21443
877.546	21405
877.674	21424
877.802	21485
877.93	21389
878.058	21424
878.185	21256
878.313	21431
878.441	21454
878.568	21245
878.696	21431
878.824	21530
878.951	21477
879.079	21542
879.206	21717
879.333	21625
879.461	21450
879.588	21538
879.715	21591
879.842	21739
879.97	21492
880.097	21294
880.224	21024
880.351	21344
880.478	21180
880.605	21226
880.732	21264
880.859	21466
880.986	21230
881.112	21275
881.239	21116
881.366	20982
881.493	20883
881.619	20823
881.746	20899
881.872	20853
881.999	20792
882.125	20868
882.252	20910
882.378	20785
882.505	20963
882.631	20849
882.757	20564
882.883	20743
883.01	20545
883.136	20682
883.262	20568
883.388	20423
883.514	20609
883.64	20651
883.766	20686
883.892	20366
884.018	20415
884.143	20556
884.269	20575
884.395	20240
884.52	20278
884.646	20244
884.772	20130
884.897	20259
885.023	20317
885.148	20256
885.274	20328
885.399	20317
885.524	20275
885.65	20259
885.775	20320
885.9	20244
886.025	20404
886.15	20415
886.275	20240
886.4	20084
886.525	20103
886.65	20161
886.775	20077
886.9	20210
887.025	20480
887.149	20248
887.274	19928
887.399	19970
887.523	19913
887.648	19978
887.773	19902
887.897	20065
888.021	20027
888.146	19959
888.27	20069
888.395	20081
888.519	19879
888.643	19970
888.767	19955
888.891	19890
889.015	19750
889.139	19856
889.263	19772
889.387	19974
889.511	19947
889.635	19852
889.759	19814
889.883	19795
890.006	19791
890.13	19902
890.254	19746
890.377	19700
890.501	19567
890.624	19457
890.748	19632
890.871	19373
890.995	19312
891.118	19331
891.241	19373
891.364	19339
891.488	19449
891.611	19285
891.734	19403
891.857	19343
891.98	19407
892.103	19483
892.226	19282
892.349	19289
892.471	19107
892.594	19270
892.717	19312
892.839	19358
892.962	19240
893.085	19301
893.207	19350
893.33	19114
893.452	19164
893.575	19335
893.697	19255
893.819	19266
893.941	19499
894.064	19350
894.186	19148
894.308	19179
894.43	19369
894.552	19453
894.674	19426
894.796	19160
894.918	19373
895.04	19301
895.161	19438
895.283	19255
895.405	19183
895.526	19324
895.648	19324
895.769	19365
895.891	19327
896.012	19350
896.134	19339
896.255	19297
896.376	19301
896.498	19327
896.619	19445
896.74	19297
896.861	19514
896.982	19647
897.103	19791
897.224	19605
897.345	19552
897.466	19441
897.587	19674
897.708	19674
897.828	19586
897.949	19571
898.07	19407
898.19	19556
898.311	19559
898.431	19483
898.552	19510
898.672	19537
898.792	19643
898.913	19487
899.033	19392
899.153	19365
899.273	19232
899.393	19278
899.513	19221
899.633	19266
899.753	19202
899.873	19202
899.993	19202
900.113	19080
900.232	19240
900.352	19034
900.472	19103
900.591	18996
900.711	19088
900.83	18863
900.95	19179
901.069	19141
901.189	19053
901.308	18707
901.427	18741
901.546	18604
901.665	18779
901.784	18711
901.904	18544
902.023	18323
902.141	18171
902.26	18121
902.379	18254
902.498	18144
902.617	18102
902.735	18216
902.854	18110
902.973	18167
903.091	17931
903.21	17817
903.328	17756
903.446	17695
903.565	17684
903.683	17619
903.801	17547
903.919	17687
904.038	17539
904.156	17467
904.274	17436
904.392	17414
904.51	17341
904.627	17414
904.745	17501
904.863	17429
904.981	17113
905.098	17060
905.216	17102
905.334	16946
905.451	17045
905.569	16942
905.686	17075
905.803	17098
905.921	16885
906.038	16923
906.155	16824
906.272	16694
906.389	16767
906.506	16664
906.623	16618
906.74	16500
906.857	16470
906.974	16478
907.091	16622
907.208	16740
907.324	16615
907.441	16527
907.557	16329
907.674	16310
907.79	16188
907.907	16291
908.023	16265
908.139	16284
908.256	16105
908.372	16166
908.488	16147
908.604	15972
908.72	16010
908.836	15991
908.952	16021
909.068	16017
909.184	16017
909.3	15857
909.415	15983
909.531	15842
909.647	15656
909.762	15755
909.878	15591
909.993	15675
910.108	15572
910.224	15652
910.339	15641
910.454	15557
910.57	15507
910.685	15500
910.8	15694
910.915	15614
911.03	15466
911.145	15401
911.259	15176
911.374	15169
911.489	15214
911.604	15100
911.718	14872
911.833	14963
911.947	14914
912.062	14876
912.176	14906
912.291	14986
912.405	14944
912.519	15184
912.633	15123
912.748	14971
912.862	14937
912.976	14796
913.09	14735
913.204	14807
913.318	14815
913.431	14971
913.545	14800
913.659	14944
913.772	14788
913.886	14682
914	14587
914.113	14762
914.226	14739
914.34	14701
914.453	14568
914.566	14621
914.68	14526
914.793	14537
914.906	14374
915.019	14347
915.132	14195
915.245	14278
915.358	14355
915.47	14221
915.583	14233
915.696	14351
915.809	14503
915.921	14518
916.034	14240
916.146	14218
916.259	14084
916.371	14305
916.483	14218
916.595	14180
916.708	14065
916.82	14210
916.932	14130
917.044	14119
917.156	14024
917.268	14024
917.38	13993
917.491	13978
917.603	13925
917.715	14077
917.826	14050
917.938	13871
918.049	13807
918.161	13837
918.272	14111
918.384	13959
918.495	13864
918.606	13833
918.717	13681
918.828	13769
918.939	13708
919.05	13609
919.161	13666
919.272	13502
919.383	13575
919.494	13662
919.604	13970
919.715	13704
919.826	13609
919.936	13636
920.047	13757
920.157	13681
920.267	13837
920.378	13628
920.488	13677
920.598	13799
920.708	13925
920.818	13757
920.928	13750
921.038	13970
921.148	13894
921.258	13666
921.368	13521
921.477	13441
921.587	13422
921.697	13343
921.806	13483
921.916	13293
922.025	13042
922.134	13084
922.244	12993
922.353	13129
922.462	12890
922.571	12935
922.68	12745
922.789	12711
922.898	12616
923.007	12673
923.116	12711
923.224	12665
923.333	12673
923.442	12532
923.55	12532
923.659	12639
923.767	12639
923.876	12418
923.984	12525
924.092	12395
924.201	12502
924.309	12506
924.417	12414
924.525	12422
924.633	12319
924.741	13168
924.849	12163
924.956	12388
925.064	12178
925.172	12022
925.279	12148
925.387	12148
925.494	12152
925.602	12292
925.709	12277
925.816	12133
925.924	12144
926.031	12201
926.138	12121
926.245	12136
926.352	12091
926.459	12114
926.566	12235
926.673	12087
926.779	11920
926.886	11874
926.993	11775
927.099	11790
927.206	11661
927.312	11707
927.419	11828
927.525	11813
927.631	11737
927.737	11707
927.843	11554
927.95	11448
928.056	11638
928.162	11611
928.267	11611
928.373	12296
928.479	11634
928.585	11471
928.69	11558
928.796	11615
928.901	11452
929.007	11364
929.112	11493
929.218	11429
929.323	11379
929.428	11353
929.533	11417
929.638	11212
929.743	11231
929.848	11322
929.953	11299
930.058	11197
930.163	11045
930.267	11064
930.372	11147
930.477	10968
930.581	11227
930.685	11045
930.79	10885
930.894	10980
930.998	10869
931.103	11025
931.207	10645
931.311	10478
931.415	10538
931.519	10390
931.623	10291
