Data from test_V78500241_1262.txt Node
Date: Fri Mar 25 15:18:38 CST 2022
User: usil
Spectrometer: V785-0024
Trigger mode: 0
Integration Time (sec): 4.000000E-1
Scans to average: 1
Nonlinearity correction enabled: false
Boxcar width: 0
Storing dark spectrum: false
XAxis mode: Wavelengths
Number of Pixels in Spectrum: 1024
>>>>>Begin Spectral Data<<<<<
801.071	28101
801.214	28032
801.356	27816
801.499	27789
801.641	27481
801.783	27816
801.926	27717
802.068	27667
802.211	27545
802.353	27405
802.496	27260
802.638	27195
802.78	27283
802.923	27252
803.065	27157
803.208	27173
803.35	27344
803.492	27351
803.635	27534
803.777	27363
803.919	27477
804.061	27713
804.204	27587
804.346	27504
804.488	27264
804.63	27462
804.773	27378
804.915	27504
805.057	27564
805.199	27530
805.341	27587
805.483	27564
805.626	27564
805.768	27587
805.91	27694
806.052	27534
806.194	27515
806.336	27675
806.478	27614
806.62	27682
806.762	27705
806.904	27865
807.046	27949
807.188	27934
807.33	28067
807.472	27968
807.614	28006
807.756	28006
807.898	27880
808.04	27789
808.182	27865
808.324	27945
808.465	27987
808.607	28093
808.749	28280
808.891	28379
809.033	28329
809.174	28325
809.316	28284
809.458	28253
809.6	28249
809.741	28428
809.883	28363
810.025	28561
810.166	28592
810.308	28424
810.45	28512
810.591	28318
810.733	28440
810.875	28257
811.016	28131
811.158	28215
811.299	28382
811.441	28272
811.582	28485
811.724	28329
811.865	28169
812.007	28185
812.148	28284
812.29	28314
812.431	28443
812.573	28622
812.714	28607
812.855	28809
812.997	28801
813.138	29071
813.279	28957
813.421	28900
813.562	28721
813.703	28641
813.845	28580
813.986	28188
814.127	28097
814.268	28059
814.41	28029
814.551	27861
814.692	28162
814.833	27876
814.974	27884
815.115	28059
815.256	27781
815.397	27690
815.539	27838
815.68	27713
815.821	27629
815.962	27724
816.103	27694
816.244	27614
816.385	27397
816.526	27591
816.666	27477
816.807	27260
816.948	27344
817.089	27378
817.23	27386
817.371	27241
817.512	27207
817.653	27195
817.793	27203
817.934	27116
818.075	27222
818.216	27294
818.356	27344
818.497	27150
818.638	27195
818.778	27070
818.919	26963
819.06	27051
819.2	27043
819.341	27241
819.481	27138
819.622	27416
819.762	27580
819.903	27534
820.043	27469
820.184	27412
820.324	27363
820.465	27439
820.605	27287
820.746	27405
820.886	27135
821.026	27496
821.167	27317
821.307	27401
821.447	27195
821.588	27252
821.728	26967
821.868	26956
822.008	26629
822.149	26720
822.289	26693
822.429	26374
822.569	26438
822.709	26404
822.849	26290
822.99	26225
823.13	26210
823.27	26183
823.41	26168
823.55	26012
823.69	26214
823.83	26035
823.97	26012
824.11	25826
824.25	25868
824.389	25814
824.529	25955
824.669	25788
824.809	26077
824.949	25993
825.089	25860
825.228	25936
825.368	25803
825.508	25917
825.648	25639
825.787	25833
825.927	25708
826.067	25734
826.206	25734
826.346	25723
826.485	25742
826.625	25849
826.765	25917
826.904	25772
827.044	25533
827.183	25445
827.323	25514
827.462	25616
827.601	25392
827.741	25449
827.88	25460
828.02	25434
828.159	25384
828.298	25510
828.437	25533
828.577	25464
828.716	25605
828.855	25502
828.994	25091
829.134	25255
829.273	25266
829.412	25141
829.551	25168
829.69	25213
829.829	25228
829.968	25304
830.107	25407
830.246	25247
830.385	25232
830.524	25004
830.663	25027
830.802	24871
830.941	24760
831.08	24787
831.219	24852
831.357	24951
831.496	25080
831.635	24897
831.774	24837
831.913	24715
832.051	24658
832.19	24696
832.329	24563
832.467	24525
832.606	24494
832.744	24490
832.883	24471
833.022	24361
833.16	24559
833.299	24452
833.437	24570
833.576	24547
833.714	24547
833.852	24551
833.991	24753
834.129	24623
834.267	24597
834.406	24703
834.544	24505
834.682	24627
834.821	24635
834.959	24852
835.097	24532
835.235	24612
835.373	24528
835.511	24521
835.65	24403
835.788	24410
835.926	24251
836.064	24285
836.202	24361
836.34	24414
836.478	24525
836.615	24327
836.753	24433
836.891	24426
837.029	24369
837.167	24247
837.305	24357
837.443	24194
837.58	24232
837.718	24228
837.856	24304
837.993	24247
838.131	24209
838.269	24098
838.406	24213
838.544	23946
838.681	24038
838.819	23946
838.956	23691
839.094	23657
839.231	23726
839.369	23912
839.506	24068
839.643	24026
839.781	23699
839.918	23634
840.055	23714
840.193	23573
840.33	23497
840.467	23672
840.604	23665
840.742	23790
840.879	23547
841.016	23627
841.153	23596
841.29	23634
841.427	23630
841.564	23687
841.701	23581
841.838	23562
841.975	23535
842.112	23512
842.249	23509
842.385	23395
842.522	23516
842.659	23467
842.796	23448
842.933	23269
843.069	23356
843.206	23330
843.343	23448
843.479	23372
843.616	23395
843.752	23162
843.889	23113
844.025	23326
844.162	23094
844.298	23341
844.435	23166
844.571	23113
844.708	23220
844.844	23307
844.98	23433
845.117	23296
845.253	23105
845.389	22972
845.525	23022
845.661	23037
845.798	22866
845.934	22889
846.07	22679
846.206	22991
846.342	23018
846.478	22850
846.614	22630
846.75	22527
846.886	22493
847.022	22698
847.158	22542
847.294	22626
847.429	22721
847.565	22584
847.701	22866
847.837	22466
847.972	22234
848.108	22519
848.244	22382
848.379	22261
848.515	22360
848.65	22246
848.786	22344
848.921	22070
849.057	22318
849.192	22367
849.328	22246
849.463	22128
849.598	22242
849.734	22067
849.869	22025
850.004	22086
850.14	21949
850.275	21869
850.41	21945
850.545	21892
850.68	21922
850.815	21930
850.95	22055
851.085	22188
851.22	22017
851.355	21960
851.49	21979
851.625	21778
851.76	22013
851.895	21846
852.03	21892
852.165	22048
852.299	21941
852.434	21975
852.569	22036
852.703	21930
852.838	22010
852.973	22101
853.107	22143
853.242	21835
853.376	21850
853.511	21629
853.645	21812
853.78	21911
853.914	21774
854.048	21789
854.183	21797
854.317	21743
854.451	21998
854.585	21934
854.72	21850
854.854	22044
854.988	21739
855.122	21770
855.256	21717
855.39	21755
855.524	21850
855.658	21846
855.792	21800
855.926	21789
856.06	21895
856.194	21850
856.327	21660
856.461	21622
856.595	21667
856.729	21770
856.862	21823
856.996	21911
857.13	21804
857.263	21888
857.397	21941
857.53	21850
857.664	21831
857.797	21804
857.931	21861
858.064	21686
858.197	22025
858.331	21778
858.464	21667
858.597	21618
858.731	21717
858.864	21778
858.997	21762
859.13	21778
859.263	21755
859.396	21816
859.529	21652
859.662	21736
859.795	21663
859.928	21720
860.061	21998
860.194	21926
860.327	21835
860.46	21846
860.592	21823
860.725	21918
860.858	21949
860.99	21667
861.123	21724
861.256	21728
861.388	21671
861.521	22382
861.653	21690
861.786	21606
861.918	21701
862.05	21633
862.183	21660
862.315	21660
862.447	21838
862.58	21720
862.712	21473
862.844	21557
862.976	21648
863.108	21538
863.24	21819
863.372	21313
863.504	21428
863.636	21428
863.768	21519
863.9	21424
864.032	21431
864.164	21447
864.296	21367
864.428	21629
864.559	21542
864.691	21507
864.823	21545
864.954	21473
865.086	21401
865.217	21462
865.349	21401
865.48	21378
865.612	21313
865.743	21572
865.875	21389
866.006	21389
866.137	21412
866.269	21348
866.4	21241
866.531	21340
866.662	21260
866.793	21291
866.924	21374
867.055	21428
867.186	21378
867.317	21302
867.448	21100
867.579	21294
867.71	21199
867.841	21203
867.972	21317
868.103	21245
868.233	21302
868.364	21348
868.495	21420
868.625	21435
868.756	21603
868.886	21454
869.017	21473
869.147	21549
869.278	21534
869.408	21614
869.539	21553
869.669	21682
869.799	21507
869.929	21732
870.06	21656
870.19	21778
870.32	21755
870.45	21987
870.58	21876
870.71	22116
870.84	21861
870.97	21884
871.1	21895
871.23	22150
871.36	22215
871.489	22067
871.619	22048
871.749	21975
871.879	22188
872.008	22230
872.138	22120
872.267	22013
872.397	22059
872.526	22067
872.656	21903
872.785	21926
872.915	22166
873.044	22284
873.173	22090
873.303	22120
873.432	22246
873.561	22280
873.69	22219
873.819	22147
873.948	22287
874.077	22105
874.206	22173
874.335	22131
874.464	22291
874.593	22291
874.722	22268
874.851	22367
874.979	22584
875.108	22394
875.237	22341
875.365	22287
875.494	22409
875.623	22470
875.751	22246
875.88	22398
876.008	22512
876.136	22489
876.265	22698
876.393	22889
876.521	22706
876.65	22755
876.778	22733
876.906	22790
877.034	22656
877.162	22774
877.29	22752
877.418	22721
877.546	22729
877.674	22679
877.802	22740
877.93	22767
878.058	22748
878.185	22698
878.313	22618
878.441	22622
878.568	22451
878.696	22462
878.824	22774
878.951	22691
879.079	22968
879.206	22908
879.333	22881
879.461	22721
879.588	22740
879.715	22831
879.842	22930
879.97	22801
880.097	22565
880.224	22413
880.351	22649
880.478	22474
880.605	22485
880.732	22504
880.859	22805
880.986	22577
881.112	22550
881.239	22455
881.366	22238
881.493	22230
881.619	22120
881.746	22131
881.872	22074
881.999	22036
882.125	22101
882.252	22074
882.378	22025
882.505	22223
882.631	22082
882.757	21846
882.883	21892
883.01	21831
883.136	21831
883.262	21755
883.388	21610
883.514	21819
883.64	21800
883.766	21682
883.892	21534
884.018	21656
884.143	21686
884.269	21717
884.395	21462
884.52	21435
884.646	21500
884.772	21408
884.897	21332
885.023	21389
885.148	21435
885.274	21545
885.399	21553
885.524	21435
885.65	21485
885.775	21568
885.9	21325
886.025	21576
886.15	21583
886.275	21386
886.4	21252
886.525	21485
886.65	21401
886.775	21313
886.9	21534
887.025	21587
887.149	21443
887.274	21245
887.399	21222
887.523	21112
887.648	21135
887.773	21024
887.897	21214
888.021	21275
888.146	21142
888.27	21340
888.395	21298
888.519	21184
888.643	21127
888.767	21180
888.891	21108
889.015	20941
889.139	21017
889.263	20956
889.387	21070
889.511	21199
889.635	21077
889.759	20952
889.883	20929
890.006	21028
890.13	20982
890.254	20933
890.377	20838
890.501	20758
890.624	20689
890.748	20785
890.871	20587
890.995	20587
891.118	20366
891.241	20545
891.364	20663
891.488	20575
891.611	20606
891.734	20507
891.857	20617
891.98	20541
892.103	20613
892.226	20598
892.349	20434
892.471	20248
892.594	20408
892.717	20461
892.839	20358
892.962	20469
893.085	20434
893.207	20530
893.33	20370
893.452	20324
893.575	20587
893.697	20396
893.819	20609
893.941	20598
894.064	20457
894.186	20393
894.308	20358
894.43	20545
894.552	20659
894.674	20507
894.796	20393
894.918	20362
895.04	20473
895.161	20560
895.283	20457
895.405	20301
895.526	20465
895.648	20514
895.769	20469
895.891	20476
896.012	20575
896.134	20469
896.255	20427
896.376	20480
896.498	20438
896.619	20393
896.74	20579
896.861	20495
896.982	20651
897.103	20861
897.224	20727
897.345	20594
897.466	20613
897.587	20545
897.708	20830
897.828	20781
897.949	20689
898.07	20473
898.19	20533
898.311	20727
898.431	20518
898.552	20651
898.672	20697
898.792	20731
898.913	20724
899.033	20564
899.153	20545
899.273	20275
899.393	20374
899.513	20408
899.633	20446
899.753	20362
899.873	20339
899.993	20313
900.113	20252
900.232	20339
900.352	20404
900.472	20206
900.591	20145
900.711	20172
900.83	20145
900.95	20202
901.069	20305
901.189	20084
901.308	19849
901.427	19712
901.546	19727
901.665	19837
901.784	19784
901.904	19613
902.023	19464
902.141	19343
902.26	19274
902.379	19422
902.498	19232
902.617	19225
902.735	19221
902.854	19217
902.973	19213
903.091	18993
903.21	18871
903.328	18962
903.446	18760
903.565	18700
903.683	18631
903.801	18650
903.919	18612
904.038	18719
904.156	18475
904.274	18441
904.392	18555
904.51	18456
904.627	18486
904.745	18506
904.863	18585
904.981	18228
905.098	18178
905.216	18117
905.334	18197
905.451	18186
905.569	18133
905.686	18106
905.803	18114
905.921	17958
906.038	18068
906.155	18019
906.272	17901
906.389	17863
906.506	17821
906.623	17718
906.74	17672
906.857	17623
906.974	17627
907.091	17821
907.208	17863
907.324	17851
907.441	17558
907.557	17516
907.674	17440
907.79	17402
907.907	17368
908.023	17505
908.139	17379
908.256	17372
908.372	17421
908.488	17311
908.604	17124
908.72	17124
908.836	17250
908.952	17121
909.068	17174
909.184	17273
909.3	17162
909.415	17045
909.531	17041
909.647	16866
909.762	16801
909.878	16835
909.993	16828
910.108	16752
910.224	16869
910.339	16721
910.454	16755
910.57	16774
910.685	16664
910.8	16691
910.915	16938
911.03	16630
911.145	16531
911.259	16485
911.374	16424
911.489	16333
911.604	16223
911.718	16181
911.833	16265
911.947	16139
912.062	15937
912.176	16112
912.291	16230
912.405	16196
912.519	16337
912.633	16424
912.748	16173
912.862	16162
912.976	16078
913.09	15823
913.204	15915
913.318	16078
913.431	15987
913.545	16086
913.659	16021
913.772	15911
913.886	15819
914	15857
914.113	15797
914.226	15972
914.34	15846
914.453	15595
914.566	15774
914.68	15648
914.793	15667
914.906	15530
915.019	15389
915.132	15374
915.245	15389
915.358	15416
915.47	15355
915.583	15370
915.696	15393
915.809	15462
915.921	15473
916.034	15291
916.146	15279
916.259	15283
916.371	15355
916.483	15245
916.595	15272
916.708	15237
916.82	15203
916.932	15199
917.044	15195
917.156	15070
917.268	15062
917.38	15085
917.491	15005
917.603	14986
917.715	15001
917.826	15100
917.938	15028
918.049	14735
918.161	14918
918.272	15036
918.384	15100
918.495	14948
918.606	14781
918.717	14735
918.828	14788
918.939	14792
919.05	14724
919.161	14689
919.272	14564
919.383	14587
919.494	14670
919.604	14994
919.715	14807
919.826	14632
919.936	14682
920.047	14796
920.157	14743
920.267	14887
920.378	14739
920.488	14701
920.598	14952
920.708	14963
920.818	14842
920.928	14823
921.038	14990
921.148	14876
921.258	14636
921.368	14552
921.477	14446
921.587	14552
921.697	14290
921.806	14400
921.916	14362
922.025	14161
922.134	14130
922.244	14005
922.353	14069
922.462	14024
922.571	13917
922.68	13776
922.789	13772
922.898	13734
923.007	13696
923.116	13746
923.224	13731
923.333	13723
923.442	13658
923.55	13586
923.659	13537
923.767	13582
923.876	13544
923.984	13491
924.092	13453
924.201	13384
924.309	13430
924.417	13495
924.525	13392
924.633	13327
924.741	14233
924.849	13194
924.956	13365
925.064	13217
925.172	13053
925.279	13160
925.387	13137
925.494	13110
925.602	13240
925.709	13187
925.816	12985
925.924	13114
926.031	13187
926.138	13061
926.245	13107
926.352	13118
926.459	13084
926.566	13168
926.673	12935
926.779	12913
926.886	12814
926.993	12738
927.099	12776
927.206	12654
927.312	12719
927.419	12783
927.525	12604
927.631	12692
927.737	12540
927.843	12521
927.95	12407
928.056	12475
928.162	12490
928.267	12574
928.373	13126
928.479	12642
928.585	12361
928.69	12410
928.796	12456
928.901	12391
929.007	12175
929.112	12372
929.218	12323
929.323	12292
929.428	12205
929.533	12353
929.638	12148
929.743	12216
929.848	12254
929.953	12110
930.058	12072
930.163	11942
930.267	12022
930.372	12098
930.477	11901
930.581	12057
930.685	12022
930.79	11760
930.894	11809
930.998	11790
931.103	11859
931.207	11562
931.311	11395
931.415	11425
931.519	11216
931.623	11212
