Data from test_V78500241_591.txt Node
Date: Fri Mar 25 15:13:58 CST 2022
User: usil
Spectrometer: V785-0024
Trigger mode: 0
Integration Time (sec): 4.000000E-1
Scans to average: 1
Nonlinearity correction enabled: false
Boxcar width: 0
Storing dark spectrum: false
XAxis mode: Wavelengths
Number of Pixels in Spectrum: 1024
>>>>>Begin Spectral Data<<<<<
801.071	27523
801.214	27450
801.356	27260
801.499	27116
801.641	27077
801.783	26925
801.926	27096
802.068	26975
802.211	26952
802.353	26899
802.496	26731
802.638	26640
802.78	26594
802.923	26632
803.065	26590
803.208	26629
803.35	26682
803.492	26686
803.635	26800
803.777	26659
803.919	26826
804.061	26986
804.204	26899
804.346	26743
804.488	26788
804.63	26777
804.773	26769
804.915	26864
805.057	26891
805.199	26800
805.341	26937
805.483	26940
805.626	26960
805.768	26727
805.91	26929
806.052	27001
806.194	26834
806.336	27169
806.478	27047
806.62	26876
806.762	27070
806.904	27203
807.046	27458
807.188	27386
807.33	27317
807.472	27477
807.614	27355
807.756	27329
807.898	27237
808.04	27058
808.182	27195
808.324	27226
808.465	27264
808.607	27435
808.749	27424
808.891	27682
809.033	27755
809.174	27705
809.316	27629
809.458	27652
809.6	27488
809.741	27743
809.883	27705
810.025	27960
810.166	27854
810.308	27972
810.45	27907
810.591	27701
810.733	27682
810.875	27572
811.016	27523
811.158	27336
811.299	27610
811.441	27717
811.582	27759
811.724	27587
811.865	27504
812.007	27622
812.148	27690
812.29	27686
812.431	27705
812.573	27914
812.714	28013
812.855	28131
812.997	28196
813.138	28455
813.279	28242
813.421	28116
813.562	28116
813.703	28002
813.845	27914
813.986	27652
814.127	27416
814.268	27279
814.41	27237
814.551	27237
814.692	27332
814.833	27275
814.974	27218
815.115	27294
815.256	27108
815.397	26940
815.539	27096
815.68	27024
815.821	26944
815.962	27017
816.103	26990
816.244	26956
816.385	26720
816.526	26792
816.666	26606
816.807	26579
816.948	26636
817.089	26648
817.23	26587
817.371	26526
817.512	26609
817.653	26514
817.793	26522
817.934	26549
818.075	26587
818.216	26598
818.356	26450
818.497	26492
818.638	26153
818.778	26263
818.919	26351
819.06	26393
819.2	26400
819.341	26594
819.481	26530
819.622	26758
819.762	26849
819.903	26785
820.043	26640
820.184	26678
820.324	26708
820.465	26705
820.605	26682
820.746	26594
820.886	26568
821.026	26667
821.167	26693
821.307	26807
821.447	26431
821.588	26446
821.728	26320
821.868	26161
822.008	26119
822.149	25978
822.289	25955
822.429	25761
822.569	25548
822.709	25575
822.849	25468
822.99	25548
823.13	25434
823.27	25624
823.41	25369
823.55	25282
823.69	25346
823.83	25312
823.97	25156
824.11	25038
824.25	25183
824.389	25145
824.529	25190
824.669	25099
824.809	25232
824.949	25236
825.089	25160
825.228	25141
825.368	24962
825.508	24970
825.648	24878
825.787	25057
825.927	24996
826.067	25110
826.206	24954
826.346	25057
826.485	25129
826.625	25015
826.765	25038
826.904	25053
827.044	24776
827.183	24825
827.323	24791
827.462	24768
827.601	24783
827.741	24776
827.88	24730
828.02	24677
828.159	24776
828.298	24726
828.437	24787
828.577	24700
828.716	24810
828.855	24589
828.994	24437
829.134	24433
829.273	24574
829.412	24452
829.551	24384
829.69	24437
829.829	24460
829.968	24505
830.107	24551
830.246	24540
830.385	24353
830.524	24407
830.663	24292
830.802	24243
830.941	24140
831.08	24018
831.219	24182
831.357	24159
831.496	24289
831.635	24053
831.774	23927
831.913	23988
832.051	23847
832.19	23840
832.329	23885
832.467	23843
832.606	23657
832.744	23657
832.883	23695
833.022	23882
833.16	23630
833.299	23779
833.437	23821
833.576	23836
833.714	23824
833.852	23817
833.991	23908
834.129	23893
834.267	23821
834.406	23889
834.544	23783
834.682	23790
834.821	23741
834.959	23935
835.097	23779
835.235	23817
835.373	23836
835.511	23790
835.65	23524
835.788	23558
835.926	23566
836.064	23402
836.202	23528
836.34	23687
836.478	23802
836.615	23676
836.753	23699
836.891	23794
837.029	23756
837.167	23668
837.305	23661
837.443	23421
837.58	23391
837.718	23528
837.856	23474
837.993	23512
838.131	23490
838.269	23322
838.406	23455
838.544	23315
838.681	23185
838.819	23098
838.956	23048
839.094	22927
839.231	22820
839.369	23048
839.506	23341
839.643	23242
839.781	22927
839.918	22953
840.055	22942
840.193	22976
840.33	22904
840.467	22862
840.604	22858
840.742	23143
840.879	22733
841.016	22938
841.153	22687
841.29	23044
841.427	22953
841.564	22934
841.701	22923
841.838	22869
841.975	22797
842.112	22790
842.249	22710
842.385	22634
842.522	22835
842.659	22550
842.796	22691
842.933	22790
843.069	22504
843.206	22637
843.343	22721
843.479	22713
843.616	22706
843.752	22508
843.889	22428
844.025	22542
844.162	22440
844.298	22466
844.435	22409
844.571	22268
844.708	22352
844.844	22588
844.98	22592
845.117	22527
845.253	22405
845.389	22112
845.525	22371
845.661	22234
845.798	22188
845.934	22234
846.07	22173
846.206	22166
846.342	22310
846.478	22067
846.614	21972
846.75	21819
846.886	21941
847.022	22067
847.158	21865
847.294	21930
847.429	22040
847.565	21899
847.701	22177
847.837	21641
847.972	21736
848.108	21778
848.244	21690
848.379	21542
848.515	21462
848.65	21389
848.786	21549
848.921	21561
849.057	21603
849.192	21526
849.328	21591
849.463	21595
849.598	21447
849.734	21370
849.869	21283
850.004	21367
850.14	21344
850.275	21306
850.41	21245
850.545	21184
850.68	21081
850.815	21321
850.95	21317
851.085	21287
851.22	21355
851.355	21272
851.49	21241
851.625	21169
851.76	21264
851.895	21173
852.03	21192
852.165	21150
852.299	21264
852.434	21226
852.569	21241
852.703	21245
852.838	21348
852.973	21355
853.107	21367
853.242	21237
853.376	21089
853.511	20952
853.645	21047
853.78	21184
853.914	21150
854.048	21017
854.183	21074
854.317	21055
854.451	21291
854.585	21142
854.72	21089
854.854	21230
854.988	20990
855.122	21051
855.256	20952
855.39	21051
855.524	21165
855.658	21123
855.792	21055
855.926	21047
856.06	21074
856.194	21207
856.327	21036
856.461	20952
856.595	21039
856.729	21199
856.862	21199
856.996	21150
857.13	21146
857.263	21146
857.397	21161
857.53	21123
857.664	21077
857.797	21195
857.931	21188
858.064	21100
858.197	21169
858.331	21104
858.464	21009
858.597	20937
858.731	20979
858.864	21005
858.997	20982
859.13	20986
859.263	21119
859.396	21142
859.529	21039
859.662	21020
859.795	20963
859.928	21089
860.061	21123
860.194	21169
860.327	21131
860.46	21081
860.592	21150
860.725	21131
860.858	21176
860.99	21047
861.123	21085
861.256	21001
861.388	21032
861.521	21857
861.653	20906
861.786	20868
861.918	21036
862.05	20933
862.183	21013
862.315	20979
862.447	21058
862.58	21024
862.712	20796
862.844	20724
862.976	20853
863.108	20861
863.24	21173
863.372	20765
863.504	20876
863.636	20788
863.768	20765
863.9	20845
864.032	20720
864.164	20853
864.296	20804
864.428	20872
864.559	20754
864.691	20910
864.823	20804
864.954	20697
865.086	20792
865.217	20731
865.349	20651
865.48	20609
865.612	20781
865.743	20857
865.875	20682
866.006	20484
866.137	20746
866.269	20811
866.4	20697
866.531	20689
866.662	20564
866.793	20556
866.924	20655
867.055	20629
867.186	20583
867.317	20617
867.448	20545
867.579	20674
867.71	20480
867.841	20518
867.972	20693
868.103	20697
868.233	20590
868.364	20583
868.495	20705
868.625	20883
868.756	20872
868.886	20838
869.017	20895
869.147	20933
869.278	20982
869.408	20937
869.539	20887
869.669	20941
869.799	20883
869.929	20998
870.06	20952
870.19	21211
870.32	21154
870.45	21192
870.58	21203
870.71	21340
870.84	21291
870.97	21260
871.1	21359
871.23	21420
871.36	21447
871.489	21329
871.619	21325
871.749	21378
871.879	21557
872.008	21477
872.138	21389
872.267	21367
872.397	21268
872.526	21283
872.656	21116
872.785	21272
872.915	21458
873.044	21656
873.173	21405
873.303	21576
873.432	21557
873.561	21545
873.69	21595
873.819	21469
873.948	21466
874.077	21431
874.206	21473
874.335	21519
874.464	21667
874.593	21690
874.722	21644
874.851	21766
874.979	21751
875.108	21709
875.237	21709
875.365	21603
875.494	21641
875.623	21717
875.751	21614
875.88	21698
876.008	21751
876.136	21922
876.265	22086
876.393	22265
876.521	22162
876.65	22154
876.778	22036
876.906	22040
877.034	21983
877.162	22051
877.29	22116
877.418	22124
877.546	22029
877.674	22002
877.802	21956
877.93	22090
878.058	22048
878.185	21934
878.313	21964
878.441	22055
878.568	21880
878.696	21892
878.824	22147
878.951	22158
879.079	22207
879.206	22436
879.333	22242
879.461	22067
879.588	22226
879.715	22238
879.842	22223
879.97	22124
880.097	21842
880.224	22021
880.351	21941
880.478	21884
880.605	21895
880.732	21838
880.859	22029
880.986	21911
881.112	21899
881.239	21789
881.366	21682
881.493	21564
881.619	21477
881.746	21485
881.872	21496
881.999	21420
882.125	21359
882.252	21488
882.378	21397
882.505	21614
882.631	21336
882.757	21192
882.883	21237
883.01	21283
883.136	21138
883.262	21066
883.388	20963
883.514	21157
883.64	21138
883.766	21005
883.892	20868
884.018	21013
884.143	21123
884.269	21157
884.395	20918
884.52	20792
884.646	20883
884.772	20785
884.897	20655
885.023	20868
885.148	20982
885.274	21123
885.399	20937
885.524	20815
885.65	20792
885.775	20743
885.9	20769
886.025	20864
886.15	20826
886.275	20777
886.4	20686
886.525	20754
886.65	20678
886.775	20655
886.9	20769
887.025	21005
887.149	20807
887.274	20598
887.399	20526
887.523	20579
887.648	20476
887.773	20412
887.897	20674
888.021	20655
888.146	20499
888.27	20682
888.395	20663
888.519	20594
888.643	20594
888.767	20648
888.891	20514
889.015	20389
889.139	20446
889.263	20324
889.387	20606
889.511	20552
889.635	20427
889.759	20320
889.883	20370
890.006	20385
890.13	20507
890.254	20237
890.377	20275
890.501	20138
890.624	20271
890.748	20244
890.871	20005
890.995	19890
891.118	19776
891.241	19849
891.364	19887
891.488	20012
891.611	19936
891.734	19921
891.857	20016
891.98	19833
892.103	19860
892.226	19925
892.349	19871
892.471	19772
892.594	19864
892.717	19845
892.839	19890
892.962	19849
893.085	19974
893.207	19814
893.33	19696
893.452	19799
893.575	19974
893.697	19811
893.819	19871
893.941	20065
894.064	19989
894.186	19769
894.308	19826
894.43	19963
894.552	19970
894.674	19959
894.796	19807
894.918	19837
895.04	19776
895.161	19978
895.283	19818
895.405	19746
895.526	19913
895.648	19799
895.769	19841
895.891	19807
896.012	19822
896.134	19837
896.255	19799
896.376	19849
896.498	19807
896.619	19864
896.74	19925
896.861	19909
896.982	20077
897.103	20332
897.224	20073
897.345	20077
897.466	19982
897.587	20092
897.708	20180
897.828	19997
897.949	20020
898.07	19951
898.19	19955
898.311	20115
898.431	19989
898.552	20088
898.672	20107
898.792	20088
898.913	20069
899.033	20001
899.153	19860
899.273	19753
899.393	19769
899.513	19765
899.633	19860
899.753	19814
899.873	19769
899.993	19826
900.113	19765
900.232	19818
900.352	19769
900.472	19670
900.591	19464
900.711	19613
900.83	19639
900.95	19685
901.069	19658
901.189	19518
901.308	19266
901.427	19228
901.546	19202
901.665	19225
901.784	19228
901.904	19015
902.023	18939
902.141	18768
902.26	18722
902.379	18859
902.498	18677
902.617	18700
902.735	18726
902.854	18627
902.973	18540
903.091	18365
903.21	18433
903.328	18429
903.446	18270
903.565	18213
903.683	18174
903.801	17984
903.919	18201
904.038	18159
904.156	18003
904.274	18076
904.392	17973
904.51	17935
904.627	17939
904.745	18019
904.863	17931
904.981	17680
905.098	17805
905.216	17752
905.334	17649
905.451	17710
905.569	17619
905.686	17642
905.803	17665
905.921	17417
906.038	17501
906.155	17452
906.272	17364
906.389	17239
906.506	17239
906.623	17128
906.74	17124
906.857	17029
906.974	17185
907.091	17250
907.208	17284
907.324	17258
907.441	16984
907.557	16885
907.674	16892
907.79	16896
907.907	16831
908.023	16934
908.139	16820
908.256	16706
908.372	16839
908.488	16694
908.604	16687
908.72	16573
908.836	16645
908.952	16668
909.068	16664
909.184	16656
909.3	16588
909.415	16618
909.531	16599
909.647	16386
909.762	16215
909.878	16265
909.993	16356
910.108	16318
910.224	16188
910.339	16234
910.454	16200
910.57	16116
910.685	16067
910.8	16344
910.915	16265
911.03	16086
911.145	15956
911.259	15911
911.374	15979
911.489	15793
911.604	15827
911.718	15652
911.833	15648
911.947	15610
912.062	15496
912.176	15610
912.291	15675
912.405	15629
912.519	15876
912.633	15888
912.748	15656
912.862	15667
912.976	15473
913.09	15367
913.204	15397
913.318	15507
913.431	15690
913.545	15568
913.659	15564
913.772	15435
913.886	15233
914	15233
914.113	15332
914.226	15420
914.34	15351
914.453	15211
914.566	15325
914.68	15161
914.793	15024
914.906	14963
915.019	14902
915.132	14861
915.245	14845
915.358	14971
915.47	14967
915.583	14895
915.696	14918
915.809	15039
915.921	15036
916.034	14807
916.146	14781
916.259	14807
916.371	14861
916.483	14777
916.595	14838
916.708	14693
916.82	14758
916.932	14689
917.044	14682
917.156	14571
917.268	14655
917.38	14598
917.491	14545
917.603	14522
917.715	14598
917.826	14686
917.938	14457
918.049	14385
918.161	14575
918.272	14667
918.384	14629
918.495	14408
918.606	14465
918.717	14320
918.828	14355
918.939	14396
919.05	14267
919.161	14294
919.272	14115
919.383	14153
919.494	14305
919.604	14488
919.715	14313
919.826	14324
919.936	14309
920.047	14290
920.157	14366
920.267	14533
920.378	14374
920.488	14256
920.598	14423
920.708	14621
920.818	14507
920.928	14396
921.038	14648
921.148	14457
921.258	14263
921.368	14138
921.477	14123
921.587	14043
921.697	13925
921.806	14005
921.916	13890
922.025	13727
922.134	13708
922.244	13655
922.353	13643
922.462	13594
922.571	13506
922.68	13312
922.789	13419
922.898	13324
923.007	13251
923.116	13339
923.224	13289
923.333	13301
923.442	13190
923.55	13141
923.659	13171
923.767	13244
923.876	13008
923.984	13114
924.092	13118
924.201	13103
924.309	13065
924.417	13103
924.525	12989
924.633	12951
924.741	13807
924.849	12871
924.956	12954
925.064	12795
925.172	12734
925.279	12745
925.387	12719
925.494	12768
925.602	12829
925.709	12810
925.816	12650
925.924	12547
926.031	12806
926.138	12749
926.245	12741
926.352	12525
926.459	12810
926.566	12787
926.673	12635
926.779	12521
926.886	12525
926.993	12426
927.099	12429
927.206	12304
927.312	12380
927.419	12391
927.525	12315
927.631	12399
927.737	12266
927.843	12110
927.95	12095
928.056	12072
928.162	12182
928.267	12159
928.373	12730
928.479	12224
928.585	12045
928.69	12098
928.796	12186
928.901	11984
929.007	11878
929.112	12102
929.218	11954
929.323	11977
929.428	11912
929.533	12030
929.638	11710
929.743	11828
929.848	11878
929.953	11828
930.058	11714
930.163	11543
930.267	11577
930.372	11714
930.477	11562
930.581	11775
930.685	11596
930.79	11493
930.894	11459
930.998	11490
931.103	11558
931.207	11254
931.311	11189
931.415	11056
931.519	10816
931.623	10873
