Data from test_V78500241_2958.txt Node
Date: Fri Mar 25 15:30:27 CST 2022
User: usil
Spectrometer: V785-0024
Trigger mode: 0
Integration Time (sec): 4.000000E-1
Scans to average: 1
Nonlinearity correction enabled: false
Boxcar width: 0
Storing dark spectrum: false
XAxis mode: Wavelengths
Number of Pixels in Spectrum: 1024
>>>>>Begin Spectral Data<<<<<
801.071	27169
801.214	27184
801.356	26849
801.499	26826
801.641	26758
801.783	26663
801.926	26701
802.068	26781
802.211	26522
802.353	26545
802.496	26309
802.638	26278
802.78	26408
802.923	26225
803.065	25986
803.208	26062
803.35	26240
803.492	26393
803.635	26518
803.777	26339
803.919	26419
804.061	26659
804.204	26579
804.346	26511
804.488	26328
804.63	26552
804.773	26343
804.915	26484
805.057	26453
805.199	26480
805.341	26431
805.483	26678
805.626	26568
805.768	26434
805.91	26606
806.052	26613
806.194	26469
806.336	26705
806.478	26453
806.62	26545
806.762	26537
806.904	26705
807.046	26979
807.188	26994
807.33	26948
807.472	26914
807.614	26998
807.756	26891
807.898	26880
808.04	26792
808.182	26811
808.324	26792
808.465	26914
808.607	27020
808.749	27176
808.891	27222
809.033	27272
809.174	27116
809.316	27142
809.458	27119
809.6	27051
809.741	27066
809.883	27214
810.025	27397
810.166	27458
810.308	27435
810.45	27351
810.591	27336
810.733	27199
810.875	27066
811.016	27112
811.158	27089
811.299	27272
811.441	27298
811.582	27359
811.724	27123
811.865	26960
812.007	26937
812.148	27028
812.29	27264
812.431	27279
812.573	27496
812.714	27523
812.855	27652
812.997	27686
813.138	27956
813.279	27762
813.421	27610
813.562	27538
813.703	27374
813.845	27336
813.986	26891
814.127	26845
814.268	26777
814.41	26842
814.551	26705
814.692	26765
814.833	26724
814.974	26773
815.115	26845
815.256	26670
815.397	26720
815.539	26663
815.68	26522
815.821	26537
815.962	26609
816.103	26488
816.244	26355
816.385	26465
816.526	26301
816.666	26119
816.807	25974
816.948	26149
817.089	26054
817.23	26050
817.371	26172
817.512	26172
817.653	25974
817.793	25917
817.934	26046
818.075	25940
818.216	26103
818.356	25997
818.497	25887
818.638	25753
818.778	25742
818.919	25807
819.06	25887
819.2	25906
819.341	26024
819.481	25970
819.622	26164
819.762	26305
819.903	26301
820.043	26202
820.184	26111
820.324	26111
820.465	26195
820.605	26050
820.746	26168
820.886	25959
821.026	26119
821.167	26027
821.307	26149
821.447	26096
821.588	25894
821.728	25769
821.868	25670
822.008	25441
822.149	25506
822.289	25369
822.429	25297
822.569	25198
822.709	25110
822.849	24992
822.99	24977
823.13	24905
823.27	24920
823.41	24745
823.55	24646
823.69	24882
823.83	24890
823.97	24669
824.11	24623
824.25	24460
824.389	24555
824.529	24696
824.669	24700
824.809	24601
824.949	24722
825.089	24635
825.228	24764
825.368	24445
825.508	24445
825.648	24395
825.787	24479
825.927	24582
826.067	24437
826.206	24445
826.346	24494
826.485	24502
826.625	24559
826.765	24517
826.904	24544
827.044	24304
827.183	24266
827.323	24239
827.462	24346
827.601	24171
827.741	24133
827.88	24239
828.02	24060
828.159	24095
828.298	24224
828.437	24182
828.577	24121
828.716	24216
828.855	24102
828.994	23996
829.134	23992
829.273	23958
829.412	23916
829.551	23817
829.69	23851
829.829	23882
829.968	23980
830.107	23946
830.246	23817
830.385	23824
830.524	23775
830.663	23699
830.802	23748
830.941	23539
831.08	23543
831.219	23535
831.357	23653
831.496	23745
831.635	23501
831.774	23520
831.913	23288
832.051	23360
832.19	23220
832.329	23341
832.467	23200
832.606	23124
832.744	23052
832.883	23273
833.022	23048
833.16	23178
833.299	23143
833.437	23132
833.576	23269
833.714	23136
833.852	23208
833.991	23280
834.129	23250
834.267	23398
834.406	23216
834.544	23303
834.682	23303
834.821	23041
834.959	23341
835.097	23159
835.235	23288
835.373	23231
835.511	23246
835.65	23151
835.788	23006
835.926	22953
836.064	22908
836.202	22953
836.34	23029
836.478	23235
836.615	23071
836.753	22976
836.891	23147
837.029	22965
837.167	22995
837.305	22828
837.443	22942
837.58	22934
837.718	23025
837.856	22892
837.993	22889
838.131	22858
838.269	22820
838.406	22812
838.544	22729
838.681	22500
838.819	22527
838.956	22375
839.094	22234
839.231	22333
839.369	22557
839.506	22862
839.643	22687
839.781	22363
839.918	22268
840.055	22284
840.193	22386
840.33	22360
840.467	22489
840.604	22371
840.742	22615
840.879	22223
841.016	22287
841.153	22128
841.29	22386
841.427	22223
841.564	22207
841.701	22386
841.838	22166
841.975	22230
842.112	22253
842.249	22173
842.385	22196
842.522	22341
842.659	22166
842.796	22044
842.933	22131
843.069	22105
843.206	22006
843.343	22010
843.479	22051
843.616	22044
843.752	21857
843.889	21747
844.025	22032
844.162	21713
844.298	21983
844.435	21922
844.571	21800
844.708	21899
844.844	22067
844.98	21979
845.117	22017
845.253	21709
845.389	21686
845.525	21747
845.661	21675
845.798	21496
845.934	21675
846.07	21553
846.206	21549
846.342	21728
846.478	21500
846.614	21458
846.75	21382
846.886	21226
847.022	21382
847.158	21344
847.294	21317
847.429	21382
847.565	21340
847.701	21526
847.837	20971
847.972	21028
848.108	21036
848.244	21047
848.379	20933
848.515	20960
848.65	20944
848.786	20899
848.921	20834
849.057	21020
849.192	20998
849.328	20990
849.463	20921
849.598	20921
849.734	20819
849.869	20849
850.004	20590
850.14	20769
850.275	20781
850.41	20625
850.545	20606
850.68	20587
850.815	20568
850.95	20716
851.085	20838
851.22	20792
851.355	20617
851.49	20708
851.625	20739
851.76	20651
851.895	20651
852.03	20556
852.165	20613
852.299	20769
852.434	20739
852.569	20769
852.703	20716
852.838	20838
852.973	20765
853.107	20697
853.242	20590
853.376	20640
853.511	20355
853.645	20488
853.78	20473
853.914	20427
854.048	20507
854.183	20415
854.317	20590
854.451	20613
854.585	20427
854.72	20488
854.854	20579
854.988	20419
855.122	20545
855.256	20298
855.39	20579
855.524	20583
855.658	20469
855.792	20495
855.926	20484
856.06	20495
856.194	20541
856.327	20484
856.461	20454
856.595	20530
856.729	20503
856.862	20598
856.996	20469
857.13	20530
857.263	20575
857.397	20587
857.53	20461
857.664	20473
857.797	20598
857.931	20579
858.064	20412
858.197	20609
858.331	20575
858.464	20358
858.597	20252
858.731	20469
858.864	20366
858.997	20568
859.13	20518
859.263	20552
859.396	20549
859.529	20415
859.662	20412
859.795	20457
859.928	20526
860.061	20602
860.194	20762
860.327	20598
860.46	20537
860.592	20571
860.725	20678
860.858	20617
860.99	20575
861.123	20431
861.256	20530
861.388	20503
861.521	21074
861.653	20290
861.786	20332
861.918	20244
862.05	20317
862.183	20339
862.315	20434
862.447	20488
862.58	20495
862.712	20218
862.844	20122
862.976	20301
863.108	20267
863.24	20720
863.372	20153
863.504	20195
863.636	20195
863.768	20134
863.9	20206
864.032	20119
864.164	20103
864.296	20218
864.428	20240
864.559	20286
864.691	20301
864.823	20161
864.954	20210
865.086	20176
865.217	20172
865.349	20020
865.48	20157
865.612	20043
865.743	20225
865.875	20157
866.006	20073
866.137	20058
866.269	20081
866.4	20195
866.531	20008
866.662	20020
866.793	20119
866.924	19967
867.055	20046
867.186	20077
867.317	20065
867.448	20024
867.579	19921
867.71	20016
867.841	20054
867.972	20005
868.103	20164
868.233	20016
868.364	20134
868.495	20138
868.625	20362
868.756	20431
868.886	20096
869.017	20313
869.147	20431
869.278	20324
869.408	20393
869.539	20305
869.669	20400
869.799	20336
869.929	20362
870.06	20374
870.19	20587
870.32	20651
870.45	20693
870.58	20823
870.71	20750
870.84	20701
870.97	20746
871.1	20590
871.23	20895
871.36	20914
871.489	20811
871.619	20929
871.749	20891
871.879	20853
872.008	21062
872.138	20765
872.267	20864
872.397	20788
872.526	20682
872.656	20727
872.785	20648
872.915	21032
873.044	20990
873.173	20921
873.303	20963
873.432	20914
873.561	20979
873.69	20948
873.819	20948
873.948	20971
874.077	20960
874.206	20906
874.335	20925
874.464	21009
874.593	21249
874.722	21085
874.851	21085
874.979	21294
875.108	21222
875.237	21226
875.365	21081
875.494	21176
875.623	21340
875.751	21176
875.88	21230
876.008	21291
876.136	21340
876.265	21496
876.393	21625
876.521	21625
876.65	21671
876.778	21568
876.906	21511
877.034	21420
877.162	21393
877.29	21507
877.418	21610
877.546	21568
877.674	21549
877.802	21637
877.93	21507
878.058	21363
878.185	21496
878.313	21542
878.441	21435
878.568	21420
878.696	21428
878.824	21492
878.951	21587
879.079	21671
879.206	21930
879.333	21652
879.461	21431
879.588	21606
879.715	21682
879.842	21785
879.97	21576
880.097	21256
880.224	21310
880.351	21401
880.478	21382
880.605	21321
880.732	21439
880.859	21720
880.986	21374
881.112	21310
881.239	21233
881.366	21077
881.493	20979
881.619	20982
881.746	20956
881.872	20979
881.999	20941
882.125	20800
882.252	21017
882.378	20918
882.505	20933
882.631	20743
882.757	20575
882.883	20804
883.01	20629
883.136	20530
883.262	20469
883.388	20514
883.514	20609
883.64	20712
883.766	20503
883.892	20412
884.018	20305
884.143	20621
884.269	20667
884.395	20526
884.52	20252
884.646	20248
884.772	20290
884.897	20305
885.023	20294
885.148	20355
885.274	20431
885.399	20374
885.524	20259
885.65	20339
885.775	20282
885.9	20237
886.025	20347
886.15	20252
886.275	20176
886.4	20244
886.525	20252
886.65	20130
886.775	20225
886.9	20298
887.025	20454
887.149	20180
887.274	20233
887.399	20054
887.523	20107
887.648	20088
887.773	20039
887.897	20081
888.021	20134
888.146	20096
888.27	20096
888.395	20195
888.519	20005
888.643	20092
888.767	20210
888.891	19936
889.015	19902
889.139	20016
889.263	19864
889.387	20065
889.511	20008
889.635	20050
889.759	19928
889.883	19845
890.006	19841
890.13	19909
890.254	19833
890.377	19784
890.501	19674
890.624	19601
890.748	19689
890.871	19556
890.995	19571
891.118	19415
891.241	19457
891.364	19491
891.488	19502
891.611	19533
891.734	19476
891.857	19343
891.98	19419
892.103	19575
892.226	19487
892.349	19518
892.471	19297
892.594	19487
892.717	19438
892.839	19358
892.962	19381
893.085	19487
893.207	19228
893.33	19324
893.452	19206
893.575	19392
893.697	19396
893.819	19472
893.941	19499
894.064	19441
894.186	19301
894.308	19266
894.43	19499
894.552	19506
894.674	19411
894.796	19354
894.918	19415
895.04	19354
895.161	19400
895.283	19499
895.405	19358
895.526	19365
895.648	19396
895.769	19304
895.891	19346
896.012	19449
896.134	19415
896.255	19327
896.376	19365
896.498	19411
896.619	19441
896.74	19297
896.861	19403
896.982	19746
897.103	19826
897.224	19734
897.345	19491
897.466	19510
897.587	19635
897.708	19746
897.828	19670
897.949	19575
898.07	19438
898.19	19521
898.311	19670
898.431	19563
898.552	19487
898.672	19658
898.792	19662
898.913	19586
899.033	19571
899.153	19438
899.273	19293
899.393	19251
899.513	19297
899.633	19362
899.753	19449
899.873	19285
899.993	19472
900.113	19304
900.232	19403
900.352	19392
900.472	19358
900.591	19042
900.711	19198
900.83	19107
900.95	19293
901.069	19221
901.189	19141
901.308	18875
901.427	18749
901.546	18791
901.665	18798
901.784	18734
901.904	18597
902.023	18574
902.141	18353
902.26	18361
902.379	18323
902.498	18296
902.617	18205
902.735	18353
902.854	18300
902.973	18220
903.091	17969
903.21	17984
903.328	17946
903.446	17893
903.565	17771
903.683	17843
903.801	17573
903.919	17718
904.038	17752
904.156	17562
904.274	17668
904.392	17562
904.51	17516
904.627	17478
904.745	17562
904.863	17589
904.981	17242
905.098	17261
905.216	17220
905.334	17337
905.451	17360
905.569	17246
905.686	17254
905.803	17212
905.921	16953
906.038	17124
906.155	17003
906.272	16961
906.389	17041
906.506	16839
906.623	16752
906.74	16698
906.857	16679
906.974	16717
907.091	16824
907.208	16957
907.324	16752
907.441	16691
907.557	16538
907.674	16451
907.79	16440
907.907	16512
908.023	16481
908.139	16485
908.256	16443
908.372	16459
908.488	16333
908.604	16215
908.72	16280
908.836	16207
908.952	16192
909.068	16246
909.184	16303
909.3	16280
909.415	16287
909.531	16162
909.647	15949
909.762	15888
909.878	15804
909.993	15888
910.108	15850
910.224	15850
910.339	15797
910.454	15816
910.57	15755
910.685	15633
910.8	15987
910.915	15770
911.03	15759
911.145	15515
911.259	15587
911.374	15431
911.489	15359
911.604	15416
911.718	15249
911.833	15370
911.947	15154
912.062	15222
912.176	15340
912.291	15310
912.405	15321
912.519	15462
912.633	15401
912.748	15283
912.862	15382
912.976	15058
913.09	15028
913.204	15055
913.318	15131
913.431	15279
913.545	15279
913.659	15203
913.772	15043
913.886	14834
914	14906
914.113	14960
914.226	15089
914.34	14944
914.453	14823
914.566	14914
914.68	14845
914.793	14781
914.906	14689
915.019	14549
915.132	14518
915.245	14522
915.358	14636
915.47	14655
915.583	14526
915.696	14564
915.809	14602
915.921	14731
916.034	14545
916.146	14480
916.259	14465
916.371	14610
916.483	14568
916.595	14343
916.708	14385
916.82	14419
916.932	14343
917.044	14275
917.156	14438
917.268	14221
917.38	14275
917.491	14221
917.603	14309
917.715	14294
917.826	14347
917.938	14199
918.049	14161
918.161	14168
918.272	14336
918.384	14290
918.495	14218
918.606	14027
918.717	14024
918.828	13940
918.939	13986
919.05	13928
919.161	14020
919.272	13742
919.383	13928
919.494	14073
919.604	14244
919.715	14005
919.826	13860
919.936	13932
920.047	14058
920.157	14031
920.267	14214
920.378	13989
920.488	13906
920.598	14221
920.708	14275
920.818	14187
920.928	14161
921.038	14298
921.148	14191
921.258	13947
921.368	13826
921.477	13776
921.587	13734
921.697	13639
921.806	13780
921.916	13696
922.025	13468
922.134	13480
922.244	13422
922.353	13339
922.462	13297
922.571	13232
922.68	13057
922.789	13084
922.898	12996
923.007	13031
923.116	13065
923.224	13069
923.333	13008
923.442	12829
923.55	12882
923.659	12939
923.767	13065
923.876	12844
923.984	12859
924.092	12768
924.201	12791
924.309	12741
924.417	12760
924.525	12665
924.633	12776
924.741	13529
924.849	12532
924.956	12662
925.064	12502
925.172	12479
925.279	12494
925.387	12494
925.494	12441
925.602	12597
925.709	12616
925.816	12304
925.924	12399
926.031	12528
926.138	12509
926.245	12536
926.352	12327
926.459	12452
926.566	12483
926.673	12372
926.779	12273
926.886	12266
926.993	12114
927.099	12057
927.206	12034
927.312	12022
927.419	12083
927.525	12076
927.631	12133
927.737	11992
927.843	11824
927.95	11805
928.056	11851
928.162	12045
928.267	12022
928.373	12521
928.479	11996
928.585	11733
928.69	11794
928.796	11908
928.901	11726
929.007	11707
929.112	11771
929.218	11703
929.323	11695
929.428	11627
929.533	11699
929.638	11573
929.743	11589
929.848	11604
929.953	11573
930.058	11516
930.163	11315
930.267	11349
930.372	11425
930.477	11296
930.581	11600
930.685	11356
930.79	11273
930.894	11296
930.998	11121
931.103	11277
931.207	10923
931.311	10927
931.415	10831
931.519	10755
931.623	10584
