Data from test_V78500241_793.txt Node
Date: Fri Mar 25 15:15:22 CST 2022
User: usil
Spectrometer: V785-0024
Trigger mode: 0
Integration Time (sec): 4.000000E-1
Scans to average: 1
Nonlinearity correction enabled: false
Boxcar width: 0
Storing dark spectrum: false
XAxis mode: Wavelengths
Number of Pixels in Spectrum: 1024
>>>>>Begin Spectral Data<<<<<
801.071	28394
801.214	28344
801.356	28017
801.499	27972
801.641	28090
801.783	27975
801.926	27888
802.068	27914
802.211	27880
802.353	27717
802.496	27523
802.638	27652
802.78	27580
802.923	27507
803.065	27462
803.208	27568
803.35	27564
803.492	27625
803.635	27701
803.777	27622
803.919	27747
804.061	28086
804.204	27736
804.346	27709
804.488	27671
804.63	27682
804.773	27576
804.915	27751
805.057	28013
805.199	27720
805.341	27949
805.483	27911
805.626	27994
805.768	27785
805.91	27922
806.052	28021
806.194	27625
806.336	28067
806.478	27960
806.62	27972
806.762	28166
806.904	28093
807.046	28390
807.188	28253
807.33	28398
807.472	28371
807.614	28272
807.756	28341
807.898	28173
808.04	28196
808.182	28181
808.324	28143
808.465	28287
808.607	28386
808.749	28546
808.891	28656
809.033	28611
809.174	28573
809.316	28675
809.458	28546
809.6	28512
809.741	28622
809.883	28664
810.025	28858
810.166	28923
810.308	28755
810.45	28873
810.591	28637
810.733	28645
810.875	28599
811.016	28618
811.158	28409
811.299	28824
811.441	28854
811.582	28892
811.724	28542
811.865	28573
812.007	28523
812.148	28546
812.29	28733
812.431	28843
812.573	29029
812.714	28934
812.855	29090
812.997	29265
813.138	29227
813.279	29200
813.421	29086
813.562	29315
813.703	28866
813.845	29064
813.986	28641
814.127	28352
814.268	28352
814.41	28230
814.551	28238
814.692	28459
814.833	28238
814.974	28272
815.115	28386
815.256	28185
815.397	28166
815.539	28124
815.68	28192
815.821	28101
815.962	28097
816.103	28109
816.244	28044
816.385	27907
816.526	27994
816.666	27728
816.807	27637
816.948	27656
817.089	27755
817.23	27648
817.371	27530
817.512	27583
817.653	27652
817.793	27595
817.934	27713
818.075	27671
818.216	27728
818.356	27652
818.497	27450
818.638	27340
818.778	27458
818.919	27363
819.06	27420
819.2	27507
819.341	27660
819.481	27542
819.622	27766
819.762	27842
819.903	27937
820.043	27816
820.184	27641
820.324	27675
820.465	27736
820.605	27736
820.746	27774
820.886	27641
821.026	27629
821.167	27679
821.307	27679
821.447	27633
821.588	27382
821.728	27416
821.868	27222
822.008	26971
822.149	27096
822.289	27039
822.429	26842
822.569	26834
822.709	26861
822.849	26625
822.99	26655
823.13	26499
823.27	26473
823.41	26385
823.55	26275
823.69	26457
823.83	26415
823.97	26362
824.11	26324
824.25	26107
824.389	26191
824.529	26240
824.669	26347
824.809	26324
824.949	26355
825.089	26343
825.228	26187
825.368	26092
825.508	26206
825.648	26062
825.787	26050
825.927	26267
826.067	25993
826.206	26214
826.346	26134
826.485	26043
826.625	26081
826.765	26229
826.904	26043
827.044	25845
827.183	25909
827.323	25788
827.462	25856
827.601	25883
827.741	25788
827.88	25852
828.02	25723
828.159	25871
828.298	25898
828.437	25818
828.577	25845
828.716	25932
828.855	25734
828.994	25552
829.134	25529
829.273	25616
829.412	25483
829.551	25392
829.69	25559
829.829	25483
829.968	25559
830.107	25514
830.246	25521
830.385	25430
830.524	25521
830.663	25350
830.802	25270
830.941	25198
831.08	25190
831.219	25072
831.357	25274
831.496	25460
831.635	25122
831.774	25061
831.913	25042
832.051	24992
832.19	24863
832.329	24905
832.467	24875
832.606	24631
832.744	24795
832.883	24840
833.022	24757
833.16	24757
833.299	24920
833.437	24909
833.576	24859
833.714	25015
833.852	24905
833.991	24894
834.129	24894
834.267	24970
834.406	24920
834.544	24913
834.682	24852
834.821	24867
834.959	25038
835.097	24924
835.235	24913
835.373	24692
835.511	24833
835.65	24688
835.788	24783
835.926	24559
836.064	24414
836.202	24559
836.34	24604
836.478	24719
836.615	24509
836.753	24753
836.891	24795
837.029	24753
837.167	24745
837.305	24730
837.443	24612
837.58	24544
837.718	24547
837.856	24517
837.993	24426
838.131	24490
838.269	24376
838.406	24342
838.544	24262
838.681	24159
838.819	24194
838.956	24022
839.094	23950
839.231	24087
839.369	24281
839.506	24384
839.643	24353
839.781	23927
839.918	23969
840.055	24018
840.193	23855
840.33	23847
840.467	23843
840.604	23901
840.742	24110
840.879	23672
841.016	23741
841.153	23794
841.29	24072
841.427	23836
841.564	23836
841.701	23824
841.838	23836
841.975	23855
842.112	23714
842.249	23699
842.385	23596
842.522	23912
842.659	23623
842.796	23554
842.933	23840
843.069	23657
843.206	23611
843.343	23779
843.479	23573
843.616	23649
843.752	23497
843.889	23497
844.025	23600
844.162	23433
844.298	23383
844.435	23490
844.571	23376
844.708	23531
844.844	23539
844.98	23486
845.117	23566
845.253	23318
845.389	23261
845.525	23265
845.661	23136
845.798	23151
845.934	23208
846.07	23181
846.206	23227
846.342	23383
846.478	23246
846.614	22995
846.75	22854
846.886	22972
847.022	22824
847.158	22999
847.294	22778
847.429	22873
847.565	22938
847.701	23098
847.837	22691
847.972	22611
848.108	22596
848.244	22577
848.379	22565
848.515	22493
848.65	22443
848.786	22409
848.921	22500
849.057	22504
849.192	22637
849.328	22679
849.463	22424
849.598	22402
849.734	22344
849.869	22253
850.004	22287
850.14	22306
850.275	22234
850.41	22173
850.545	22249
850.68	22101
850.815	22272
850.95	22200
851.085	22322
851.22	22299
851.355	22238
851.49	22154
851.625	22249
851.76	22185
851.895	22150
852.03	22101
852.165	22226
852.299	22360
852.434	22249
852.569	22291
852.703	22230
852.838	22173
852.973	22474
853.107	22284
853.242	22135
853.376	22154
853.511	21907
853.645	22040
853.78	22124
853.914	22010
854.048	21911
854.183	22029
854.317	21975
854.451	22226
854.585	22093
854.72	22010
854.854	22147
854.988	22002
855.122	22017
855.256	21983
855.39	21838
855.524	22112
855.658	22131
855.792	22074
855.926	22078
856.06	22196
856.194	22044
856.327	21991
856.461	21949
856.595	21934
856.729	22078
856.862	22249
856.996	21975
857.13	22059
857.263	22158
857.397	22063
857.53	21945
857.664	22105
857.797	22074
857.931	22162
858.064	22185
858.197	22147
858.331	22006
858.464	21945
858.597	22010
858.731	22029
858.864	22131
858.997	22074
859.13	22036
859.263	22017
859.396	21987
859.529	22002
859.662	21907
859.795	21907
859.928	22002
860.061	22181
860.194	22173
860.327	22173
860.46	21972
860.592	22055
860.725	21972
860.858	22200
860.99	22078
861.123	21949
861.256	21880
861.388	21991
861.521	22653
861.653	21876
861.786	21793
861.918	21869
862.05	21922
862.183	22063
862.315	21937
862.447	21956
862.58	21918
862.712	21785
862.844	21701
862.976	21812
863.108	21778
863.24	22226
863.372	21682
863.504	21739
863.636	21789
863.768	21793
863.9	21903
864.032	21660
864.164	21606
864.296	21755
864.428	21789
864.559	21850
864.691	21884
864.823	21751
864.954	21625
865.086	21728
865.217	21599
865.349	21526
865.48	21660
865.612	21576
865.743	21770
865.875	21671
866.006	21701
866.137	21667
866.269	21679
866.4	21603
866.531	21591
866.662	21504
866.793	21587
866.924	21534
867.055	21568
867.186	21485
867.317	21496
867.448	21412
867.579	21519
867.71	21481
867.841	21504
867.972	21625
868.103	21591
868.233	21519
868.364	21591
868.495	21515
868.625	21785
868.756	21838
868.886	21698
869.017	21720
869.147	21789
869.278	21880
869.408	21739
869.539	21705
869.669	21930
869.799	21800
869.929	21812
870.06	21804
870.19	22010
870.32	22059
870.45	22147
870.58	22150
870.71	22219
870.84	22185
870.97	22150
871.1	22135
871.23	22394
871.36	22280
871.489	22105
871.619	22249
871.749	22230
871.879	22519
872.008	22413
872.138	22417
872.267	22367
872.397	22249
872.526	22211
872.656	22097
872.785	22173
872.915	22371
873.044	22398
873.173	22402
873.303	22421
873.432	22421
873.561	22500
873.69	22409
873.819	22371
873.948	22379
874.077	22474
874.206	22341
874.335	22268
874.464	22466
874.593	22679
874.722	22641
874.851	22649
874.979	22622
875.108	22679
875.237	22527
875.365	22478
875.494	22733
875.623	22584
875.751	22535
875.88	22599
876.008	22702
876.136	22805
876.265	22915
876.393	23140
876.521	23022
876.65	23048
876.778	22980
876.906	22896
877.034	22911
877.162	22869
877.29	22908
877.418	22984
877.546	22976
877.674	22892
877.802	22946
877.93	23003
878.058	22873
878.185	22828
878.313	22938
878.441	22885
878.568	22755
878.696	22854
878.824	22930
878.951	22911
879.079	23094
879.206	23212
879.333	23102
879.461	22942
879.588	23029
879.715	23052
879.842	23098
879.97	22919
880.097	22809
880.224	22733
880.351	22790
880.478	22790
880.605	22672
880.732	22691
880.859	22949
880.986	22763
881.112	22828
881.239	22615
881.366	22466
881.493	22379
881.619	22261
881.746	22287
881.872	22382
881.999	22177
882.125	22268
882.252	22356
882.378	22325
882.505	22303
882.631	22226
882.757	21987
882.883	22097
883.01	21994
883.136	21991
883.262	21861
883.388	21842
883.514	22025
883.64	22002
883.766	21835
883.892	21842
884.018	21816
884.143	22025
884.269	21998
884.395	21724
884.52	21625
884.646	21534
884.772	21587
884.897	21466
885.023	21648
885.148	21633
885.274	21747
885.399	21660
885.524	21610
885.65	21614
885.775	21625
885.9	21682
886.025	21679
886.15	21629
886.275	21595
886.4	21492
886.525	21576
886.65	21595
886.775	21660
886.9	21774
887.025	21812
887.149	21625
887.274	21370
887.399	21363
887.523	21416
887.648	21325
887.773	21283
887.897	21420
888.021	21378
888.146	21431
888.27	21488
888.395	21606
888.519	21420
888.643	21412
888.767	21458
888.891	21302
889.015	21165
889.139	21142
889.263	21203
889.387	21450
889.511	21359
889.635	21195
889.759	21252
889.883	21142
890.006	21329
890.13	21169
890.254	21116
890.377	21161
890.501	21070
890.624	20895
890.748	20994
890.871	20906
890.995	20689
891.118	20670
891.241	20804
891.364	20739
891.488	20887
891.611	20853
891.734	20701
891.857	20811
891.98	20739
892.103	20727
892.226	20906
892.349	20689
892.471	20556
892.594	20716
892.717	20716
892.839	20659
892.962	20594
893.085	20716
893.207	20636
893.33	20511
893.452	20556
893.575	20629
893.697	20564
893.819	20739
893.941	20807
894.064	20648
894.186	20503
894.308	20514
894.43	20800
894.552	20777
894.674	20697
894.796	20514
894.918	20594
895.04	20682
895.161	20625
895.283	20613
895.405	20609
895.526	20705
895.648	20571
895.769	20667
895.891	20743
896.012	20804
896.134	20625
896.255	20697
896.376	20590
896.498	20606
896.619	20663
896.74	20541
896.861	20708
896.982	20967
897.103	20982
897.224	20941
897.345	20845
897.466	20712
897.587	20853
897.708	21005
897.828	20883
897.949	20625
898.07	20788
898.19	20746
898.311	21013
898.431	20785
898.552	20857
898.672	20842
898.792	20895
898.913	20838
899.033	20758
899.153	20537
899.273	20636
899.393	20712
899.513	20655
899.633	20629
899.753	20560
899.873	20533
899.993	20632
900.113	20503
900.232	20526
900.352	20549
900.472	20404
900.591	20355
900.711	20366
900.83	20309
900.95	20484
901.069	20457
901.189	20252
901.308	20103
901.427	19868
901.546	19925
901.665	20073
901.784	20005
901.904	19807
902.023	19731
902.141	19575
902.26	19438
902.379	19544
902.498	19445
902.617	19438
902.735	19476
902.854	19491
902.973	19301
903.091	19099
903.21	19069
903.328	19000
903.446	18932
903.565	18840
903.683	18859
903.801	18882
903.919	18829
904.038	18859
904.156	18738
904.274	18696
904.392	18559
904.51	18642
904.627	18776
904.745	18650
904.863	18764
904.981	18502
905.098	18285
905.216	18334
905.334	18384
905.451	18433
905.569	18144
905.686	18418
905.803	18277
905.921	18091
906.038	18232
906.155	18091
906.272	17980
906.389	18041
906.506	17779
906.623	17969
906.74	17897
906.857	17798
906.974	17752
907.091	17984
907.208	18015
907.324	17843
907.441	17760
907.557	17627
907.674	17634
907.79	17577
907.907	17509
908.023	17676
908.139	17714
908.256	17532
908.372	17398
908.488	17463
908.604	17459
908.72	17280
908.836	17288
908.952	17136
909.068	17318
909.184	17337
909.3	17254
909.415	17360
909.531	17208
909.647	17037
909.762	17010
909.878	17014
909.993	17029
910.108	16961
910.224	16892
910.339	16949
910.454	16934
910.57	16828
910.685	16797
910.8	17048
910.915	16980
911.03	16771
911.145	16645
911.259	16577
911.374	16622
911.489	16535
911.604	16455
911.718	16333
911.833	16329
911.947	16150
912.062	16097
912.176	16257
912.291	16284
912.405	16268
912.519	16424
912.633	16519
912.748	16386
912.862	16318
912.976	16204
913.09	16101
913.204	16120
913.318	16185
913.431	16265
913.545	16192
913.659	16223
913.772	16040
913.886	16017
914	15922
914.113	15941
914.226	16021
914.34	16067
914.453	15880
914.566	16025
914.68	15903
914.793	15774
914.906	15663
915.019	15587
915.132	15504
915.245	15481
915.358	15500
915.47	15576
915.583	15462
915.696	15538
915.809	15644
915.921	15599
916.034	15424
916.146	15466
916.259	15466
916.371	15523
916.483	15397
916.595	15287
916.708	15279
916.82	15355
916.932	15386
917.044	15306
917.156	15230
917.268	15230
917.38	15138
917.491	15192
917.603	15165
917.715	15245
917.826	15233
917.938	15100
918.049	14986
918.161	15150
918.272	15233
918.384	15199
918.495	15085
918.606	14971
918.717	14887
918.828	14891
918.939	15032
919.05	14811
919.161	14994
919.272	14689
919.383	14739
919.494	14887
919.604	15161
919.715	14921
919.826	14682
919.936	14834
920.047	14952
920.157	14853
920.267	14967
920.378	14872
920.488	14910
920.598	15001
920.708	15131
920.818	14960
920.928	15005
921.038	15142
921.148	15180
921.258	14769
921.368	14720
921.477	14644
921.587	14636
921.697	14431
921.806	14533
921.916	14465
922.025	14408
922.134	14229
922.244	14275
922.353	14210
922.462	14035
922.571	13955
922.68	13986
922.789	13864
922.898	13944
923.007	13860
923.116	13856
923.224	13894
923.333	13791
923.442	13757
923.55	13655
923.659	13696
923.767	13803
923.876	13643
923.984	13738
924.092	13548
924.201	13620
924.309	13563
924.417	13632
924.525	13544
924.633	13502
924.741	14214
924.849	13320
924.956	13544
925.064	13388
925.172	13175
925.279	13236
925.387	13327
925.494	13255
925.602	13373
925.709	13411
925.816	13175
925.924	13129
926.031	13259
926.138	13179
926.245	13289
926.352	13187
926.459	13282
926.566	13236
926.673	13133
926.779	13069
926.886	12951
926.993	12905
927.099	12745
927.206	12764
927.312	12681
927.419	12840
927.525	12719
927.631	12791
927.737	12665
927.843	12715
927.95	12547
928.056	12692
928.162	12677
928.267	12639
928.373	13247
928.479	12711
928.585	12528
928.69	12597
928.796	12646
928.901	12502
929.007	12327
929.112	12513
929.218	12509
929.323	12365
929.428	12289
929.533	12467
929.638	12361
929.743	12380
929.848	12391
929.953	12334
930.058	12186
930.163	12011
930.267	12053
930.372	12201
930.477	12015
930.581	12281
930.685	12102
930.79	11946
930.894	11961
930.998	11923
931.103	12015
931.207	11707
931.311	11562
931.415	11474
931.519	11303
931.623	11307
