Data from test_V78500241_2722.txt Node
Date: Fri Mar 25 15:28:48 CST 2022
User: usil
Spectrometer: V785-0024
Trigger mode: 0
Integration Time (sec): 4.000000E-1
Scans to average: 1
Nonlinearity correction enabled: false
Boxcar width: 0
Storing dark spectrum: false
XAxis mode: Wavelengths
Number of Pixels in Spectrum: 1024
>>>>>Begin Spectral Data<<<<<
801.071	27096
801.214	27093
801.356	26967
801.499	26876
801.641	26826
801.783	26758
801.926	26868
802.068	26689
802.211	26613
802.353	26648
802.496	26453
802.638	26495
802.78	26389
802.923	26248
803.065	26183
803.208	26305
803.35	26476
803.492	26351
803.635	26514
803.777	26412
803.919	26636
804.061	26777
804.204	26530
804.346	26412
804.488	26408
804.63	26396
804.773	26362
804.915	26518
805.057	26514
805.199	26503
805.341	26556
805.483	26583
805.626	26663
805.768	26552
805.91	26545
806.052	26720
806.194	26602
806.336	26727
806.478	26686
806.62	26678
806.762	26648
806.904	26906
807.046	27169
807.188	27055
807.33	27096
807.472	27020
807.614	26838
807.756	27020
807.898	26902
808.04	26796
808.182	26769
808.324	26746
808.465	26960
808.607	27005
808.749	27211
808.891	27348
809.033	27393
809.174	27230
809.316	27214
809.458	27161
809.6	27138
809.741	27135
809.883	27424
810.025	27515
810.166	27519
810.308	27397
810.45	27496
810.591	27401
810.733	27272
810.875	27203
811.016	27123
811.158	27093
811.299	27397
811.441	27344
811.582	27439
811.724	27218
811.865	27279
812.007	27138
812.148	27192
812.29	27195
812.431	27252
812.573	27473
812.714	27504
812.855	27690
812.997	27785
813.138	27903
813.279	27930
813.421	27759
813.562	27694
813.703	27488
813.845	27374
813.986	27169
814.127	27081
814.268	26902
814.41	26933
814.551	26937
814.692	26979
814.833	26765
814.974	26876
815.115	26906
815.256	26811
815.397	26781
815.539	26659
815.68	26735
815.821	26587
815.962	26636
816.103	26629
816.244	26568
816.385	26427
816.526	26427
816.666	26408
816.807	26096
816.948	26206
817.089	26256
817.23	26214
817.371	26024
817.512	26065
817.653	26240
817.793	26050
817.934	26062
818.075	26073
818.216	26206
818.356	26115
818.497	25978
818.638	25871
818.778	25837
818.919	25936
819.06	25875
819.2	26016
819.341	26164
819.481	26027
819.622	26328
819.762	26457
819.903	26446
820.043	26358
820.184	26271
820.324	26168
820.465	26431
820.605	26320
820.746	26142
820.886	26119
821.026	26138
821.167	26039
821.307	26233
821.447	26103
821.588	26031
821.728	25864
821.868	25620
822.008	25655
822.149	25605
822.289	25746
822.429	25392
822.569	25304
822.709	25236
822.849	25122
822.99	25099
823.13	25137
823.27	24894
823.41	24992
823.55	24791
823.69	24924
823.83	24787
823.97	24875
824.11	24719
824.25	24555
824.389	24741
824.529	24779
824.669	24703
824.809	24760
824.949	24924
825.089	24745
825.228	24684
825.368	24620
825.508	24604
825.648	24418
825.787	24627
825.927	24688
826.067	24719
826.206	24631
826.346	24445
826.485	24795
826.625	24627
826.765	24642
826.904	24700
827.044	24289
827.183	24361
827.323	24357
827.462	24467
827.601	24395
827.741	24228
827.88	24205
828.02	24178
828.159	24209
828.298	24216
828.437	24296
828.577	24304
828.716	24353
828.855	24228
828.994	23973
829.134	23931
829.273	24068
829.412	23999
829.551	23908
829.69	24011
829.829	23923
829.968	24079
830.107	23992
830.246	24034
830.385	23950
830.524	23851
830.663	23946
830.802	23771
830.941	23657
831.08	23638
831.219	23726
831.357	23786
831.496	23961
831.635	23665
831.774	23589
831.913	23570
832.051	23467
832.19	23406
832.329	23417
832.467	23353
832.606	23258
832.744	23258
832.883	23345
833.022	23204
833.16	23349
833.299	23265
833.437	23280
833.576	23368
833.714	23436
833.852	23337
833.991	23353
834.129	23429
834.267	23353
834.406	23414
834.544	23372
834.682	23334
834.821	23303
834.959	23421
835.097	23345
835.235	23364
835.373	23315
835.511	23337
835.65	23212
835.788	23227
835.926	22934
836.064	23003
836.202	23147
836.34	23265
836.478	23246
836.615	23212
836.753	23337
836.891	23410
837.029	23265
837.167	23048
837.305	23086
837.443	23155
837.58	23044
837.718	23318
837.856	23121
837.993	23105
838.131	23075
838.269	22854
838.406	23037
838.544	22786
838.681	22824
838.819	22687
838.956	22607
839.094	22577
839.231	22561
839.369	22694
839.506	22984
839.643	22710
839.781	22478
839.918	22538
840.055	22504
840.193	22542
840.33	22440
840.467	22436
840.604	22561
840.742	22759
840.879	22318
841.016	22512
841.153	22337
841.29	22580
841.427	22428
841.564	22531
841.701	22390
841.838	22394
841.975	22382
842.112	22432
842.249	22310
842.385	22230
842.522	22626
842.659	22287
842.796	22272
842.933	22257
843.069	22219
843.206	22310
843.343	22192
843.479	22215
843.616	22162
843.752	22013
843.889	22055
844.025	22147
844.162	21979
844.298	22090
844.435	22105
844.571	22055
844.708	22017
844.844	22223
844.98	22196
845.117	22070
845.253	21884
845.389	21793
845.525	21892
845.661	21842
845.798	21705
845.934	21732
846.07	21686
846.206	21800
846.342	21838
846.478	21785
846.614	21454
846.75	21397
846.886	21545
847.022	21557
847.158	21420
847.294	21439
847.429	21614
847.565	21382
847.701	21747
847.837	21173
847.972	21032
848.108	21325
848.244	21252
848.379	21112
848.515	21116
848.65	21066
848.786	21077
848.921	21135
849.057	21093
849.192	21135
849.328	21150
849.463	20963
849.598	21024
849.734	20982
849.869	20941
850.004	20872
850.14	20925
850.275	20902
850.41	20826
850.545	20811
850.68	20845
850.815	20902
850.95	20804
851.085	20960
851.22	20952
851.355	20948
851.49	20925
851.625	20735
851.76	20762
851.895	20712
852.03	20743
852.165	20857
852.299	20785
852.434	20975
852.569	20796
852.703	20895
852.838	20788
852.973	20868
853.107	20929
853.242	20921
853.376	20609
853.511	20613
853.645	20644
853.78	20712
853.914	20583
854.048	20621
854.183	20644
854.317	20716
854.451	20842
854.585	20632
854.72	20636
854.854	20655
854.988	20602
855.122	20625
855.256	20579
855.39	20617
855.524	20758
855.658	20648
855.792	20705
855.926	20651
856.06	20739
856.194	20746
856.327	20625
856.461	20492
856.595	20613
856.729	20640
856.862	20777
856.996	20625
857.13	20644
857.263	20864
857.397	20708
857.53	20632
857.664	20701
857.797	20731
857.931	20731
858.064	20781
858.197	20830
858.331	20667
858.464	20678
858.597	20488
858.731	20549
858.864	20575
858.997	20659
859.13	20800
859.263	20602
859.396	20701
859.529	20590
859.662	20678
859.795	20587
859.928	20594
860.061	20735
860.194	20708
860.327	20716
860.46	20609
860.592	20720
860.725	20895
860.858	20819
860.99	20739
861.123	20629
861.256	20537
861.388	20640
861.521	21218
861.653	20590
861.786	20457
861.918	20571
862.05	20461
862.183	20556
862.315	20583
862.447	20697
862.58	20598
862.712	20347
862.844	20263
862.976	20355
863.108	20427
863.24	20815
863.372	20313
863.504	20396
863.636	20324
863.768	20324
863.9	20366
864.032	20278
864.164	20286
864.296	20480
864.428	20514
864.559	20336
864.691	20396
864.823	20446
864.954	20339
865.086	20366
865.217	20244
865.349	20202
865.48	20244
865.612	20278
865.743	20370
865.875	20412
866.006	20355
866.137	20282
866.269	20320
866.4	20202
866.531	20176
866.662	20134
866.793	20263
866.924	20298
867.055	20275
867.186	20256
867.317	20240
867.448	20157
867.579	20092
867.71	20039
867.841	20157
867.972	20271
868.103	20332
868.233	20183
868.364	20119
868.495	20218
868.625	20461
868.756	20518
868.886	20419
869.017	20469
869.147	20621
869.278	20587
869.408	20526
869.539	20469
869.669	20476
869.799	20473
869.929	20606
870.06	20507
870.19	20686
870.32	20815
870.45	20800
870.58	20899
870.71	21020
870.84	21005
870.97	20849
871.1	20838
871.23	20975
871.36	21028
871.489	21089
871.619	21089
871.749	21157
871.879	20986
872.008	21119
872.138	21066
872.267	21055
872.397	20815
872.526	20842
872.656	20906
872.785	20845
872.915	21127
873.044	21188
873.173	21085
873.303	21127
873.432	21241
873.561	21123
873.69	21154
873.819	21017
873.948	21093
874.077	21032
874.206	21055
874.335	21096
874.464	21081
874.593	21401
874.722	21230
874.851	21287
874.979	21298
875.108	21447
875.237	21283
875.365	21249
875.494	21317
875.623	21538
875.751	21230
875.88	21344
876.008	21462
876.136	21538
876.265	21766
876.393	21808
876.521	21755
876.65	21713
876.778	21652
876.906	21637
877.034	21644
877.162	21564
877.29	21728
877.418	21778
877.546	21599
877.674	21728
877.802	21781
877.93	21690
878.058	21736
878.185	21599
878.313	21622
878.441	21625
878.568	21568
878.696	21618
878.824	21682
878.951	21819
879.079	21850
879.206	21857
879.333	21835
879.461	21728
879.588	21717
879.715	21728
879.842	21888
879.97	21797
880.097	21561
880.224	21454
880.351	21652
880.478	21500
880.605	21405
880.732	21572
880.859	21736
880.986	21462
881.112	21447
881.239	21336
881.366	21294
881.493	21264
881.619	21222
881.746	21127
881.872	21146
881.999	21096
882.125	21066
882.252	21119
882.378	21058
882.505	21233
882.631	21005
882.757	20857
882.883	20853
883.01	20811
883.136	20743
883.262	20564
883.388	20636
883.514	20788
883.64	20933
883.766	20739
883.892	20575
884.018	20400
884.143	20678
884.269	20785
884.395	20438
884.52	20389
884.646	20366
884.772	20377
884.897	20343
885.023	20389
885.148	20606
885.274	20484
885.399	20476
885.524	20530
885.65	20408
885.775	20450
885.9	20495
886.025	20541
886.15	20408
886.275	20434
886.4	20290
886.525	20355
886.65	20187
886.775	20343
886.9	20579
887.025	20560
887.149	20374
887.274	20191
887.399	20225
887.523	20199
887.648	20210
887.773	20107
887.897	20282
888.021	20202
888.146	20024
888.27	20294
888.395	20438
888.519	20157
888.643	20221
888.767	20267
888.891	20130
889.015	19959
889.139	20020
889.263	19993
889.387	20081
889.511	20221
889.635	20191
889.759	19989
889.883	20008
890.006	19944
890.13	20142
890.254	20107
890.377	19982
890.501	19795
890.624	19807
890.748	19818
890.871	19639
890.995	19620
891.118	19548
891.241	19586
891.364	19704
891.488	19685
891.611	19620
891.734	19620
891.857	19586
891.98	19639
892.103	19662
892.226	19609
892.349	19552
892.471	19293
892.594	19457
892.717	19506
892.839	19499
892.962	19540
893.085	19540
893.207	19487
893.33	19544
893.452	19388
893.575	19597
893.697	19563
893.819	19609
893.941	19582
894.064	19715
894.186	19472
894.308	19476
894.43	19643
894.552	19742
894.674	19575
894.796	19411
894.918	19510
895.04	19483
895.161	19487
895.283	19506
895.405	19445
895.526	19529
895.648	19441
895.769	19571
895.891	19480
896.012	19502
896.134	19571
896.255	19578
896.376	19468
896.498	19449
896.619	19521
896.74	19529
896.861	19590
896.982	19909
897.103	19967
897.224	19822
897.345	19833
897.466	19685
897.587	19795
897.708	19799
897.828	19841
897.949	19616
898.07	19571
898.19	19643
898.311	19776
898.431	19700
898.552	19795
898.672	19765
898.792	19849
898.913	19769
899.033	19632
899.153	19502
899.273	19533
899.393	19540
899.513	19480
899.633	19613
899.753	19483
899.873	19453
899.993	19651
900.113	19438
900.232	19552
900.352	19400
900.472	19453
900.591	19282
900.711	19388
900.83	19137
900.95	19445
901.069	19464
901.189	19160
901.308	19126
901.427	18795
901.546	18821
901.665	18905
901.784	18916
901.904	18745
902.023	18559
902.141	18448
902.26	18486
902.379	18517
902.498	18448
902.617	18353
902.735	18376
902.854	18441
902.973	18311
903.091	18144
903.21	18083
903.328	18117
903.446	17931
903.565	17874
903.683	17977
903.801	17828
903.919	17821
904.038	17817
904.156	17672
904.274	17703
904.392	17684
904.51	17562
904.627	17608
904.745	17661
904.863	17779
904.981	17372
905.098	17265
905.216	17345
905.334	17303
905.451	17353
905.569	17322
905.686	17296
905.803	17269
905.921	17292
906.038	17303
906.155	17200
906.272	17075
906.389	17052
906.506	16881
906.623	16877
906.74	16812
906.857	16683
906.974	16793
907.091	16797
907.208	16927
907.324	16854
907.441	16820
907.557	16660
907.674	16599
907.79	16527
907.907	16569
908.023	16641
908.139	16630
908.256	16466
908.372	16428
908.488	16527
908.604	16394
908.72	16291
908.836	16360
908.952	16257
909.068	16360
909.184	16348
909.3	16219
909.415	16402
909.531	16261
909.647	16086
909.762	16051
909.878	16036
909.993	16017
910.108	16040
910.224	16013
910.339	15937
910.454	15884
910.57	15759
910.685	15804
910.8	16055
910.915	16021
911.03	15876
911.145	15652
911.259	15663
911.374	15603
911.489	15549
911.604	15538
911.718	15462
911.833	15393
911.947	15389
912.062	15298
912.176	15367
912.291	15450
912.405	15378
912.519	15587
912.633	15633
912.748	15393
912.862	15370
912.976	15306
913.09	15165
913.204	15192
913.318	15188
913.431	15245
913.545	15355
913.659	15348
913.772	15218
913.886	15009
914	14990
914.113	15077
914.226	15176
914.34	15066
914.453	14918
914.566	15104
914.68	14921
914.793	14921
914.906	14667
915.019	14621
915.132	14549
915.245	14682
915.358	14625
915.47	14621
915.583	14697
915.696	14590
915.809	14773
915.921	14739
916.034	14556
916.146	14499
916.259	14590
916.371	14579
916.483	14590
916.595	14476
916.708	14613
916.82	14476
916.932	14324
917.044	14396
917.156	14434
917.268	14309
917.38	14358
917.491	14252
917.603	14206
917.715	14377
917.826	14320
917.938	14290
918.049	14161
918.161	14328
918.272	14370
918.384	14389
918.495	14343
918.606	14123
918.717	14077
918.828	14157
918.939	14092
919.05	13932
919.161	14130
919.272	13864
919.383	13936
919.494	14138
919.604	14172
919.715	14081
919.826	13955
919.936	14008
920.047	14111
920.157	14046
920.267	14248
920.378	14054
920.488	14005
920.598	14180
920.708	14419
920.818	14199
920.928	14096
921.038	14377
921.148	14358
921.258	13963
921.368	14008
921.477	13761
921.587	13902
921.697	13590
921.806	13807
921.916	13708
922.025	13544
922.134	13468
922.244	13388
922.353	13525
922.462	13373
922.571	13232
922.68	13114
922.789	13069
922.898	13095
923.007	12981
923.116	13107
923.224	13110
923.333	13000
923.442	12977
923.55	12848
923.659	12939
923.767	13004
923.876	12768
923.984	12958
924.092	12821
924.201	12970
924.309	12852
924.417	12791
924.525	12779
924.633	12760
924.741	13784
924.849	12635
924.956	12623
925.064	12563
925.172	12509
925.279	12525
925.387	12517
925.494	12620
925.602	12616
925.709	12460
925.816	12437
925.924	12448
926.031	12536
926.138	12506
926.245	12528
926.352	12437
926.459	12544
926.566	12559
926.673	12357
926.779	12304
926.886	12224
926.993	12144
927.099	12102
927.206	12022
927.312	12072
927.419	12140
927.525	12057
927.631	12091
927.737	11904
927.843	11916
927.95	11851
928.056	11999
928.162	11969
928.267	12030
928.373	12525
928.479	11999
928.585	11737
928.69	11897
928.796	11946
928.901	11798
929.007	11668
929.112	11794
929.218	11718
929.323	11714
929.428	11589
929.533	11802
929.638	11642
929.743	11573
929.848	11691
929.953	11592
930.058	11566
930.163	11376
930.267	11345
930.372	11474
930.477	11368
930.581	11577
930.685	11455
930.79	11265
930.894	11353
930.998	11277
931.103	11421
931.207	11060
931.311	10987
931.415	10854
931.519	10618
931.623	10672
