Data from test_V78500241_3232.txt Node
Date: Fri Mar 25 15:32:21 CST 2022
User: usil
Spectrometer: V785-0024
Trigger mode: 0
Integration Time (sec): 4.000000E-1
Scans to average: 1
Nonlinearity correction enabled: false
Boxcar width: 0
Storing dark spectrum: false
XAxis mode: Wavelengths
Number of Pixels in Spectrum: 1024
>>>>>Begin Spectral Data<<<<<
801.071	27275
801.214	27096
801.356	26944
801.499	26956
801.641	26720
801.783	26724
801.926	26727
802.068	26811
802.211	26640
802.353	26716
802.496	26480
802.638	26446
802.78	26415
802.923	26309
803.065	26267
803.208	26278
803.35	26476
803.492	26484
803.635	26480
803.777	26545
803.919	26602
804.061	26823
804.204	26514
804.346	26465
804.488	26301
804.63	26389
804.773	26427
804.915	26457
805.057	26644
805.199	26568
805.341	26701
805.483	26716
805.626	26571
805.768	26594
805.91	26701
806.052	26727
806.194	26568
806.336	26613
806.478	26609
806.62	26590
806.762	26758
806.904	26720
807.046	27344
807.188	26967
807.33	26982
807.472	27058
807.614	26998
807.756	27001
807.898	26849
808.04	26880
808.182	26750
808.324	26952
808.465	26929
808.607	27104
808.749	27184
808.891	27313
809.033	27393
809.174	27348
809.316	27252
809.458	27268
809.6	27077
809.741	27154
809.883	27348
810.025	27374
810.166	27496
810.308	27439
810.45	27302
810.591	27302
810.733	27230
810.875	27154
811.016	27116
811.158	27203
811.299	27275
811.441	27367
811.582	27222
811.724	27184
811.865	27161
812.007	27249
812.148	27218
812.29	27173
812.431	27340
812.573	27538
812.714	27412
812.855	27774
812.997	27816
813.138	27895
813.279	27778
813.421	27751
813.562	27648
813.703	27477
813.845	27367
813.986	27028
814.127	26940
814.268	26914
814.41	26876
814.551	26807
814.692	26823
814.833	26788
814.974	26910
815.115	26853
815.256	26663
815.397	26731
815.539	26689
815.68	26541
815.821	26560
815.962	26655
816.103	26617
816.244	26495
816.385	26381
816.526	26202
816.666	26256
816.807	26122
816.948	26142
817.089	26149
817.23	26103
817.371	26081
817.512	26225
817.653	26107
817.793	26058
817.934	26035
818.075	26142
818.216	26195
818.356	25966
818.497	25849
818.638	25875
818.778	25833
818.919	25902
819.06	25951
819.2	26012
819.341	26092
819.481	26153
819.622	26187
819.762	26495
819.903	26393
820.043	26374
820.184	26187
820.324	26168
820.465	26214
820.605	26225
820.746	26043
820.886	26020
821.026	26195
821.167	26229
821.307	26221
821.447	26149
821.588	26065
821.728	25974
821.868	25807
822.008	25635
822.149	25483
822.289	25597
822.429	25331
822.569	25331
822.709	25346
822.849	25053
822.99	25114
823.13	25118
823.27	25118
823.41	25027
823.55	24848
823.69	24947
823.83	24966
823.97	24935
824.11	24593
824.25	24658
824.389	24768
824.529	24833
824.669	24776
824.809	24909
824.949	24837
825.089	24787
825.228	24798
825.368	24627
825.508	24677
825.648	24616
825.787	24764
825.927	24749
826.067	24505
826.206	24608
826.346	24669
826.485	24631
826.625	24597
826.765	24589
826.904	24757
827.044	24361
827.183	24338
827.323	24433
827.462	24376
827.601	24525
827.741	24330
827.88	24410
828.02	24350
828.159	24357
828.298	24327
828.437	24323
828.577	24186
828.716	24422
828.855	24304
828.994	23992
829.134	24018
829.273	24144
829.412	24011
829.551	24003
829.69	23999
829.829	24076
829.968	24174
830.107	24125
830.246	24110
830.385	23965
830.524	23958
830.663	23882
830.802	23775
830.941	23752
831.08	23672
831.219	23745
831.357	23661
831.496	23878
831.635	23691
831.774	23512
831.913	23634
832.051	23322
832.19	23356
832.329	23592
832.467	23421
832.606	23376
832.744	23258
832.883	23307
833.022	23353
833.16	23315
833.299	23395
833.437	23387
833.576	23440
833.714	23436
833.852	23543
833.991	23516
834.129	23634
834.267	23490
834.406	23414
834.544	23459
834.682	23383
834.821	23235
834.959	23509
835.097	23406
835.235	23444
835.373	23376
835.511	23410
835.65	23231
835.788	23235
835.926	23265
836.064	22934
836.202	23060
836.34	23307
836.478	23429
836.615	23269
836.753	23235
836.891	23334
837.029	23315
837.167	23109
837.305	23121
837.443	23147
837.58	23170
837.718	23307
837.856	23132
837.993	23102
838.131	23204
838.269	22961
838.406	23010
838.544	22862
838.681	22809
838.819	22736
838.956	22542
839.094	22573
839.231	22573
839.369	22596
839.506	23094
839.643	22881
839.781	22615
839.918	22459
840.055	22603
840.193	22603
840.33	22535
840.467	22481
840.604	22447
840.742	22847
840.879	22367
841.016	22451
841.153	22398
841.29	22535
841.427	22424
841.564	22687
841.701	22569
841.838	22519
841.975	22356
842.112	22508
842.249	22341
842.385	22379
842.522	22485
842.659	22257
842.796	22272
842.933	22360
843.069	22238
843.206	22249
843.343	22360
843.479	22333
843.616	22253
843.752	22055
843.889	22040
844.025	22169
844.162	22040
844.298	22166
844.435	21945
844.571	21934
844.708	22139
844.844	22120
844.98	22223
845.117	22215
845.253	21983
845.389	21918
845.525	21865
845.661	21785
845.798	21736
845.934	21812
846.07	21728
846.206	21854
846.342	21994
846.478	21766
846.614	21618
846.75	21408
846.886	21469
847.022	21564
847.158	21496
847.294	21443
847.429	21622
847.565	21629
847.701	21739
847.837	21222
847.972	21203
848.108	21420
848.244	21481
848.379	21142
848.515	21039
848.65	21241
848.786	21146
848.921	21203
849.057	21344
849.192	21237
849.328	21119
849.463	21211
849.598	21131
849.734	21085
849.869	20925
850.004	20891
850.14	20895
850.275	20880
850.41	20864
850.545	20883
850.68	20830
850.815	20785
850.95	20883
851.085	21138
851.22	21028
851.355	20895
851.49	20914
851.625	20807
851.76	20864
851.895	20754
852.03	20716
852.165	20887
852.299	20815
852.434	21024
852.569	20899
852.703	20773
852.838	20937
852.973	21074
853.107	20929
853.242	20781
853.376	20716
853.511	20629
853.645	20712
853.78	20754
853.914	20731
854.048	20583
854.183	20743
854.317	20689
854.451	20819
854.585	20579
854.72	20716
854.854	20857
854.988	20606
855.122	20651
855.256	20526
855.39	20632
855.524	20876
855.658	20792
855.792	20731
855.926	20781
856.06	20823
856.194	20781
856.327	20701
856.461	20621
856.595	20689
856.729	20735
856.862	20823
856.996	20857
857.13	20712
857.263	20857
857.397	20804
857.53	20670
857.664	20689
857.797	20845
857.931	20754
858.064	20716
858.197	20804
858.331	20697
858.464	20712
858.597	20503
858.731	20648
858.864	20716
858.997	20689
859.13	20807
859.263	20686
859.396	20716
859.529	20648
859.662	20648
859.795	20663
859.928	20796
860.061	20887
860.194	20830
860.327	20693
860.46	20682
860.592	20868
860.725	20853
860.858	20819
860.99	20644
861.123	20556
861.256	20651
861.388	20621
861.521	21157
861.653	20590
861.786	20556
861.918	20537
862.05	20537
862.183	20632
862.315	20629
862.447	20788
862.58	20625
862.712	20594
862.844	20404
862.976	20511
863.108	20438
863.24	20811
863.372	20385
863.504	20446
863.636	20381
863.768	20476
863.9	20617
864.032	20374
864.164	20385
864.296	20465
864.428	20431
864.559	20514
864.691	20454
864.823	20358
864.954	20370
865.086	20271
865.217	20362
865.349	20313
865.48	20305
865.612	20374
865.743	20400
865.875	20309
866.006	20278
866.137	20294
866.269	20313
866.4	20313
866.531	20336
866.662	20161
866.793	20183
866.924	20244
867.055	20237
867.186	20256
867.317	20263
867.448	20214
867.579	20145
867.71	20298
867.841	20130
867.972	20313
868.103	20256
868.233	20183
868.364	20244
868.495	20377
868.625	20556
868.756	20693
868.886	20537
869.017	20488
869.147	20621
869.278	20541
869.408	20480
869.539	20473
869.669	20621
869.799	20579
869.929	20636
870.06	20560
870.19	20781
870.32	20682
870.45	20853
870.58	20781
870.71	21058
870.84	21024
870.97	20952
871.1	20994
871.23	21081
871.36	21127
871.489	21024
871.619	21131
871.749	21009
871.879	21119
872.008	21222
872.138	21195
872.267	21165
872.397	20956
872.526	20883
872.656	20910
872.785	20956
872.915	21135
873.044	21283
873.173	21211
873.303	21150
873.432	21173
873.561	21173
873.69	21214
873.819	21203
873.948	21249
874.077	21131
874.206	21043
874.335	21150
874.464	21317
874.593	21370
874.722	21310
874.851	21363
874.979	21348
875.108	21477
875.237	21405
875.365	21306
875.494	21283
875.623	21435
875.751	21378
875.88	21245
876.008	21469
876.136	21652
876.265	21785
876.393	21922
876.521	21934
876.65	21865
876.778	21842
876.906	21800
877.034	21717
877.162	21857
877.29	21618
877.418	21827
877.546	21671
877.674	21816
877.802	21743
877.93	21709
878.058	21717
878.185	21603
878.313	21629
878.441	21747
878.568	21667
878.696	21690
878.824	21660
878.951	21892
879.079	21873
879.206	21911
879.333	21869
879.461	21713
879.588	21857
879.715	21937
879.842	21998
879.97	21797
880.097	21519
880.224	21462
880.351	21610
880.478	21633
880.605	21504
880.732	21618
880.859	21762
880.986	21618
881.112	21500
881.239	21340
881.366	21393
881.493	21211
881.619	21165
881.746	21081
881.872	21173
881.999	21070
882.125	21028
882.252	21135
882.378	21127
882.505	21108
882.631	21020
882.757	20880
882.883	21062
883.01	20838
883.136	20811
883.262	20632
883.388	20765
883.514	20857
883.64	20788
883.766	20899
883.892	20617
884.018	20659
884.143	20796
884.269	20872
884.395	20503
884.52	20514
884.646	20541
884.772	20438
884.897	20446
885.023	20560
885.148	20606
885.274	20720
885.399	20552
885.524	20511
885.65	20518
885.775	20583
885.9	20503
886.025	20651
886.15	20488
886.275	20438
886.4	20244
886.525	20438
886.65	20343
886.775	20404
886.9	20621
887.025	20678
887.149	20533
887.274	20233
887.399	20271
887.523	20278
887.648	20214
887.773	20202
887.897	20248
888.021	20305
888.146	20183
888.27	20438
888.395	20298
888.519	20393
888.643	20275
888.767	20366
888.891	20206
889.015	20024
889.139	20195
889.263	20126
889.387	20103
889.511	20339
889.635	20278
889.759	20035
889.883	20043
890.006	20054
890.13	20145
890.254	19989
890.377	20043
890.501	19906
890.624	19791
890.748	19875
890.871	19738
890.995	19605
891.118	19689
891.241	19761
891.364	19655
891.488	19712
891.611	19597
891.734	19681
891.857	19742
891.98	19666
892.103	19685
892.226	19666
892.349	19590
892.471	19407
892.594	19658
892.717	19643
892.839	19502
892.962	19548
893.085	19700
893.207	19693
893.33	19438
893.452	19464
893.575	19696
893.697	19563
893.819	19712
893.941	19864
894.064	19605
894.186	19438
894.308	19487
894.43	19647
894.552	19719
894.674	19708
894.796	19491
894.918	19449
895.04	19540
895.161	19635
895.283	19563
895.405	19491
895.526	19567
895.648	19533
895.769	19693
895.891	19575
896.012	19567
896.134	19609
896.255	19487
896.376	19597
896.498	19514
896.619	19708
896.74	19563
896.861	19662
896.982	19906
897.103	20058
897.224	19776
897.345	19830
897.466	19700
897.587	19906
897.708	19909
897.828	19761
897.949	19750
898.07	19529
898.19	19788
898.311	19955
898.431	19932
898.552	19757
898.672	19841
898.792	19883
898.913	19807
899.033	19708
899.153	19563
899.273	19480
899.393	19632
899.513	19575
899.633	19594
899.753	19559
899.873	19415
899.993	19647
900.113	19514
900.232	19540
900.352	19441
900.472	19331
900.591	19206
900.711	19312
900.83	19263
900.95	19434
901.069	19453
901.189	19335
901.308	19133
901.427	18958
901.546	18905
901.665	18989
901.784	18787
901.904	18882
902.023	18734
902.141	18460
902.26	18547
902.379	18578
902.498	18551
902.617	18490
902.735	18475
902.854	18391
902.973	18361
903.091	18095
903.21	18038
903.328	18087
903.446	18140
903.565	17946
903.683	17965
903.801	17786
903.919	17912
904.038	17878
904.156	17771
904.274	17729
904.392	17794
904.51	17699
904.627	17680
904.745	17691
904.863	17771
904.981	17474
905.098	17383
905.216	17448
905.334	17398
905.451	17433
905.569	17311
905.686	17486
905.803	17414
905.921	17288
906.038	17303
906.155	17311
906.272	17048
906.389	17216
906.506	16946
906.623	16866
906.74	16896
906.857	16854
906.974	16805
907.091	17022
907.208	17140
907.324	16919
907.441	16854
907.557	16668
907.674	16641
907.79	16558
907.907	16546
908.023	16668
908.139	16618
908.256	16691
908.372	16561
908.488	16519
908.604	16417
908.72	16360
908.836	16455
908.952	16344
909.068	16405
909.184	16436
909.3	16424
909.415	16440
909.531	16329
909.647	16162
909.762	16150
909.878	16086
909.993	16150
910.108	16013
910.224	15994
910.339	16006
910.454	16063
910.57	16021
910.685	15827
910.8	16188
910.915	16032
911.03	15983
911.145	15743
911.259	15629
911.374	15656
911.489	15606
911.604	15584
911.718	15386
911.833	15443
911.947	15226
912.062	15287
912.176	15420
912.291	15523
912.405	15428
912.519	15625
912.633	15652
912.748	15420
912.862	15306
912.976	15302
913.09	15074
913.204	15214
913.318	15211
913.431	15386
913.545	15329
913.659	15386
913.772	15184
913.886	15127
914	15070
914.113	15157
914.226	15081
914.34	15138
914.453	15051
914.566	15119
914.68	14971
914.793	14887
914.906	14716
915.019	14716
915.132	14598
915.245	14636
915.358	14727
915.47	14739
915.583	14708
915.696	14727
915.809	14735
915.921	14785
916.034	14655
916.146	14610
916.259	14518
916.371	14781
916.483	14625
916.595	14556
916.708	14533
916.82	14526
916.932	14473
917.044	14495
917.156	14404
917.268	14358
917.38	14362
917.491	14275
917.603	14370
917.715	14434
917.826	14503
917.938	14343
918.049	14210
918.161	14267
918.272	14431
918.384	14396
918.495	14366
918.606	14161
918.717	14073
918.828	14073
918.939	14069
919.05	14050
919.161	14039
919.272	13803
919.383	14012
919.494	14130
919.604	14313
919.715	14039
919.826	13959
919.936	14039
920.047	14168
920.157	14107
920.267	14225
920.378	14180
920.488	14081
920.598	14252
920.708	14404
920.818	14240
920.928	14221
921.038	14256
921.148	14282
921.258	14039
921.368	13917
921.477	13932
921.587	13780
921.697	13727
921.806	13860
921.916	13670
922.025	13563
922.134	13407
922.244	13518
922.353	13556
922.462	13438
922.571	13289
922.68	13168
922.789	13065
922.898	13164
923.007	13114
923.116	13202
923.224	13091
923.333	13065
923.442	13095
923.55	12920
923.659	13000
923.767	13065
923.876	12916
923.984	12977
924.092	12890
924.201	12913
924.309	12859
924.417	12890
924.525	12768
924.633	12825
924.741	13696
924.849	12726
924.956	12654
925.064	12620
925.172	12502
925.279	12563
925.387	12563
925.494	12623
925.602	12658
925.709	12604
925.816	12498
925.924	12490
926.031	12627
926.138	12536
926.245	12612
926.352	12410
926.459	12559
926.566	12585
926.673	12475
926.779	12338
926.886	12296
926.993	12182
927.099	12163
927.206	12087
927.312	12083
927.419	12197
927.525	12178
927.631	12186
927.737	12049
927.843	12053
927.95	11874
928.056	11958
928.162	11969
928.267	11988
928.373	12662
928.479	12091
928.585	11817
928.69	11904
928.796	11942
928.901	11832
929.007	11680
929.112	11897
929.218	11809
929.323	11707
929.428	11745
929.533	11912
929.638	11562
929.743	11688
929.848	11775
929.953	11733
930.058	11570
930.163	11391
930.267	11414
930.372	11577
930.477	11311
930.581	11592
930.685	11467
930.79	11398
930.894	11376
930.998	11277
931.103	11372
931.207	11098
931.311	10927
931.415	10866
931.519	10653
931.623	10679
