Data from test_V78500241_1104.txt Node
Date: Fri Mar 25 15:17:32 CST 2022
User: usil
Spectrometer: V785-0024
Trigger mode: 0
Integration Time (sec): 4.000000E-1
Scans to average: 1
Nonlinearity correction enabled: false
Boxcar width: 0
Storing dark spectrum: false
XAxis mode: Wavelengths
Number of Pixels in Spectrum: 1024
>>>>>Begin Spectral Data<<<<<
801.071	28428
801.214	28394
801.356	28082
801.499	28124
801.641	27819
801.783	28044
801.926	27918
802.068	27964
802.211	27823
802.353	27816
802.496	27778
802.638	27648
802.78	27675
802.923	27599
803.065	27515
803.208	27629
803.35	27553
803.492	27743
803.635	27739
803.777	27701
803.919	27789
804.061	28051
804.204	27865
804.346	27808
804.488	27641
804.63	27736
804.773	27812
804.915	27994
805.057	28044
805.199	27838
805.341	27914
805.483	27937
805.626	27914
805.768	27759
805.91	27873
806.052	27945
806.194	27861
806.336	28070
806.478	28162
806.62	27949
806.762	27991
806.904	28128
807.046	28569
807.188	28306
807.33	28352
807.472	28390
807.614	28352
807.756	28375
807.898	28459
808.04	28211
808.182	28139
808.324	28291
808.465	28375
808.607	28470
808.749	28668
808.891	28660
809.033	28790
809.174	28725
809.316	28569
809.458	28557
809.6	28630
809.741	28713
809.883	28885
810.025	28881
810.166	28713
810.308	28930
810.45	28847
810.591	28873
810.733	28656
810.875	28694
811.016	28451
811.158	28664
811.299	28752
811.441	28839
811.582	28626
811.724	28748
811.865	28577
812.007	28736
812.148	28634
812.29	28706
812.431	28816
812.573	28942
812.714	29044
812.855	29162
812.997	29307
813.138	29478
813.279	29273
813.421	29311
813.562	29155
813.703	28999
813.845	28961
813.986	28599
814.127	28523
814.268	28451
814.41	28478
814.551	28432
814.692	28356
814.833	28318
814.974	28352
815.115	28436
815.256	28234
815.397	28219
815.539	28303
815.68	28303
815.821	28207
815.962	28261
816.103	28143
816.244	28207
816.385	28067
816.526	27934
816.666	27675
816.807	27732
816.948	27675
817.089	27804
817.23	27538
817.371	27679
817.512	27766
817.653	27644
817.793	27660
817.934	27583
818.075	27728
818.216	27625
818.356	27644
818.497	27606
818.638	27511
818.778	27477
818.919	27332
819.06	27500
819.2	27526
819.341	27797
819.481	27739
819.622	27797
819.762	28063
819.903	27926
820.043	27873
820.184	27755
820.324	27701
820.465	27903
820.605	27835
820.746	27918
820.886	27660
821.026	27797
821.167	27751
821.307	27831
821.447	27679
821.588	27549
821.728	27393
821.868	27382
822.008	27203
822.149	27119
822.289	27184
822.429	26823
822.569	26807
822.709	26811
822.849	26632
822.99	26663
823.13	26667
823.27	26621
823.41	26583
823.55	26400
823.69	26564
823.83	26480
823.97	26362
824.11	26286
824.25	26336
824.389	26275
824.529	26377
824.669	26400
824.809	26492
824.949	26541
825.089	26640
825.228	26305
825.368	26240
825.508	26096
825.648	26218
825.787	26195
825.927	26450
826.067	26210
826.206	26092
826.346	26259
826.485	26343
826.625	26271
826.765	26336
826.904	26214
827.044	26035
827.183	25947
827.323	25909
827.462	26008
827.601	25944
827.741	26024
827.88	26062
828.02	25719
828.159	25852
828.298	25928
828.437	25974
828.577	25890
828.716	26069
828.855	25772
828.994	25651
829.134	25647
829.273	25784
829.412	25666
829.551	25548
829.69	25681
829.829	25658
829.968	25795
830.107	25647
830.246	25696
830.385	25674
830.524	25506
830.663	25468
830.802	25289
830.941	25148
831.08	25247
831.219	25384
831.357	25491
831.496	25556
831.635	25346
831.774	25183
831.913	25190
832.051	25076
832.19	25168
832.329	25084
832.467	25057
832.606	24909
832.744	24897
832.883	24928
833.022	25008
833.16	24837
833.299	24932
833.437	24989
833.576	24924
833.714	24951
833.852	25103
833.991	25080
834.129	24947
834.267	25031
834.406	25069
834.544	24992
834.682	25187
834.821	25141
834.959	25221
835.097	25000
835.235	24932
835.373	24863
835.511	24962
835.65	24886
835.788	24920
835.926	24852
836.064	24650
836.202	24696
836.34	24783
836.478	24981
836.615	24776
836.753	24837
836.891	24856
837.029	24875
837.167	24810
837.305	24821
837.443	24642
837.58	24547
837.718	24829
837.856	24688
837.993	24741
838.131	24726
838.269	24623
838.406	24563
838.544	24623
838.681	24235
838.819	24292
838.956	24178
839.094	24209
839.231	24121
839.369	24346
839.506	24616
839.643	24346
839.781	24159
839.918	24091
840.055	24247
840.193	24251
840.33	24106
840.467	23950
840.604	24083
840.742	24403
840.879	23813
841.016	24076
841.153	24022
841.29	24144
841.427	24178
841.564	24068
841.701	24045
841.838	24079
841.975	23935
842.112	24102
842.249	23783
842.385	23783
842.522	23988
842.659	23935
842.796	23832
842.933	23931
843.069	23836
843.206	23843
843.343	23904
843.479	23832
843.616	23889
843.752	23630
843.889	23684
844.025	23828
844.162	23512
844.298	23722
844.435	23687
844.571	23554
844.708	23516
844.844	23710
844.98	23790
845.117	23764
845.253	23604
845.389	23455
845.525	23547
845.661	23471
845.798	23360
845.934	23433
846.07	23189
846.206	23208
846.342	23551
846.478	23143
846.614	23124
846.75	22995
846.886	22995
847.022	23067
847.158	23147
847.294	23079
847.429	23140
847.565	23006
847.701	23334
847.837	22877
847.972	22839
848.108	22771
848.244	22900
848.379	22641
848.515	22630
848.65	22668
848.786	22637
848.921	22592
849.057	22778
849.192	22763
849.328	22675
849.463	22641
849.598	22763
849.734	22561
849.869	22504
850.004	22386
850.14	22432
850.275	22462
850.41	22325
850.545	22432
850.68	22329
850.815	22451
850.95	22386
851.085	22493
851.22	22611
851.355	22436
851.49	22428
851.625	22360
851.76	22344
851.895	22295
852.03	22371
852.165	22306
852.299	22451
852.434	22470
852.569	22546
852.703	22402
852.838	22504
852.973	22440
853.107	22569
853.242	22352
853.376	22249
853.511	22147
853.645	22207
853.78	22341
853.914	22344
854.048	22162
854.183	22398
854.317	22200
854.451	22322
854.585	22234
854.72	22284
854.854	22322
854.988	22090
855.122	22211
855.256	22169
855.39	22090
855.524	22325
855.658	22344
855.792	22291
855.926	22253
856.06	22192
856.194	22291
856.327	22215
856.461	22173
856.595	22306
856.729	22352
856.862	22341
856.996	22322
857.13	22219
857.263	22341
857.397	22314
857.53	22128
857.664	22310
857.797	22230
857.931	22352
858.064	22318
858.197	22226
858.331	22246
858.464	22230
858.597	22219
858.731	22314
858.864	22219
858.997	22257
859.13	22306
859.263	22291
859.396	22238
859.529	22204
859.662	22284
859.795	22291
859.928	22226
860.061	22386
860.194	22451
860.327	22158
860.46	22242
860.592	22405
860.725	22329
860.858	22310
860.99	22230
861.123	22185
861.256	22249
861.388	22211
861.521	23018
861.653	22143
861.786	22078
861.918	21960
862.05	21945
862.183	22139
862.315	22139
862.447	22291
862.58	22135
862.712	21972
862.844	21857
862.976	21994
863.108	21964
863.24	22379
863.372	21899
863.504	21975
863.636	21899
863.768	21884
863.9	22063
864.032	21983
864.164	21873
864.296	21979
864.428	21953
864.559	22070
864.691	22055
864.823	21979
864.954	21854
865.086	21949
865.217	21892
865.349	21793
865.48	21770
865.612	21797
865.743	21994
865.875	21926
866.006	21907
866.137	21781
866.269	21873
866.4	21827
866.531	21770
866.662	21770
866.793	21838
866.924	21766
867.055	21797
867.186	21759
867.317	21762
867.448	21648
867.579	21709
867.71	21595
867.841	21599
867.972	21759
868.103	21679
868.233	21732
868.364	21743
868.495	21850
868.625	21979
868.756	22124
868.886	21808
869.017	21915
869.147	22055
869.278	22112
869.408	21926
869.539	21983
869.669	21979
869.799	22017
869.929	22120
870.06	22219
870.19	22246
870.32	22287
870.45	22363
870.58	22367
870.71	22417
870.84	22466
870.97	22337
871.1	22470
871.23	22542
871.36	22527
871.489	22485
871.619	22557
871.749	22577
871.879	22618
872.008	22683
872.138	22523
872.267	22607
872.397	22462
872.526	22352
872.656	22489
872.785	22428
872.915	22630
873.044	22557
873.173	22675
873.303	22596
873.432	22641
873.561	22565
873.69	22500
873.819	22675
873.948	22618
874.077	22607
874.206	22516
874.335	22569
874.464	22748
874.593	22797
874.722	22923
874.851	22717
874.979	22809
875.108	22755
875.237	22660
875.365	22618
875.494	22824
875.623	22835
875.751	22797
875.88	22736
876.008	22942
876.136	23006
876.265	23261
876.393	23364
876.521	23318
876.65	23178
876.778	23212
876.906	23151
877.034	23090
877.162	23128
877.29	22987
877.418	23170
877.546	23071
877.674	23197
877.802	23216
877.93	23151
878.058	23193
878.185	23044
878.313	23155
878.441	23155
878.568	22904
878.696	23067
878.824	23147
878.951	23280
879.079	23254
879.206	23463
879.333	23296
879.461	23155
879.588	23284
879.715	23337
879.842	23478
879.97	23105
880.097	22972
880.224	22873
880.351	22915
880.478	22984
880.605	22953
880.732	22984
880.859	23258
880.986	22949
881.112	23071
881.239	22949
881.366	22641
881.493	22694
881.619	22493
881.746	22519
881.872	22535
881.999	22470
882.125	22565
882.252	22561
882.378	22436
882.505	22596
882.631	22394
882.757	22192
882.883	22318
883.01	22261
883.136	22166
883.262	22147
883.388	21968
883.514	22249
883.64	22185
883.766	22143
883.892	21918
884.018	21934
884.143	22070
884.269	22303
884.395	21903
884.52	21823
884.646	21816
884.772	21762
884.897	21846
885.023	21854
885.148	22048
885.274	21922
885.399	21903
885.524	21751
885.65	21785
885.775	21781
885.9	21713
886.025	21876
886.15	21945
886.275	21812
886.4	21873
886.525	21797
886.65	21873
886.775	21698
886.9	21953
887.025	21941
887.149	21934
887.274	21625
887.399	21660
887.523	21728
887.648	21526
887.773	21492
887.897	21641
888.021	21675
888.146	21561
888.27	21652
888.395	21690
888.519	21641
888.643	21675
888.767	21583
888.891	21603
889.015	21469
889.139	21424
889.263	21218
889.387	21591
889.511	21599
889.635	21564
889.759	21439
889.883	21367
890.006	21443
890.13	21416
890.254	21355
890.377	21252
890.501	21192
890.624	21036
890.748	21184
890.871	21081
890.995	20990
891.118	20914
891.241	21017
891.364	20925
891.488	21017
891.611	20979
891.734	20986
891.857	20994
891.98	20880
892.103	21074
892.226	20979
892.349	20925
892.471	20746
892.594	20948
892.717	20918
892.839	20819
892.962	20781
893.085	20872
893.207	20921
893.33	20651
893.452	20765
893.575	20990
893.697	20750
893.819	21058
893.941	21005
894.064	20921
894.186	20792
894.308	20625
894.43	20986
894.552	20921
894.674	20918
894.796	20788
894.918	20834
895.04	20769
895.161	20864
895.283	20895
895.405	20857
895.526	20876
895.648	20925
895.769	20815
895.891	20861
896.012	20994
896.134	20785
896.255	20872
896.376	20872
896.498	20781
896.619	20845
896.74	20739
896.861	20845
896.982	21180
897.103	21237
897.224	21112
897.345	21127
897.466	20967
897.587	21062
897.708	21104
897.828	21085
897.949	20998
898.07	20716
898.19	20956
898.311	21036
898.431	20956
898.552	20952
898.672	20963
898.792	21024
898.913	21017
899.033	20960
899.153	20849
899.273	20708
899.393	20773
899.513	20811
899.633	20735
899.753	20857
899.873	20743
899.993	20659
900.113	20724
900.232	20777
900.352	20617
900.472	20507
900.591	20530
900.711	20564
900.83	20480
900.95	20522
901.069	20678
901.189	20415
901.308	20221
901.427	20054
901.546	20088
901.665	20103
901.784	20050
901.904	19951
902.023	19742
902.141	19643
902.26	19597
902.379	19696
902.498	19552
902.617	19457
902.735	19590
902.854	19559
902.973	19483
903.091	19327
903.21	19175
903.328	19259
903.446	19160
903.565	19027
903.683	19015
903.801	18947
903.919	19019
904.038	18970
904.156	18859
904.274	19050
904.392	18802
904.51	18840
904.627	18848
904.745	18928
904.863	18859
904.981	18551
905.098	18486
905.216	18532
905.334	18604
905.451	18490
905.569	18483
905.686	18585
905.803	18448
905.921	18289
906.038	18422
906.155	18384
906.272	18186
906.389	18155
906.506	18087
906.623	18140
906.74	18003
906.857	17923
906.974	17958
907.091	18030
907.208	18258
907.324	18053
907.441	17908
907.557	17828
907.674	17790
907.79	17680
907.907	17687
908.023	17737
908.139	17764
908.256	17714
908.372	17695
908.488	17524
908.604	17490
908.72	17471
908.836	17509
908.952	17410
909.068	17440
909.184	17566
909.3	17349
909.415	17509
909.531	17406
909.647	17231
909.762	17143
909.878	17212
909.993	17181
910.108	17143
910.224	17147
910.339	17132
910.454	17037
910.57	17029
910.685	16896
910.8	17235
910.915	17098
911.03	16968
911.145	16869
911.259	16786
911.374	16713
911.489	16664
911.604	16599
911.718	16508
911.833	16523
911.947	16337
912.062	16306
912.176	16466
912.291	16443
912.405	16459
912.519	16618
912.633	16550
912.748	16569
912.862	16485
912.976	16223
913.09	16223
913.204	16219
913.318	16200
913.431	16352
913.545	16390
913.659	16398
913.772	16329
913.886	16173
914	16093
914.113	16139
914.226	16181
914.34	16109
914.453	15956
914.566	16109
914.68	16063
914.793	15945
914.906	15724
915.019	15671
915.132	15568
915.245	15603
915.358	15785
915.47	15698
915.583	15728
915.696	15663
915.809	15743
915.921	15759
916.034	15587
916.146	15485
916.259	15542
916.371	15637
916.483	15485
916.595	15564
916.708	15462
916.82	15496
916.932	15412
917.044	15496
917.156	15370
917.268	15268
917.38	15313
917.491	15317
917.603	15336
917.715	15389
917.826	15351
917.938	15119
918.049	15157
918.161	15116
918.272	15393
918.384	15355
918.495	15146
918.606	14979
918.717	14910
918.828	15047
918.939	15062
919.05	14872
919.161	15020
919.272	14823
919.383	14864
919.494	15112
919.604	15287
919.715	15036
919.826	14849
919.936	14982
920.047	15024
920.157	15001
920.267	15150
920.378	15051
920.488	14963
920.598	15127
920.708	15332
920.818	15123
920.928	15108
921.038	15188
921.148	15249
921.258	14906
921.368	14876
921.477	14864
921.587	14800
921.697	14663
921.806	14708
921.916	14678
922.025	14446
922.134	14332
922.244	14374
922.353	14381
922.462	14225
922.571	14210
922.68	14062
922.789	14031
922.898	14069
923.007	13986
923.116	14050
923.224	13871
923.333	13864
923.442	13761
923.55	13772
923.659	13845
923.767	13959
923.876	13734
923.984	13837
924.092	13613
924.201	13712
924.309	13715
924.417	13750
924.525	13613
924.633	13552
924.741	14564
924.849	13502
924.956	13480
925.064	13445
925.172	13297
925.279	13441
925.387	13407
925.494	13415
925.602	13476
925.709	13407
925.816	13274
925.924	13373
926.031	13460
926.138	13282
926.245	13381
926.352	13187
926.459	13324
926.566	13438
926.673	13183
926.779	13114
926.886	13084
926.993	12928
927.099	12981
927.206	12856
927.312	12852
927.419	12935
927.525	12913
927.631	12993
927.737	12806
927.843	12833
927.95	12570
928.056	12821
928.162	12783
928.267	12722
928.373	13354
928.479	12821
928.585	12525
928.69	12753
928.796	12715
928.901	12696
929.007	12460
929.112	12673
929.218	12563
929.323	12448
929.428	12391
929.533	12517
929.638	12467
929.743	12471
929.848	12448
929.953	12452
930.058	12262
930.163	12167
930.267	12121
930.372	12205
930.477	12068
930.581	12258
930.685	12148
930.79	12034
930.894	12079
930.998	11942
931.103	12049
931.207	11703
931.311	11672
931.415	11634
931.519	11417
931.623	11410
