Data from test_V78500241_911.txt Node
Date: Fri Mar 25 15:16:12 CST 2022
User: usil
Spectrometer: V785-0024
Trigger mode: 0
Integration Time (sec): 4.000000E-1
Scans to average: 1
Nonlinearity correction enabled: false
Boxcar width: 0
Storing dark spectrum: false
XAxis mode: Wavelengths
Number of Pixels in Spectrum: 1024
>>>>>Begin Spectral Data<<<<<
801.071	28173
801.214	28143
801.356	27800
801.499	27873
801.641	27717
801.783	27804
801.926	27911
802.068	27816
802.211	27599
802.353	27542
802.496	27355
802.638	27526
802.78	27431
802.923	27363
803.065	27291
803.208	27435
803.35	27386
803.492	27599
803.635	27648
803.777	27477
803.919	27595
804.061	27930
804.204	27774
804.346	27511
804.488	27599
804.63	27652
804.773	27488
804.915	27641
805.057	27720
805.199	27542
805.341	27819
805.483	27812
805.626	27804
805.768	27671
805.91	27743
806.052	27591
806.194	27724
806.336	27884
806.478	27679
806.62	27781
806.762	27869
806.904	28067
807.046	28265
807.188	28185
807.33	28112
807.472	28090
807.614	28105
807.756	28280
807.898	28040
808.04	28010
808.182	27975
808.324	28051
808.465	28112
808.607	28204
808.749	28390
808.891	28504
809.033	28542
809.174	28489
809.316	28261
809.458	28474
809.6	28424
809.741	28596
809.883	28512
810.025	28683
810.166	28710
810.308	28637
810.45	28546
810.591	28523
810.733	28440
810.875	28451
811.016	28344
811.158	28356
811.299	28363
811.441	28672
811.582	28584
811.724	28356
811.865	28470
812.007	28390
812.148	28440
812.29	28375
812.431	28577
812.573	28809
812.714	28946
812.855	29033
812.997	29105
813.138	29022
813.279	29216
813.421	28965
813.562	28858
813.703	28687
813.845	28748
813.986	28356
814.127	28215
814.268	28078
814.41	28048
814.551	28207
814.692	28177
814.833	28185
814.974	28070
815.115	28215
815.256	27907
815.397	28013
815.539	28055
815.68	27914
815.821	27911
815.962	27926
816.103	28025
816.244	27827
816.385	27717
816.526	27736
816.666	27507
816.807	27359
816.948	27496
817.089	27397
817.23	27469
817.371	27447
817.512	27393
817.653	27515
817.793	27424
817.934	27367
818.075	27336
818.216	27378
818.356	27393
818.497	27332
818.638	27028
818.778	27230
818.919	27317
819.06	27264
819.2	27325
819.341	27443
819.481	27545
819.622	27637
819.762	27728
819.903	27755
820.043	27603
820.184	27492
820.324	27553
820.465	27599
820.605	27549
820.746	27564
820.886	27412
821.026	27507
821.167	27595
821.307	27424
821.447	27416
821.588	27469
821.728	27207
821.868	27085
822.008	26956
822.149	26815
822.289	26925
822.429	26609
822.569	26480
822.709	26659
822.849	26374
822.99	26522
823.13	26442
823.27	26294
823.41	26218
823.55	26149
823.69	26240
823.83	26168
823.97	26233
824.11	26054
824.25	26035
824.389	26035
824.529	26077
824.669	25932
824.809	26290
824.949	26069
825.089	26206
825.228	26031
825.368	25909
825.508	25894
825.648	25982
825.787	26027
825.927	25989
826.067	25898
826.206	25982
826.346	25875
826.485	26020
826.625	25986
826.765	26176
826.904	25925
827.044	25753
827.183	25753
827.323	25712
827.462	25811
827.601	25784
827.741	25514
827.88	25666
828.02	25415
828.159	25689
828.298	25578
828.437	25856
828.577	25696
828.716	25826
828.855	25696
828.994	25343
829.134	25457
829.273	25445
829.412	25354
829.551	25316
829.69	25499
829.829	25293
829.968	25468
830.107	25411
830.246	25438
830.385	25266
830.524	25282
830.663	25228
830.802	24985
830.941	25034
831.08	24985
831.219	25061
831.357	25076
831.496	25293
831.635	25031
831.774	24867
831.913	24909
832.051	24829
832.19	24673
832.329	24840
832.467	24673
832.606	24707
832.744	24540
832.883	24578
833.022	24616
833.16	24677
833.299	24730
833.437	24745
833.576	24700
833.714	24810
833.852	24848
833.991	24764
834.129	24932
834.267	24825
834.406	24654
834.544	24745
834.682	24772
834.821	24715
834.959	24894
835.097	24563
835.235	24741
835.373	24798
835.511	24722
835.65	24540
835.788	24551
835.926	24536
836.064	24391
836.202	24365
836.34	24582
836.478	24787
836.615	24437
836.753	24658
836.891	24661
837.029	24452
837.167	24471
837.305	24604
837.443	24456
837.58	24429
837.718	24429
837.856	24391
837.993	24384
838.131	24292
838.269	24266
838.406	24372
838.544	24300
838.681	23992
838.819	24030
838.956	23885
839.094	23870
839.231	23889
839.369	24018
839.506	24159
839.643	24072
839.781	23870
839.918	23718
840.055	23794
840.193	23916
840.33	23798
840.467	23798
840.604	23779
840.742	24026
840.879	23684
841.016	23691
841.153	23604
841.29	23771
841.427	23786
841.564	23840
841.701	23707
841.838	23745
841.975	23657
842.112	23581
842.249	23486
842.385	23604
842.522	23733
842.659	23581
842.796	23653
842.933	23436
843.069	23570
843.206	23524
843.343	23684
843.479	23551
843.616	23509
843.752	23364
843.889	23402
844.025	23452
844.162	23349
844.298	23452
844.435	23429
844.571	23296
844.708	23440
844.844	23471
844.98	23547
845.117	23440
845.253	23258
845.389	23124
845.525	23178
845.661	23064
845.798	22961
845.934	23029
846.07	22965
846.206	23117
846.342	23071
846.478	22999
846.614	22896
846.75	22713
846.886	22778
847.022	22896
847.158	22694
847.294	22771
847.429	22782
847.565	22759
847.701	22911
847.837	22443
847.972	22542
848.108	22481
848.244	22538
848.379	22508
848.515	22371
848.65	22284
848.786	22268
848.921	22325
849.057	22535
849.192	22417
849.328	22413
849.463	22344
849.598	22276
849.734	22249
849.869	22188
850.004	22135
850.14	22173
850.275	22188
850.41	22055
850.545	22173
850.68	21979
850.815	22215
850.95	22093
851.085	22287
851.22	22188
851.355	22131
851.49	22025
851.625	22010
851.76	21975
851.895	22177
852.03	22063
852.165	22131
852.299	22249
852.434	22185
852.569	22257
852.703	22093
852.838	22147
852.973	22223
853.107	22280
853.242	22143
853.376	22006
853.511	21819
853.645	22013
853.78	22078
853.914	21926
854.048	21907
854.183	21869
854.317	21964
854.451	22215
854.585	21922
854.72	21934
854.854	22006
854.988	21812
855.122	21956
855.256	21857
855.39	21945
855.524	21983
855.658	21926
855.792	21941
855.926	22032
856.06	22044
856.194	22093
856.327	21911
856.461	21823
856.595	21994
856.729	22006
856.862	22036
856.996	22063
857.13	22101
857.263	22093
857.397	22006
857.53	21930
857.664	22032
857.797	22067
857.931	22128
858.064	22032
858.197	22074
858.331	21857
858.464	21797
858.597	21827
858.731	21892
858.864	21880
858.997	21850
859.13	21800
859.263	21930
859.396	22116
859.529	22013
859.662	21918
859.795	21884
859.928	22002
860.061	22169
860.194	22112
860.327	22036
860.46	22070
860.592	22074
860.725	22230
860.858	22051
860.99	21876
861.123	22032
861.256	21987
861.388	21960
861.521	22630
861.653	21880
861.786	21675
861.918	21842
862.05	21945
862.183	21842
862.315	21774
862.447	21941
862.58	21800
862.712	21625
862.844	21652
862.976	21823
863.108	21739
863.24	22044
863.372	21698
863.504	21542
863.636	21667
863.768	21816
863.9	21553
864.032	21603
864.164	21671
864.296	21660
864.428	21831
864.559	21732
864.691	21667
864.823	21728
864.954	21625
865.086	21633
865.217	21553
865.349	21496
865.48	21553
865.612	21507
865.743	21720
865.875	21583
866.006	21507
866.137	21625
866.269	21507
866.4	21576
866.531	21462
866.662	21401
866.793	21450
866.924	21405
867.055	21500
867.186	21606
867.317	21329
867.448	21382
867.579	21462
867.71	21408
867.841	21412
867.972	21534
868.103	21405
868.233	21420
868.364	21534
868.495	21534
868.625	21698
868.756	21838
868.886	21736
869.017	21720
869.147	21880
869.278	21755
869.408	21545
869.539	21720
869.669	21819
869.799	21785
869.929	21785
870.06	21774
870.19	22097
870.32	21983
870.45	22059
870.58	22120
870.71	22299
870.84	22314
870.97	22135
871.1	22150
871.23	22405
871.36	22234
871.489	22230
871.619	22166
871.749	22318
871.879	22318
872.008	22417
872.138	22291
872.267	22280
872.397	22268
872.526	22086
872.656	22131
872.785	22166
872.915	22337
873.044	22436
873.173	22337
873.303	22394
873.432	22375
873.561	22500
873.69	22382
873.819	22329
873.948	22375
874.077	22314
874.206	22329
874.335	22436
874.464	22443
874.593	22653
874.722	22447
874.851	22504
874.979	22554
875.108	22523
875.237	22417
875.365	22417
875.494	22432
875.623	22557
875.751	22508
875.88	22542
876.008	22634
876.136	22710
876.265	22828
876.393	22900
876.521	23025
876.65	23121
876.778	22896
876.906	22809
877.034	22828
877.162	22984
877.29	22824
877.418	22885
877.546	22847
877.674	22957
877.802	22725
877.93	22858
878.058	22919
878.185	22763
878.313	22759
878.441	22881
878.568	22759
878.696	22835
878.824	22919
878.951	23071
879.079	23064
879.206	23250
879.333	22984
879.461	22885
879.588	23003
879.715	22942
879.842	23200
879.97	22972
880.097	22664
880.224	22748
880.351	22759
880.478	22672
880.605	22721
880.732	22691
880.859	22862
880.986	22698
881.112	22786
881.239	22523
881.366	22561
881.493	22440
881.619	22238
881.746	22303
881.872	22299
881.999	22169
882.125	22139
882.252	22379
882.378	22147
882.505	22432
882.631	22097
882.757	21934
882.883	21998
883.01	22002
883.136	21964
883.262	21709
883.388	21823
883.514	22078
883.64	21987
883.766	21949
883.892	21675
884.018	21698
884.143	21819
884.269	22036
884.395	21583
884.52	21717
884.646	21606
884.772	21549
884.897	21477
885.023	21591
885.148	21743
885.274	21698
885.399	21694
885.524	21523
885.65	21580
885.775	21690
885.9	21671
886.025	21648
886.15	21701
886.275	21591
886.4	21530
886.525	21599
886.65	21500
886.775	21519
886.9	21622
887.025	21835
887.149	21568
887.274	21386
887.399	21359
887.523	21294
887.648	21348
887.773	21317
887.897	21576
888.021	21374
888.146	21378
888.27	21496
888.395	21439
888.519	21363
888.643	21355
888.767	21454
888.891	21264
889.015	21161
889.139	21241
889.263	21146
889.387	21245
889.511	21374
889.635	21279
889.759	21108
889.883	21017
890.006	21169
890.13	21180
890.254	21138
890.377	21062
890.501	20880
890.624	20746
890.748	20883
890.871	20876
890.995	20788
891.118	20697
891.241	20575
891.364	20651
891.488	20834
891.611	20697
891.734	20712
891.857	20758
891.98	20727
892.103	20781
892.226	20670
892.349	20617
892.471	20587
892.594	20537
892.717	20659
892.839	20659
892.962	20609
893.085	20640
893.207	20511
893.33	20461
893.452	20507
893.575	20587
893.697	20625
893.819	20625
893.941	20716
894.064	20689
894.186	20575
894.308	20530
894.43	20632
894.552	20796
894.674	20727
894.796	20541
894.918	20522
895.04	20514
895.161	20545
895.283	20674
895.405	20499
895.526	20575
895.648	20511
895.769	20663
895.891	20609
896.012	20773
896.134	20495
896.255	20712
896.376	20533
896.498	20514
896.619	20689
896.74	20503
896.861	20667
896.982	20807
897.103	20982
897.224	20880
897.345	20762
897.466	20712
897.587	20773
897.708	20868
897.828	20872
897.949	20556
898.07	20682
898.19	20552
898.311	20910
898.431	20826
898.552	20804
898.672	20842
898.792	20720
898.913	20773
899.033	20648
899.153	20602
899.273	20526
899.393	20549
899.513	20495
899.633	20533
899.753	20556
899.873	20648
899.993	20552
900.113	20499
900.232	20419
900.352	20442
900.472	20305
900.591	20362
900.711	20309
900.83	20233
900.95	20343
901.069	20415
901.189	20191
901.308	19997
901.427	19807
901.546	19902
901.665	19936
901.784	19871
901.904	19651
902.023	19647
902.141	19495
902.26	19392
902.379	19525
902.498	19449
902.617	19244
902.735	19350
902.854	19312
902.973	19274
903.091	19069
903.21	19202
903.328	19050
903.446	19072
903.565	18840
903.683	18924
903.801	18753
903.919	18795
904.038	18875
904.156	18585
904.274	18684
904.392	18589
904.51	18623
904.627	18589
904.745	18555
904.863	18654
904.981	18395
905.098	18330
905.216	18281
905.334	18315
905.451	18235
905.569	18228
905.686	18350
905.803	18292
905.921	18057
906.038	18311
906.155	18125
906.272	18079
906.389	18007
906.506	17786
906.623	17832
906.74	17863
906.857	17733
906.974	17699
907.091	17798
907.208	17916
907.324	17805
907.441	17745
907.557	17627
907.674	17554
907.79	17364
907.907	17478
908.023	17600
908.139	17463
908.256	17395
908.372	17497
908.488	17459
908.604	17178
908.72	17124
908.836	17208
908.952	17231
909.068	17200
909.184	17334
909.3	17159
909.415	17303
909.531	17094
909.647	16957
909.762	17079
909.878	16896
909.993	16919
910.108	16809
910.224	16885
910.339	16919
910.454	16858
910.57	16839
910.685	16721
910.8	17003
910.915	16900
911.03	16801
911.145	16584
911.259	16573
911.374	16508
911.489	16497
911.604	16352
911.718	16272
911.833	16379
911.947	16204
912.062	16051
912.176	16196
912.291	16200
912.405	16276
912.519	16493
912.633	16440
912.748	16394
912.862	16226
912.976	16074
913.09	16044
913.204	16090
913.318	16090
913.431	16204
913.545	16048
913.659	16185
913.772	16036
913.886	15945
914	15911
914.113	15838
914.226	15994
914.34	15899
914.453	15743
914.566	15964
914.68	15823
914.793	15823
914.906	15523
915.019	15496
915.132	15393
915.245	15412
915.358	15538
915.47	15549
915.583	15447
915.696	15561
915.809	15584
915.921	15591
916.034	15443
916.146	15389
916.259	15443
916.371	15447
916.483	15428
916.595	15260
916.708	15370
916.82	15355
916.932	15260
917.044	15241
917.156	15233
917.268	15131
917.38	15085
917.491	15066
917.603	15097
917.715	15211
917.826	15169
917.938	15013
918.049	14929
918.161	15097
918.272	15169
918.384	15142
918.495	15085
918.606	14967
918.717	14849
918.828	14868
918.939	14982
919.05	14727
919.161	14819
919.272	14648
919.383	14727
919.494	14933
919.604	15070
919.715	14804
919.826	14735
919.936	14929
920.047	14925
920.157	14880
920.267	14963
920.378	14876
920.488	14781
920.598	14994
920.708	15032
920.818	14929
920.928	15005
921.038	15043
921.148	15017
921.258	14758
921.368	14724
921.477	14640
921.587	14465
921.697	14332
921.806	14526
921.916	14492
922.025	14221
922.134	14180
922.244	14187
922.353	14191
922.462	14069
922.571	13944
922.68	13795
922.789	13887
922.898	13849
923.007	13776
923.116	13864
923.224	13845
923.333	13753
923.442	13708
923.55	13655
923.659	13620
923.767	13674
923.876	13548
923.984	13742
924.092	13575
924.201	13460
924.309	13586
924.417	13548
924.525	13445
924.633	13438
924.741	14305
924.849	13289
924.956	13457
925.064	13278
925.172	13160
925.279	13202
925.387	13194
925.494	13194
925.602	13251
925.709	13228
925.816	13145
925.924	13232
926.031	13236
926.138	13209
926.245	13145
926.352	13107
926.459	13183
926.566	13217
926.673	13095
926.779	12947
926.886	12943
926.993	12776
927.099	12825
927.206	12738
927.312	12711
927.419	12776
927.525	12688
927.631	12840
927.737	12711
927.843	12608
927.95	12574
928.056	12547
928.162	12646
928.267	12665
928.373	13247
928.479	12711
928.585	12452
928.69	12574
928.796	12642
928.901	12521
929.007	12327
929.112	12426
929.218	12509
929.323	12410
929.428	12273
929.533	12490
929.638	12254
929.743	12270
929.848	12311
929.953	12323
930.058	12182
930.163	11969
930.267	11980
930.372	12060
930.477	12011
930.581	12205
930.685	11931
930.79	11935
930.894	11969
930.998	11889
931.103	12019
931.207	11596
931.311	11528
931.415	11440
931.519	11299
931.623	11242
