Data from test_V78500241_2865.txt Node
Date: Fri Mar 25 15:29:48 CST 2022
User: usil
Spectrometer: V785-0024
Trigger mode: 0
Integration Time (sec): 4.000000E-1
Scans to average: 1
Nonlinearity correction enabled: false
Boxcar width: 0
Storing dark spectrum: false
XAxis mode: Wavelengths
Number of Pixels in Spectrum: 1024
>>>>>Begin Spectral Data<<<<<
801.071	27112
801.214	27039
801.356	26963
801.499	26826
801.641	26686
801.783	26804
801.926	26575
802.068	26743
802.211	26636
802.353	26533
802.496	26431
802.638	26305
802.78	26404
802.923	26202
803.065	26347
803.208	26317
803.35	26317
803.492	26465
803.635	26514
803.777	26427
803.919	26358
804.061	26792
804.204	26640
804.346	26328
804.488	26259
804.63	26484
804.773	26530
804.915	26495
805.057	26617
805.199	26408
805.341	26495
805.483	26613
805.626	26579
805.768	26514
805.91	26545
806.052	26564
806.194	26564
806.336	26746
806.478	26590
806.62	26636
806.762	26693
806.904	26864
807.046	27039
807.188	27051
807.33	26971
807.472	26971
807.614	26933
807.756	26895
807.898	26868
808.04	26716
808.182	26785
808.324	26845
808.465	26811
808.607	26967
808.749	27260
808.891	27127
809.033	27317
809.174	27260
809.316	27176
809.458	27169
809.6	27173
809.741	27458
809.883	27420
810.025	27469
810.166	27458
810.308	27416
810.45	27412
810.591	27310
810.733	27142
810.875	27058
811.016	27169
811.158	27009
811.299	27348
811.441	27401
811.582	27302
811.724	27222
811.865	27024
812.007	27131
812.148	27005
812.29	27157
812.431	27405
812.573	27454
812.714	27416
812.855	27747
812.997	27690
813.138	27953
813.279	27720
813.421	27679
813.562	27591
813.703	27348
813.845	27450
813.986	27093
814.127	26994
814.268	26963
814.41	26830
814.551	26762
814.692	26944
814.833	26659
814.974	26819
815.115	26925
815.256	26720
815.397	26678
815.539	26689
815.68	26617
815.821	26484
815.962	26621
816.103	26568
816.244	26526
816.385	26419
816.526	26351
816.666	26183
816.807	26031
816.948	26225
817.089	26275
817.23	26126
817.371	25974
817.512	26111
817.653	25955
817.793	26008
817.934	26069
818.075	26077
818.216	26130
818.356	26122
818.497	26115
818.638	25746
818.778	25753
818.919	25864
819.06	25951
819.2	25989
819.341	26092
819.481	26008
819.622	26294
819.762	26343
819.903	26377
820.043	26328
820.184	26244
820.324	26164
820.465	26301
820.605	26278
820.746	26084
820.886	26084
821.026	26187
821.167	26172
821.307	26172
821.447	26153
821.588	25963
821.728	25921
821.868	25605
822.008	25643
822.149	25518
822.289	25559
822.429	25445
822.569	25202
822.709	25259
822.849	25069
822.99	25091
823.13	25050
823.27	25069
823.41	24833
823.55	24825
823.69	24897
823.83	24970
823.97	24764
824.11	24692
824.25	24631
824.389	24642
824.529	24783
824.669	24764
824.809	24897
824.949	24890
825.089	24715
825.228	24814
825.368	24547
825.508	24448
825.648	24498
825.787	24604
825.927	24612
826.067	24498
826.206	24433
826.346	24589
826.485	24669
826.625	24597
826.765	24627
826.904	24547
827.044	24437
827.183	24361
827.323	24251
827.462	24319
827.601	24308
827.741	24235
827.88	24220
828.02	24022
828.159	24258
828.298	24292
828.437	24258
828.577	24194
828.716	24258
828.855	24095
828.994	23942
829.134	23954
829.273	24079
829.412	23961
829.551	23840
829.69	23775
829.829	24007
829.968	24224
830.107	24022
830.246	23931
830.385	23843
830.524	23802
830.663	23710
830.802	23577
830.941	23444
831.08	23554
831.219	23528
831.357	23592
831.496	23840
831.635	23634
831.774	23444
831.913	23448
832.051	23345
832.19	23311
832.329	23296
832.467	23086
832.606	23193
832.744	23280
832.883	23178
833.022	23067
833.16	23216
833.299	23235
833.437	23307
833.576	23280
833.714	23151
833.852	23288
833.991	23429
834.129	23376
834.267	23372
834.406	23284
834.544	23212
834.682	23288
834.821	23140
834.959	23493
835.097	23326
835.235	23372
835.373	23174
835.511	23322
835.65	23189
835.788	23128
835.926	23033
836.064	22923
836.202	23048
836.34	23121
836.478	23269
836.615	23105
836.753	23071
836.891	23132
837.029	23113
837.167	23109
837.305	23052
837.443	23090
837.58	23018
837.718	22972
837.856	22896
837.993	22828
838.131	22816
838.269	22843
838.406	22961
838.544	22702
838.681	22672
838.819	22611
838.956	22455
839.094	22318
839.231	22447
839.369	22573
839.506	22729
839.643	22611
839.781	22424
839.918	22333
840.055	22402
840.193	22379
840.33	22291
840.467	22192
840.604	22379
840.742	22649
840.879	22261
841.016	22314
841.153	22344
841.29	22489
841.427	22375
841.564	22371
841.701	22204
841.838	22375
841.975	22101
842.112	22280
842.249	22226
842.385	22154
842.522	22440
842.659	22185
842.796	22093
842.933	22051
843.069	22040
843.206	22002
843.343	22158
843.479	22074
843.616	22032
843.752	22002
843.889	21918
844.025	22029
844.162	21911
844.298	21972
844.435	21838
844.571	21846
844.708	21869
844.844	22048
844.98	22036
845.117	22036
845.253	21934
845.389	21701
845.525	21751
845.661	21774
845.798	21686
845.934	21682
846.07	21618
846.206	21671
846.342	21766
846.478	21603
846.614	21447
846.75	21332
846.886	21272
847.022	21408
847.158	21443
847.294	21272
847.429	21412
847.565	21374
847.701	21580
847.837	21051
847.972	21074
848.108	21180
848.244	21104
848.379	20956
848.515	20975
848.65	20979
848.786	21001
848.921	20880
849.057	21161
849.192	21001
849.328	20967
849.463	20990
849.598	20864
849.734	20937
849.869	20906
850.004	20834
850.14	20804
850.275	20708
850.41	20678
850.545	20629
850.68	20651
850.815	20731
850.95	20781
851.085	20899
851.22	20842
851.355	20777
851.49	20644
851.625	20648
851.76	20727
851.895	20689
852.03	20613
852.165	20682
852.299	20777
852.434	20872
852.569	20564
852.703	20724
852.838	20861
852.973	20861
853.107	20895
853.242	20705
853.376	20552
853.511	20332
853.645	20442
853.78	20602
853.914	20724
854.048	20526
854.183	20537
854.317	20514
854.451	20731
854.585	20507
854.72	20533
854.854	20541
854.988	20393
855.122	20549
855.256	20446
855.39	20511
855.524	20530
855.658	20499
855.792	20541
855.926	20564
856.06	20621
856.194	20613
856.327	20640
856.461	20404
856.595	20404
856.729	20560
856.862	20655
856.996	20583
857.13	20743
857.263	20697
857.397	20674
857.53	20682
857.664	20583
857.797	20758
857.931	20587
858.064	20731
858.197	20648
858.331	20545
858.464	20347
858.597	20412
858.731	20526
858.864	20560
858.997	20545
859.13	20632
859.263	20568
859.396	20602
859.529	20644
859.662	20526
859.795	20518
859.928	20590
860.061	20708
860.194	20659
860.327	20613
860.46	20537
860.592	20655
860.725	20602
860.858	20518
860.99	20541
861.123	20495
861.256	20457
861.388	20609
861.521	21245
861.653	20457
861.786	20336
861.918	20389
862.05	20431
862.183	20374
862.315	20415
862.447	20552
862.58	20396
862.712	20298
862.844	20221
862.976	20415
863.108	20469
863.24	20651
863.372	20237
863.504	20267
863.636	20290
863.768	20309
863.9	20157
864.032	20275
864.164	20396
864.296	20237
864.428	20286
864.559	20305
864.691	20381
864.823	20225
864.954	20161
865.086	20237
865.217	20248
865.349	20122
865.48	20145
865.612	20282
865.743	20210
865.875	20161
866.006	20103
866.137	20153
866.269	20145
866.4	20244
866.531	20115
866.662	20134
866.793	20134
866.924	20176
867.055	20122
867.186	20126
867.317	20134
867.448	20027
867.579	20168
867.71	20191
867.841	20081
867.972	20138
868.103	20168
868.233	20153
868.364	20088
868.495	20240
868.625	20324
868.756	20404
868.886	20199
869.017	20259
869.147	20427
869.278	20408
869.408	20313
869.539	20324
869.669	20476
869.799	20396
869.929	20480
870.06	20526
870.19	20655
870.32	20640
870.45	20720
870.58	20777
870.71	20887
870.84	20883
870.97	20724
871.1	20724
871.23	20785
871.36	20971
871.489	20811
871.619	20952
871.749	20948
871.879	21001
872.008	21032
872.138	21020
872.267	21028
872.397	20777
872.526	20788
872.656	20762
872.785	20796
872.915	20921
873.044	20967
873.173	21055
873.303	20975
873.432	20933
873.561	21176
873.69	20967
873.819	20994
873.948	21039
874.077	21001
874.206	20857
874.335	20914
874.464	21077
874.593	21081
874.722	21203
874.851	21230
874.979	21317
875.108	21203
875.237	21264
875.365	21017
875.494	21176
875.623	21329
875.751	21142
875.88	21249
876.008	21306
876.136	21431
876.265	21530
876.393	21671
876.521	21720
876.65	21557
876.778	21625
876.906	21633
877.034	21599
877.162	21618
877.29	21572
877.418	21583
877.546	21660
877.674	21561
877.802	21515
877.93	21561
878.058	21443
878.185	21370
878.313	21477
878.441	21587
878.568	21351
878.696	21462
878.824	21606
878.951	21637
879.079	21644
879.206	21926
879.333	21785
879.461	21530
879.588	21622
879.715	21736
879.842	21876
879.97	21534
880.097	21477
880.224	21336
880.351	21549
880.478	21408
880.605	21302
880.732	21443
880.859	21538
880.986	21367
881.112	21431
881.239	21370
881.366	21321
881.493	21157
881.619	21036
881.746	21077
881.872	20895
881.999	20994
882.125	20902
882.252	20971
882.378	20933
882.505	21127
882.631	20986
882.757	20613
882.883	20754
883.01	20788
883.136	20678
883.262	20499
883.388	20454
883.514	20655
883.64	20708
883.766	20648
883.892	20473
884.018	20522
884.143	20537
884.269	20682
884.395	20492
884.52	20339
884.646	20259
884.772	20210
884.897	20172
885.023	20377
885.148	20332
885.274	20537
885.399	20309
885.524	20286
885.65	20434
885.775	20351
885.9	20317
886.025	20389
886.15	20385
886.275	20301
886.4	20252
886.525	20396
886.65	20176
886.775	20187
886.9	20351
887.025	20522
887.149	20309
887.274	20092
887.399	20077
887.523	20065
887.648	20058
887.773	20012
887.897	20157
888.021	20221
888.146	20157
888.27	20168
888.395	20100
888.519	20065
888.643	20119
888.767	20103
888.891	20012
889.015	19849
889.139	19936
889.263	19898
889.387	20100
889.511	20122
889.635	20001
889.759	19826
889.883	19906
890.006	19967
890.13	20050
890.254	19936
890.377	19921
890.501	19670
890.624	19655
890.748	19700
890.871	19662
890.995	19438
891.118	19483
891.241	19495
891.364	19495
891.488	19590
891.611	19464
891.734	19616
891.857	19628
891.98	19529
892.103	19605
892.226	19491
892.349	19441
892.471	19312
892.594	19464
892.717	19384
892.839	19392
892.962	19460
893.085	19480
893.207	19324
893.33	19297
893.452	19365
893.575	19514
893.697	19480
893.819	19601
893.941	19693
894.064	19594
894.186	19354
894.308	19381
894.43	19540
894.552	19594
894.674	19556
894.796	19293
894.918	19407
895.04	19483
895.161	19476
895.283	19575
895.405	19377
895.526	19487
895.648	19358
895.769	19521
895.891	19502
896.012	19616
896.134	19533
896.255	19449
896.376	19369
896.498	19445
896.619	19502
896.74	19544
896.861	19537
896.982	19803
897.103	19951
897.224	19738
897.345	19655
897.466	19693
897.587	19765
897.708	19879
897.828	19811
897.949	19765
898.07	19578
898.19	19700
898.311	19784
898.431	19563
898.552	19753
898.672	19708
898.792	19715
898.913	19715
899.033	19655
899.153	19480
899.273	19449
899.393	19403
899.513	19495
899.633	19460
899.753	19472
899.873	19388
899.993	19483
900.113	19453
900.232	19499
900.352	19483
900.472	19251
900.591	19126
900.711	19251
900.83	19304
900.95	19510
901.069	19274
901.189	19206
901.308	19015
901.427	18738
901.546	18878
901.665	18871
901.784	18791
901.904	18726
902.023	18620
902.141	18437
902.26	18342
902.379	18467
902.498	18365
902.617	18418
902.735	18353
902.854	18445
902.973	18365
903.091	18076
903.21	18095
903.328	18045
903.446	17984
903.565	17901
903.683	17802
903.801	17775
903.919	17760
904.038	17859
904.156	17672
904.274	17714
904.392	17699
904.51	17547
904.627	17608
904.745	17634
904.863	17608
904.981	17433
905.098	17315
905.216	17239
905.334	17387
905.451	17303
905.569	17273
905.686	17326
905.803	17307
905.921	17132
906.038	17162
906.155	17025
906.272	16991
906.389	17132
906.506	16774
906.623	16774
906.74	16767
906.857	16778
906.974	16641
907.091	16816
907.208	16896
907.324	16824
907.441	16759
907.557	16588
907.674	16577
907.79	16519
907.907	16561
908.023	16592
908.139	16599
908.256	16455
908.372	16531
908.488	16398
908.604	16382
908.72	16230
908.836	16265
908.952	16303
909.068	16306
909.184	16436
909.3	16280
909.415	16398
909.531	16348
909.647	16013
909.762	16025
909.878	15895
909.993	16090
910.108	15994
910.224	15998
910.339	16002
910.454	15907
910.57	15850
910.685	15812
910.8	16032
910.915	15899
911.03	15857
911.145	15698
911.259	15644
911.374	15606
911.489	15534
911.604	15549
911.718	15401
911.833	15401
911.947	15317
912.062	15233
912.176	15348
912.291	15340
912.405	15416
912.519	15488
912.633	15530
912.748	15473
912.862	15344
912.976	15237
913.09	15013
913.204	15093
913.318	15157
913.431	15370
913.545	15344
913.659	15256
913.772	15161
913.886	15142
914	14990
914.113	15070
914.226	15062
914.34	15043
914.453	14902
914.566	15005
914.68	14815
914.793	14857
914.906	14716
915.019	14602
915.132	14583
915.245	14602
915.358	14575
915.47	14590
915.583	14473
915.696	14629
915.809	14686
915.921	14724
916.034	14571
916.146	14438
916.259	14480
916.371	14564
916.483	14613
916.595	14404
916.708	14454
916.82	14476
916.932	14370
917.044	14450
917.156	14385
917.268	14210
917.38	14271
917.491	14225
917.603	14286
917.715	14343
917.826	14324
917.938	14206
918.049	14081
918.161	14172
918.272	14347
918.384	14328
918.495	14252
918.606	14134
918.717	13947
918.828	14043
918.939	14096
919.05	13978
919.161	13974
919.272	13818
919.383	13837
919.494	14031
919.604	14214
919.715	14077
919.826	13928
919.936	13978
920.047	14065
920.157	14039
920.267	14240
920.378	14016
920.488	14077
920.598	14180
920.708	14313
920.818	14233
920.928	14206
921.038	14301
921.148	14176
921.258	13807
921.368	13811
921.477	13788
921.587	13784
921.697	13559
921.806	13742
921.916	13609
922.025	13521
922.134	13343
922.244	13350
922.353	13468
922.462	13304
922.571	13251
922.68	13156
922.789	12928
922.898	13095
923.007	13103
923.116	12977
923.224	12970
923.333	12962
923.442	13004
923.55	13027
923.659	12894
923.767	12897
923.876	12878
923.984	12993
924.092	12757
924.201	12772
924.309	12875
924.417	12863
924.525	12764
924.633	12681
924.741	13696
924.849	12452
924.956	12719
925.064	12445
925.172	12563
925.279	12521
925.387	12536
925.494	12490
925.602	12620
925.709	12525
925.816	12471
925.924	12456
926.031	12540
926.138	12426
926.245	12464
926.352	12418
926.459	12456
926.566	12544
926.673	12441
926.779	12266
926.886	12266
926.993	12030
927.099	12121
927.206	12060
927.312	12011
927.419	12152
927.525	12095
927.631	12155
927.737	11946
927.843	11923
927.95	11790
928.056	11920
928.162	11942
928.267	12041
928.373	12559
928.479	11916
928.585	11748
928.69	11904
928.796	11859
928.901	11775
929.007	11710
929.112	11809
929.218	11657
929.323	11665
929.428	11726
929.533	11733
929.638	11581
929.743	11661
929.848	11623
929.953	11627
930.058	11512
930.163	11288
930.267	11376
930.372	11497
930.477	11296
930.581	11566
930.685	11383
930.79	11269
930.894	11242
930.998	11303
931.103	11322
931.207	11056
931.311	10961
931.415	10919
931.519	10634
931.623	10691
