Data from test_V78500241_3091.txt Node
Date: Fri Mar 25 15:31:22 CST 2022
User: usil
Spectrometer: V785-0024
Trigger mode: 0
Integration Time (sec): 4.000000E-1
Scans to average: 1
Nonlinearity correction enabled: false
Boxcar width: 0
Storing dark spectrum: false
XAxis mode: Wavelengths
Number of Pixels in Spectrum: 1024
>>>>>Begin Spectral Data<<<<<
801.071	27298
801.214	27180
801.356	26895
801.499	26948
801.641	26979
801.783	26849
801.926	26910
802.068	26887
802.211	26731
802.353	26686
802.496	26537
802.638	26461
802.78	26396
802.923	26389
803.065	26396
803.208	26252
803.35	26511
803.492	26602
803.635	26537
803.777	26469
803.919	26682
804.061	27036
804.204	26693
804.346	26575
804.488	26575
804.63	26583
804.773	26343
804.915	26762
805.057	26735
805.199	26537
805.341	26606
805.483	26800
805.626	26705
805.768	26564
805.91	26708
806.052	26693
806.194	26724
806.336	26823
806.478	26792
806.62	26575
806.762	26769
806.904	26994
807.046	27291
807.188	27184
807.33	27005
807.472	27199
807.614	27066
807.756	27184
807.898	26887
808.04	26887
808.182	26887
808.324	26967
808.465	26986
808.607	27157
808.749	27233
808.891	27443
809.033	27564
809.174	27268
809.316	27211
809.458	27214
809.6	27192
809.741	27473
809.883	27549
810.025	27652
810.166	27564
810.308	27538
810.45	27538
810.591	27545
810.733	27272
810.875	27336
811.016	27161
811.158	27233
811.299	27256
811.441	27545
811.582	27477
811.724	27370
811.865	27154
812.007	27336
812.148	27291
812.29	27367
812.431	27545
812.573	27610
812.714	27766
812.855	27759
812.997	27812
813.138	27785
813.279	27918
813.421	27880
813.562	27690
813.703	27610
813.845	27526
813.986	27165
814.127	27039
814.268	27009
814.41	26925
814.551	26960
814.692	27150
814.833	26956
814.974	26906
815.115	26975
815.256	26815
815.397	26929
815.539	26880
815.68	26750
815.821	26724
815.962	26769
816.103	26697
816.244	26564
816.385	26503
816.526	26514
816.666	26374
816.807	26271
816.948	26275
817.089	26324
817.23	26229
817.371	26065
817.512	26225
817.653	26153
817.793	26111
817.934	26275
818.075	26115
818.216	26271
818.356	26240
818.497	26027
818.638	25917
818.778	26164
818.919	26024
819.06	26096
819.2	26054
819.341	26252
819.481	26240
819.622	26324
819.762	26511
819.903	26533
820.043	26347
820.184	26412
820.324	26267
820.465	26275
820.605	26294
820.746	26191
820.886	26122
821.026	26282
821.167	26244
821.307	26336
821.447	26134
821.588	26115
821.728	26043
821.868	25849
822.008	25719
822.149	25868
822.289	25784
822.429	25483
822.569	25346
822.709	25297
822.849	25148
822.99	25236
823.13	25213
823.27	25194
823.41	24985
823.55	24909
823.69	25008
823.83	25057
823.97	25046
824.11	24703
824.25	24696
824.389	24745
824.529	24935
824.669	24688
824.809	25012
824.949	24825
825.089	24951
825.228	24852
825.368	24585
825.508	24840
825.648	24719
825.787	24749
825.927	24608
826.067	24650
826.206	24726
826.346	24749
826.485	24677
826.625	24639
826.765	24688
826.904	24711
827.044	24532
827.183	24433
827.323	24494
827.462	24566
827.601	24448
827.741	24483
827.88	24441
828.02	24311
828.159	24292
828.298	24471
828.437	24407
828.577	24205
828.716	24483
828.855	24254
828.994	24205
829.134	24060
829.273	24049
829.412	24114
829.551	24057
829.69	23969
829.829	24148
829.968	24144
830.107	24235
830.246	24125
830.385	24057
830.524	24026
830.663	23923
830.802	23794
830.941	23703
831.08	23737
831.219	23760
831.357	23802
831.496	23988
831.635	23733
831.774	23619
831.913	23687
832.051	23478
832.19	23436
832.329	23573
832.467	23391
832.606	23223
832.744	23360
832.883	23284
833.022	23360
833.16	23292
833.299	23379
833.437	23360
833.576	23509
833.714	23512
833.852	23528
833.991	23471
834.129	23467
834.267	23429
834.406	23543
834.544	23459
834.682	23455
834.821	23440
834.959	23554
835.097	23543
835.235	23455
835.373	23353
835.511	23505
835.65	23265
835.788	23292
835.926	23204
836.064	23075
836.202	22980
836.34	23159
836.478	23448
836.615	23284
836.753	23277
836.891	23406
837.029	23341
837.167	23242
837.305	23105
837.443	23094
837.58	23166
837.718	23296
837.856	23239
837.993	23162
838.131	23181
838.269	23006
838.406	23003
838.544	22892
838.681	22984
838.819	22733
838.956	22615
839.094	22622
839.231	22786
839.369	22763
839.506	22961
839.643	22965
839.781	22683
839.918	22516
840.055	22569
840.193	22634
840.33	22538
840.467	22500
840.604	22542
840.742	22828
840.879	22504
841.016	22478
841.153	22367
841.29	22611
841.427	22535
841.564	22542
841.701	22565
841.838	22485
841.975	22455
842.112	22546
842.249	22436
842.385	22276
842.522	22656
842.659	22398
842.796	22253
842.933	22249
843.069	22230
843.206	22287
843.343	22242
843.479	22284
843.616	22135
843.752	22044
843.889	22116
844.025	22181
844.162	21994
844.298	22109
844.435	21987
844.571	21983
844.708	22154
844.844	22325
844.98	22204
845.117	22230
845.253	22154
845.389	22006
845.525	21972
845.661	21751
845.798	21755
845.934	21846
846.07	21743
846.206	21774
846.342	21930
846.478	21781
846.614	21530
846.75	21477
846.886	21610
847.022	21572
847.158	21534
847.294	21538
847.429	21599
847.565	21553
847.701	21701
847.837	21340
847.972	21173
848.108	21351
848.244	21412
848.379	21062
848.515	21180
848.65	21085
848.786	21058
848.921	21154
849.057	21302
849.192	21199
849.328	21138
849.463	21077
849.598	21184
849.734	21070
849.869	20994
850.004	20918
850.14	20982
850.275	20849
850.41	20746
850.545	20754
850.68	20853
850.815	20918
850.95	20674
851.085	21036
851.22	21043
851.355	21020
851.49	20796
851.625	20887
851.76	20849
851.895	20845
852.03	20937
852.165	20887
852.299	20868
852.434	20842
852.569	21055
852.703	20944
852.838	20948
852.973	20960
853.107	20963
853.242	20731
853.376	20670
853.511	20636
853.645	20659
853.78	20754
853.914	20807
854.048	20716
854.183	20716
854.317	20762
854.451	20910
854.585	20670
854.72	20701
854.854	20792
854.988	20629
855.122	20636
855.256	20640
855.39	20724
855.524	20864
855.658	20754
855.792	20705
855.926	20842
856.06	20781
856.194	20773
856.327	20667
856.461	20617
856.595	20682
856.729	20689
856.862	20739
856.996	20735
857.13	20746
857.263	20807
857.397	20792
857.53	20648
857.664	20815
857.797	20785
857.931	20804
858.064	20765
858.197	20834
858.331	20777
858.464	20587
858.597	20651
858.731	20724
858.864	20724
858.997	20507
859.13	20785
859.263	20838
859.396	20777
859.529	20663
859.662	20731
859.795	20667
859.928	20735
860.061	20868
860.194	20876
860.327	20743
860.46	20667
860.592	20868
860.725	20819
860.858	20826
860.99	20735
861.123	20693
861.256	20655
861.388	20629
861.521	21275
861.653	20571
861.786	20545
861.918	20556
862.05	20530
862.183	20644
862.315	20670
862.447	20788
862.58	20617
862.712	20484
862.844	20377
862.976	20552
863.108	20583
863.24	20678
863.372	20381
863.504	20438
863.636	20465
863.768	20389
863.9	20419
864.032	20351
864.164	20294
864.296	20415
864.428	20537
864.559	20469
864.691	20469
864.823	20480
864.954	20465
865.086	20415
865.217	20336
865.349	20248
865.48	20317
865.612	20259
865.743	20583
865.875	20320
866.006	20187
866.137	20412
866.269	20393
866.4	20248
866.531	20351
866.662	20237
866.793	20286
866.924	20202
867.055	20218
867.186	20320
867.317	20259
867.448	20142
867.579	20294
867.71	20218
867.841	20191
867.972	20320
868.103	20229
868.233	20374
868.364	20240
868.495	20377
868.625	20457
868.756	20602
868.886	20438
869.017	20552
869.147	20598
869.278	20708
869.408	20507
869.539	20590
869.669	20545
869.799	20629
869.929	20636
870.06	20571
870.19	20830
870.32	20727
870.45	20785
870.58	20941
870.71	20979
870.84	21005
870.97	20887
871.1	21036
871.23	21043
871.36	21146
871.489	20956
871.619	21112
871.749	21150
871.879	21150
872.008	21302
872.138	21100
872.267	21188
872.397	21001
872.526	20971
872.656	20914
872.785	20933
872.915	21180
873.044	21173
873.173	21058
873.303	21173
873.432	21256
873.561	21226
873.69	21199
873.819	21214
873.948	21256
874.077	21127
874.206	21180
874.335	21169
874.464	21199
874.593	21386
874.722	21355
874.851	21359
874.979	21351
875.108	21485
875.237	21363
875.365	21142
875.494	21313
875.623	21481
875.751	21275
875.88	21462
876.008	21500
876.136	21572
876.265	21755
876.393	22021
876.521	22002
876.65	21838
876.778	21838
876.906	21778
877.034	21732
877.162	21789
877.29	21694
877.418	21724
877.546	21819
877.674	21755
877.802	21720
877.93	21724
878.058	21690
878.185	21641
878.313	21747
878.441	21701
878.568	21564
878.696	21751
878.824	21739
878.951	21865
879.079	21991
879.206	22120
879.333	21926
879.461	21842
879.588	21804
879.715	21850
879.842	22067
879.97	21797
880.097	21534
880.224	21576
880.351	21591
880.478	21648
880.605	21614
880.732	21462
880.859	21827
880.986	21652
881.112	21549
881.239	21443
881.366	21256
881.493	21127
881.619	21173
881.746	21302
881.872	21268
881.999	21093
882.125	21116
882.252	21077
882.378	21093
882.505	21173
882.631	20982
882.757	20899
882.883	21013
883.01	20849
883.136	20838
883.262	20674
883.388	20712
883.514	20887
883.64	20826
883.766	20792
883.892	20727
884.018	20663
884.143	20788
884.269	20883
884.395	20613
884.52	20564
884.646	20602
884.772	20556
884.897	20358
885.023	20590
885.148	20560
885.274	20644
885.399	20644
885.524	20499
885.65	20594
885.775	20552
885.9	20488
886.025	20564
886.15	20518
886.275	20579
886.4	20400
886.525	20412
886.65	20484
886.775	20355
886.9	20526
887.025	20674
887.149	20484
887.274	20370
887.399	20320
887.523	20336
887.648	20138
887.773	20210
887.897	20450
888.021	20233
888.146	20248
888.27	20374
888.395	20328
888.519	20267
888.643	20301
888.767	20366
888.891	20134
889.015	20016
889.139	20187
889.263	20016
889.387	20142
889.511	20324
889.635	20259
889.759	20058
889.883	20054
890.006	20065
890.13	20077
890.254	20031
890.377	20039
890.501	19818
890.624	19894
890.748	19864
890.871	19776
890.995	19662
891.118	19632
891.241	19685
891.364	19765
891.488	19715
891.611	19643
891.734	19696
891.857	19681
891.98	19651
892.103	19708
892.226	19632
892.349	19548
892.471	19495
892.594	19582
892.717	19651
892.839	19556
892.962	19601
893.085	19723
893.207	19495
893.33	19460
893.452	19514
893.575	19670
893.697	19552
893.819	19791
893.941	19772
894.064	19780
894.186	19480
894.308	19533
894.43	19601
894.552	19693
894.674	19643
894.796	19480
894.918	19502
895.04	19521
895.161	19666
895.283	19715
895.405	19495
895.526	19635
895.648	19506
895.769	19594
895.891	19632
896.012	19643
896.134	19594
896.255	19556
896.376	19552
896.498	19594
896.619	19529
896.74	19590
896.861	19689
896.982	19856
897.103	20016
897.224	19811
897.345	19852
897.466	19635
897.587	19890
897.708	20016
897.828	19906
897.949	19757
898.07	19601
898.19	19738
898.311	19947
898.431	19913
898.552	19723
898.672	19864
898.792	20016
898.913	19700
899.033	19738
899.153	19674
899.273	19521
899.393	19597
899.513	19590
899.633	19635
899.753	19655
899.873	19537
899.993	19563
900.113	19521
900.232	19601
900.352	19491
900.472	19460
900.591	19202
900.711	19438
900.83	19377
900.95	19335
901.069	19453
901.189	19221
901.308	18996
901.427	18943
901.546	18939
901.665	18970
901.784	19027
901.904	18863
902.023	18772
902.141	18578
902.26	18559
902.379	18715
902.498	18391
902.617	18445
902.735	18490
902.854	18414
902.973	18338
903.091	18232
903.21	18155
903.328	18167
903.446	18110
903.565	17893
903.683	17965
903.801	17859
903.919	17783
904.038	17775
904.156	17695
904.274	17726
904.392	17665
904.51	17824
904.627	17786
904.745	17737
904.863	17718
904.981	17649
905.098	17490
905.216	17444
905.334	17406
905.451	17417
905.569	17387
905.686	17471
905.803	17391
905.921	17193
906.038	17372
906.155	17239
906.272	17128
906.389	16984
906.506	16995
906.623	16972
906.74	16972
906.857	16831
906.974	16953
907.091	16927
907.208	17098
907.324	17079
907.441	16790
907.557	16736
907.674	16656
907.79	16645
907.907	16558
908.023	16687
908.139	16653
908.256	16615
908.372	16542
908.488	16596
908.604	16409
908.72	16299
908.836	16428
908.952	16344
909.068	16432
909.184	16611
909.3	16329
909.415	16337
909.531	16371
909.647	16185
909.762	16120
909.878	16128
909.993	16017
910.108	16090
910.224	16021
910.339	16067
910.454	16059
910.57	15842
910.685	15770
910.8	16029
910.915	16029
911.03	15850
911.145	15778
911.259	15747
911.374	15812
911.489	15572
911.604	15633
911.718	15370
911.833	15488
911.947	15416
912.062	15268
912.176	15481
912.291	15458
912.405	15500
912.519	15686
912.633	15679
912.748	15530
912.862	15424
912.976	15256
913.09	15268
913.204	15283
913.318	15310
913.431	15317
913.545	15306
913.659	15363
913.772	15241
913.886	15089
914	15070
914.113	15104
914.226	15138
914.34	15138
914.453	14960
914.566	15085
914.68	14998
914.793	14948
914.906	14670
915.019	14663
915.132	14667
915.245	14648
915.358	14765
915.47	14697
915.583	14708
915.696	14644
915.809	14804
915.921	14765
916.034	14610
916.146	14560
916.259	14579
916.371	14712
916.483	14651
916.595	14545
916.708	14488
916.82	14564
916.932	14457
917.044	14511
917.156	14488
917.268	14339
917.38	14408
917.491	14355
917.603	14377
917.715	14480
917.826	14446
917.938	14286
918.049	14153
918.161	14317
918.272	14450
918.384	14408
918.495	14324
918.606	14115
918.717	14008
918.828	14126
918.939	14119
919.05	14065
919.161	14119
919.272	13947
919.383	14062
919.494	14187
919.604	14324
919.715	14145
919.826	14027
919.936	14073
920.047	14145
920.157	14092
920.267	14362
920.378	14081
920.488	14035
920.598	14256
920.708	14457
920.818	14206
920.928	14244
921.038	14389
921.148	14317
921.258	14062
921.368	13928
921.477	13822
921.587	13864
921.697	13784
921.806	13799
921.916	13696
922.025	13639
922.134	13483
922.244	13449
922.353	13540
922.462	13369
922.571	13228
922.68	13213
922.789	13168
922.898	13232
923.007	13137
923.116	13156
923.224	13187
923.333	13103
923.442	13008
923.55	12924
923.659	12996
923.767	13008
923.876	12916
923.984	13126
924.092	12920
924.201	12863
924.309	12916
924.417	12894
924.525	12810
924.633	12795
924.741	13719
924.849	12582
924.956	12749
925.064	12662
925.172	12566
925.279	12532
925.387	12631
925.494	12589
925.602	12654
925.709	12551
925.816	12464
925.924	12460
926.031	12608
926.138	12471
926.245	12559
926.352	12403
926.459	12563
926.566	12559
926.673	12456
926.779	12300
926.886	12353
926.993	12178
927.099	12095
927.206	12117
927.312	12098
927.419	12163
927.525	12163
927.631	12220
927.737	12087
927.843	12045
927.95	11923
928.056	11950
928.162	12011
928.267	12072
928.373	12669
928.479	12121
928.585	11897
928.69	11988
928.796	12026
928.901	11889
929.007	11741
929.112	11863
929.218	11832
929.323	11737
929.428	11764
929.533	11783
929.638	11649
929.743	11581
929.848	11684
929.953	11722
930.058	11577
930.163	11440
930.267	11512
930.372	11570
930.477	11337
930.581	11627
930.685	11440
930.79	11166
930.894	11277
930.998	11269
931.103	11421
931.207	11121
931.311	11018
931.415	10949
931.519	10736
931.623	10649
