Data from test_V78500241_42.txt Node
Date: Fri Mar 25 15:10:09 CST 2022
User: usil
Spectrometer: V785-0024
Trigger mode: 0
Integration Time (sec): 4.000000E-1
Scans to average: 1
Nonlinearity correction enabled: false
Boxcar width: 0
Storing dark spectrum: false
XAxis mode: Wavelengths
Number of Pixels in Spectrum: 1024
>>>>>Begin Spectral Data<<<<<
801.071	28793
801.214	28797
801.356	28596
801.499	28542
801.641	28432
801.783	28398
801.926	28519
802.068	28436
802.211	28215
802.353	28295
802.496	28032
802.638	28010
802.78	27899
802.923	27770
803.065	27888
803.208	27838
803.35	27892
803.492	27922
803.635	28131
803.777	27960
803.919	28192
804.061	28447
804.204	28169
804.346	28055
804.488	27857
804.63	27998
804.773	27987
804.915	27960
805.057	28086
805.199	27949
805.341	28215
805.483	28169
805.626	28032
805.768	27998
805.91	28128
806.052	28154
806.194	27903
806.336	28306
806.478	28215
806.62	28223
806.762	28253
806.904	28363
807.046	28428
807.188	28512
807.33	28303
807.472	28401
807.614	28322
807.756	28466
807.898	28356
808.04	28204
808.182	28211
808.324	28333
808.465	28185
808.607	28295
808.749	28440
808.891	28675
809.033	28637
809.174	28672
809.316	28428
809.458	28641
809.6	28516
809.741	28592
809.883	28626
810.025	28831
810.166	28782
810.308	28869
810.45	28733
810.591	28801
810.733	28554
810.875	28367
811.016	28436
811.158	28432
811.299	28607
811.441	28588
811.582	28607
811.724	28470
811.865	28424
812.007	28584
812.148	28459
812.29	28485
812.431	28771
812.573	28908
812.714	28828
812.855	29048
812.997	29044
813.138	29254
813.279	29041
813.421	29048
813.562	28900
813.703	28809
813.845	28596
813.986	28322
814.127	28341
814.268	28128
814.41	28291
814.551	28017
814.692	28230
814.833	28082
814.974	28044
815.115	28010
815.256	27930
815.397	27736
815.539	27907
815.68	27873
815.821	27690
815.962	27819
816.103	27793
816.244	27743
816.385	27572
816.526	27561
816.666	27291
816.807	27146
816.948	27397
817.089	27291
817.23	27230
817.371	27138
817.512	27142
817.653	27116
817.793	27173
817.934	27093
818.075	27256
818.216	27142
818.356	27028
818.497	27043
818.638	26838
818.778	26857
818.919	26857
819.06	26899
819.2	27081
819.341	27058
819.481	27112
819.622	27230
819.762	27481
819.903	27302
820.043	27195
820.184	27138
820.324	27184
820.465	27340
820.605	27336
820.746	27252
820.886	26967
821.026	26933
821.167	27089
821.307	27146
821.447	27108
821.588	26971
821.728	26876
821.868	26758
822.008	26453
822.149	26480
822.289	26556
822.429	26301
822.569	26161
822.709	26225
822.849	25989
822.99	25986
823.13	25898
823.27	25966
823.41	25818
823.55	25635
823.69	25799
823.83	25849
823.97	25776
824.11	25643
824.25	25548
824.389	25605
824.529	25624
824.669	25567
824.809	25666
824.949	25753
825.089	25742
825.228	25567
825.368	25426
825.508	25339
825.648	25426
825.787	25403
825.927	25377
826.067	25259
826.206	25407
826.346	25377
826.485	25183
826.625	25392
826.765	25464
826.904	25407
827.044	25171
827.183	25133
827.323	24932
827.462	25008
827.601	25126
827.741	25038
827.88	24966
828.02	24882
828.159	24848
828.298	25126
828.437	24924
828.577	24825
828.716	25114
828.855	24947
828.994	24760
829.134	24749
829.273	24734
829.412	24650
829.551	24608
829.69	24749
829.829	24601
829.968	24700
830.107	24738
830.246	24620
830.385	24578
830.524	24635
830.663	24464
830.802	24285
830.941	24239
831.08	24167
831.219	24262
831.357	24323
831.496	24410
831.635	24098
831.774	24117
831.913	24015
832.051	24072
832.19	23920
832.329	24064
832.467	23878
832.606	23851
832.744	23722
832.883	23893
833.022	23771
833.16	23855
833.299	24026
833.437	23824
833.576	23992
833.714	23821
833.852	23783
833.991	23870
834.129	23870
834.267	23786
834.406	23824
834.544	23836
834.682	23794
834.821	23840
834.959	23965
835.097	23817
835.235	23809
835.373	23843
835.511	23828
835.65	23604
835.788	23703
835.926	23558
836.064	23547
836.202	23493
836.34	23623
836.478	23714
836.615	23691
836.753	23710
836.891	23657
837.029	23604
837.167	23672
837.305	23467
837.443	23528
837.58	23539
837.718	23543
837.856	23520
837.993	23528
838.131	23471
838.269	23497
838.406	23391
838.544	23258
838.681	23124
838.819	23083
838.956	22790
839.094	22987
839.231	22923
839.369	23159
839.506	23216
839.643	23143
839.781	22889
839.918	22953
840.055	22835
840.193	22820
840.33	22774
840.467	22721
840.604	22774
840.742	23136
840.879	22668
841.016	22637
841.153	22592
841.29	22847
841.427	22687
841.564	22797
841.701	22729
841.838	22634
841.975	22557
842.112	22569
842.249	22557
842.385	22424
842.522	22622
842.659	22618
842.796	22371
842.933	22512
843.069	22462
843.206	22386
843.343	22584
843.479	22436
843.616	22360
843.752	22154
843.889	22177
844.025	22367
844.162	22246
844.298	22325
844.435	22025
844.571	22200
844.708	22207
844.844	22238
844.98	22306
845.117	22215
845.253	22109
845.389	22017
845.525	22097
845.661	22093
845.798	21892
845.934	21987
846.07	21964
846.206	21926
846.342	22036
846.478	21918
846.614	21838
846.75	21644
846.886	21675
847.022	21686
847.158	21614
847.294	21682
847.429	21774
847.565	21504
847.701	21835
847.837	21329
847.972	21359
848.108	21462
848.244	21428
848.379	21214
848.515	21096
848.65	21203
848.786	21146
848.921	21230
849.057	21287
849.192	21275
849.328	21230
849.463	21245
849.598	21169
849.734	21051
849.869	20975
850.004	20906
850.14	20971
850.275	21051
850.41	20853
850.545	20921
850.68	20769
850.815	20849
850.95	20891
851.085	21055
851.22	20902
851.355	20883
851.49	20849
851.625	20853
851.76	20800
851.895	20693
852.03	20762
852.165	20811
852.299	20876
852.434	20941
852.569	20887
852.703	20857
852.838	20998
852.973	20986
853.107	20853
853.242	20830
853.376	20792
853.511	20708
853.645	20617
853.78	20838
853.914	20815
854.048	20594
854.183	20686
854.317	20735
854.451	20857
854.585	20731
854.72	20583
854.854	20762
854.988	20716
855.122	20720
855.256	20621
855.39	20587
855.524	20792
855.658	20724
855.792	20568
855.926	20739
856.06	20758
856.194	20743
856.327	20701
856.461	20659
856.595	20514
856.729	20564
856.862	20781
856.996	20613
857.13	20617
857.263	20739
857.397	20777
857.53	20682
857.664	20697
857.797	20701
857.931	20716
858.064	20670
858.197	20648
858.331	20670
858.464	20632
858.597	20598
858.731	20754
858.864	20431
858.997	20651
859.13	20655
859.263	20689
859.396	20552
859.529	20549
859.662	20568
859.795	20492
859.928	20655
860.061	20773
860.194	20754
860.327	20617
860.46	20590
860.592	20735
860.725	20708
860.858	20773
860.99	20549
861.123	20556
861.256	20511
861.388	20446
861.521	21192
861.653	20511
861.786	20473
861.918	20469
862.05	20560
862.183	20648
862.315	20625
862.447	20625
862.58	20606
862.712	20389
862.844	20206
862.976	20499
863.108	20366
863.24	20712
863.372	20145
863.504	20278
863.636	20393
863.768	20317
863.9	20263
864.032	20202
864.164	20180
864.296	20282
864.428	20305
864.559	20263
864.691	20381
864.823	20328
864.954	20271
865.086	20214
865.217	20240
865.349	20058
865.48	20050
865.612	20191
865.743	20210
865.875	20275
866.006	20168
866.137	20138
866.269	20248
866.4	20176
866.531	20084
866.662	20020
866.793	20229
866.924	20103
867.055	20210
867.186	20119
867.317	20081
867.448	19955
867.579	20138
867.71	20161
867.841	20069
867.972	20153
868.103	20138
868.233	20062
868.364	20130
868.495	20275
868.625	20362
868.756	20492
868.886	20229
869.017	20259
869.147	20404
869.278	20442
869.408	20431
869.539	20339
869.669	20488
869.799	20370
869.929	20484
870.06	20396
870.19	20640
870.32	20659
870.45	20636
870.58	20594
870.71	20796
870.84	20796
870.97	20769
871.1	20739
871.23	20967
871.36	20925
871.489	20849
871.619	20758
871.749	20971
871.879	20872
872.008	21013
872.138	20902
872.267	20826
872.397	20853
872.526	20815
872.656	20712
872.785	20811
872.915	20819
873.044	21039
873.173	20861
873.303	21028
873.432	20937
873.561	21017
873.69	20914
873.819	20910
873.948	20918
874.077	20982
874.206	20956
874.335	21013
874.464	21116
874.593	21119
874.722	21108
874.851	21218
874.979	21283
875.108	21226
875.237	21112
875.365	21241
875.494	21165
875.623	21245
875.751	21161
875.88	21161
876.008	21211
876.136	21538
876.265	21686
876.393	21831
876.521	21610
876.65	21591
876.778	21591
876.906	21542
877.034	21564
877.162	21618
877.29	21469
877.418	21443
877.546	21523
877.674	21515
877.802	21454
877.93	21496
878.058	21526
878.185	21408
878.313	21523
878.441	21599
878.568	21424
878.696	21462
878.824	21595
878.951	21690
879.079	21739
879.206	21903
879.333	21667
879.461	21572
879.588	21709
879.715	21675
879.842	21728
879.97	21629
880.097	21447
880.224	21378
880.351	21382
880.478	21443
880.605	21306
880.732	21325
880.859	21660
880.986	21382
881.112	21397
881.239	21294
881.366	21062
881.493	21077
881.619	20895
881.746	20967
881.872	21009
881.999	20941
882.125	20933
882.252	21009
882.378	20895
882.505	21074
882.631	20834
882.757	20705
882.883	20804
883.01	20727
883.136	20594
883.262	20598
883.388	20488
883.514	20785
883.64	20800
883.766	20636
883.892	20511
884.018	20469
884.143	20625
884.269	20697
884.395	20347
884.52	20427
884.646	20358
884.772	20286
884.897	20286
885.023	20336
885.148	20518
885.274	20598
885.399	20393
885.524	20427
885.65	20488
885.775	20427
885.9	20389
886.025	20427
886.15	20427
886.275	20259
886.4	20244
886.525	20278
886.65	20256
886.775	20377
886.9	20419
887.025	20530
887.149	20225
887.274	20130
887.399	20058
887.523	20031
887.648	20016
887.773	19982
887.897	20225
888.021	20088
888.146	19970
888.27	20240
888.395	20100
888.519	20149
888.643	20058
888.767	20096
888.891	19993
889.015	19837
889.139	20005
889.263	19875
889.387	20020
889.511	20122
889.635	19993
889.759	19890
889.883	19807
890.006	19932
890.13	20016
890.254	19894
890.377	19772
890.501	19620
890.624	19594
890.748	19643
890.871	19487
890.995	19438
891.118	19396
891.241	19480
891.364	19518
891.488	19521
891.611	19457
891.734	19403
891.857	19525
891.98	19449
892.103	19506
892.226	19415
892.349	19346
892.471	19240
892.594	19373
892.717	19324
892.839	19381
892.962	19384
893.085	19510
893.207	19316
893.33	19270
893.452	19373
893.575	19476
893.697	19434
893.819	19438
893.941	19487
894.064	19548
894.186	19346
894.308	19339
894.43	19514
894.552	19457
894.674	19411
894.796	19430
894.918	19392
895.04	19426
895.161	19343
895.283	19476
895.405	19301
895.526	19343
895.648	19327
895.769	19426
895.891	19487
896.012	19407
896.134	19521
896.255	19422
896.376	19320
896.498	19358
896.619	19487
896.74	19491
896.861	19544
896.982	19784
897.103	19883
897.224	19814
897.345	19575
897.466	19731
897.587	19708
897.708	19807
897.828	19613
897.949	19476
898.07	19453
898.19	19518
898.311	19586
898.431	19590
898.552	19548
898.672	19632
898.792	19628
898.913	19597
899.033	19430
899.153	19304
899.273	19263
899.393	19365
899.513	19453
899.633	19343
899.753	19396
899.873	19209
899.993	19381
900.113	19187
900.232	19297
900.352	19251
900.472	19080
900.591	19183
900.711	19114
900.83	19076
900.95	19274
901.069	19137
901.189	18947
901.308	18772
901.427	18707
901.546	18738
901.665	18795
901.784	18688
901.904	18612
902.023	18582
902.141	18182
902.26	18243
902.379	18330
902.498	18235
902.617	18186
902.735	18285
902.854	18163
902.973	18133
903.091	17973
903.21	17931
903.328	17992
903.446	17828
903.565	17748
903.683	17619
903.801	17653
903.919	17699
904.038	17615
904.156	17490
904.274	17535
904.392	17490
904.51	17467
904.627	17459
904.745	17566
904.863	17600
904.981	17227
905.098	17128
905.216	17170
905.334	17178
905.451	17170
905.569	17147
905.686	17223
905.803	17113
905.921	16900
906.038	17159
906.155	17022
906.272	16885
906.389	16805
906.506	16702
906.623	16694
906.74	16744
906.857	16500
906.974	16558
907.091	16733
907.208	16740
907.324	16721
907.441	16565
907.557	16390
907.674	16413
907.79	16356
907.907	16352
908.023	16462
908.139	16379
908.256	16303
908.372	16147
908.488	16219
908.604	16158
908.72	16124
908.836	16055
908.952	16055
909.068	16086
909.184	16230
909.3	16013
909.415	16097
909.531	16082
909.647	15827
909.762	15774
909.878	15835
909.993	15705
910.108	15633
910.224	15671
910.339	15717
910.454	15534
910.57	15652
910.685	15458
910.8	15720
910.915	15736
911.03	15580
911.145	15466
911.259	15329
911.374	15283
911.489	15180
911.604	15180
911.718	15047
911.833	15062
911.947	14933
912.062	14853
912.176	15028
912.291	15074
912.405	15047
912.519	15214
912.633	15367
912.748	15195
912.862	14952
912.976	14842
913.09	14689
913.204	14891
913.318	14883
913.431	15013
913.545	14914
913.659	15017
913.772	14834
913.886	14739
914	14697
914.113	14785
914.226	14830
914.34	14682
914.453	14663
914.566	14754
914.68	14564
914.793	14560
914.906	14419
915.019	14294
915.132	14290
915.245	14362
915.358	14457
915.47	14408
915.583	14434
915.696	14495
915.809	14408
915.921	14560
916.034	14358
916.146	14343
916.259	14153
916.371	14263
916.483	14256
916.595	14206
916.708	14271
916.82	14275
916.932	14134
917.044	14271
917.156	14138
917.268	13986
917.38	13989
917.491	13955
917.603	14005
917.715	14134
917.826	14062
917.938	13982
918.049	13822
918.161	13921
918.272	14126
918.384	14202
918.495	14073
918.606	13849
918.717	13689
918.828	13677
918.939	13986
919.05	13658
919.161	13814
919.272	13525
919.383	13616
919.494	13769
919.604	13887
919.715	13715
919.826	13582
919.936	13784
920.047	13765
920.157	13788
920.267	13947
920.378	13731
920.488	13658
920.598	13921
920.708	14012
920.818	13845
920.928	13879
921.038	14039
921.148	13944
921.258	13738
921.368	13578
921.477	13441
921.587	13495
921.697	13369
921.806	13510
921.916	13373
922.025	13274
922.134	13236
922.244	13088
922.353	13088
922.462	13099
922.571	12905
922.68	12798
922.789	12681
922.898	12776
923.007	12753
923.116	12787
923.224	12730
923.333	12696
923.442	12616
923.55	12589
923.659	12631
923.767	12692
923.876	12464
923.984	12635
924.092	12506
924.201	12498
924.309	12502
924.417	12525
924.525	12452
924.633	12422
924.741	13232
924.849	12281
924.956	12410
925.064	12220
925.172	12190
925.279	12254
925.387	12194
925.494	12285
925.602	12369
925.709	12311
925.816	12152
925.924	12239
926.031	12296
926.138	12216
926.245	12270
926.352	12026
926.459	12289
926.566	12281
926.673	12068
926.779	12022
926.886	12060
926.993	11908
927.099	11935
927.206	11737
927.312	11859
927.419	11855
927.525	11813
927.631	11866
927.737	11726
927.843	11722
927.95	11592
928.056	11619
928.162	11623
928.267	11676
928.373	12296
928.479	11726
928.585	11474
928.69	11532
928.796	11615
928.901	11532
929.007	11330
929.112	11452
929.218	11493
929.323	11379
929.428	11391
929.533	11512
929.638	11284
929.743	11417
929.848	11330
929.953	11315
930.058	11201
930.163	11102
930.267	11181
930.372	11201
930.477	11075
930.581	11250
930.685	11121
930.79	11006
930.894	11064
930.998	10908
931.103	11102
931.207	10733
931.311	10717
931.415	10550
931.519	10280
931.623	10375
