Data from test_V78500241_1198.txt Node
Date: Fri Mar 25 15:18:11 CST 2022
User: usil
Spectrometer: V785-0024
Trigger mode: 0
Integration Time (sec): 4.000000E-1
Scans to average: 1
Nonlinearity correction enabled: false
Boxcar width: 0
Storing dark spectrum: false
XAxis mode: Wavelengths
Number of Pixels in Spectrum: 1024
>>>>>Begin Spectral Data<<<<<
801.071	28044
801.214	28131
801.356	27793
801.499	27595
801.641	27553
801.783	27557
801.926	27557
802.068	27656
802.211	27568
802.353	27458
802.496	27287
802.638	27108
802.78	27321
802.923	27203
803.065	27279
803.208	27211
803.35	27161
803.492	27241
803.635	27477
803.777	27378
803.919	27557
804.061	27614
804.204	27671
804.346	27447
804.488	27176
804.63	27515
804.773	27294
804.915	27587
805.057	27591
805.199	27477
805.341	27500
805.483	27583
805.626	27542
805.768	27420
805.91	27568
806.052	27542
806.194	27492
806.336	27800
806.478	27751
806.62	27625
806.762	27728
806.904	27838
807.046	28120
807.188	27968
807.33	27968
807.472	28010
807.614	28002
807.756	27998
807.898	27857
808.04	27949
808.182	27903
808.324	27819
808.465	27835
808.607	28188
808.749	28211
808.891	28382
809.033	28401
809.174	28379
809.316	28173
809.458	28215
809.6	28116
809.741	28272
809.883	28531
810.025	28519
810.166	28554
810.308	28542
810.45	28299
810.591	28485
810.733	28310
810.875	28150
811.016	28188
811.158	28139
811.299	28230
811.441	28344
811.582	28386
811.724	28253
811.865	28295
812.007	28242
812.148	28226
812.29	28379
812.431	28447
812.573	28603
812.714	28702
812.855	28862
812.997	28911
813.138	29003
813.279	28957
813.421	28987
813.562	28668
813.703	28512
813.845	28531
813.986	28276
814.127	28029
814.268	27998
814.41	28048
814.551	28074
814.692	28090
814.833	28078
814.974	27774
815.115	28055
815.256	27701
815.397	27759
815.539	27774
815.68	27781
815.821	27701
815.962	27766
816.103	27682
816.244	27652
816.385	27561
816.526	27648
816.666	27408
816.807	27195
816.948	27431
817.089	27344
817.23	27298
817.371	27313
817.512	27256
817.653	27245
817.793	27192
817.934	27268
818.075	27332
818.216	27351
818.356	27135
818.497	27192
818.638	26971
818.778	27024
818.919	27020
819.06	27112
819.2	27317
819.341	27135
819.481	27291
819.622	27405
819.762	27675
819.903	27606
820.043	27488
820.184	27332
820.324	27477
820.465	27519
820.605	27336
820.746	27386
820.886	27344
821.026	27408
821.167	27344
821.307	27443
821.447	27100
821.588	27188
821.728	26952
821.868	27077
822.008	26788
822.149	26636
822.289	26842
822.429	26366
822.569	26446
822.709	26423
822.849	26206
822.99	26419
823.13	26294
823.27	26214
823.41	26073
823.55	26054
823.69	26107
823.83	26138
823.97	26115
824.11	25902
824.25	25875
824.389	25928
824.529	25940
824.669	25936
824.809	26035
824.949	26008
825.089	26008
825.228	25906
825.368	25807
825.508	25784
825.648	25849
825.787	25860
825.927	25837
826.067	25734
826.206	25791
826.346	25776
826.485	25849
826.625	25788
826.765	25902
826.904	25685
827.044	25639
827.183	25483
827.323	25419
827.462	25548
827.601	25430
827.741	25495
827.88	25434
828.02	25472
828.159	25529
828.298	25506
828.437	25620
828.577	25495
828.716	25586
828.855	25525
828.994	25244
829.134	25133
829.273	25194
829.412	25160
829.551	25255
829.69	25225
829.829	25148
829.968	25320
830.107	25354
830.246	25221
830.385	25209
830.524	25129
830.663	24962
830.802	24958
830.941	24882
831.08	25019
831.219	24878
831.357	24859
831.496	25114
831.635	24897
831.774	24734
831.913	24833
832.051	24642
832.19	24669
832.329	24700
832.467	24551
832.606	24391
832.744	24547
832.883	24464
833.022	24502
833.16	24433
833.299	24604
833.437	24608
833.576	24494
833.714	24494
833.852	24646
833.991	24566
834.129	24620
834.267	24715
834.406	24505
834.544	24673
834.682	24631
834.821	24551
834.959	24741
835.097	24532
835.235	24585
835.373	24551
835.511	24513
835.65	24505
835.788	24429
835.926	24304
836.064	24144
836.202	24254
836.34	24494
836.478	24460
836.615	24311
836.753	24426
836.891	24456
837.029	24528
837.167	24300
837.305	24365
837.443	24220
837.58	24174
837.718	24334
837.856	24220
837.993	24148
838.131	24209
838.269	24201
838.406	24057
838.544	24076
838.681	23973
838.819	23889
838.956	23756
839.094	23771
839.231	23775
839.369	23950
839.506	24117
839.643	23992
839.781	23726
839.918	23589
840.055	23691
840.193	23729
840.33	23646
840.467	23691
840.604	23756
840.742	24091
840.879	23577
841.016	23531
841.153	23531
841.29	23840
841.427	23581
841.564	23733
841.701	23653
841.838	23604
841.975	23512
842.112	23535
842.249	23436
842.385	23364
842.522	23539
842.659	23391
842.796	23254
842.933	23337
843.069	23326
843.206	23421
843.343	23330
843.479	23440
843.616	23402
843.752	23178
843.889	23254
844.025	23200
844.162	23299
844.298	23117
844.435	23128
844.571	23258
844.708	23216
844.844	23261
844.98	23345
845.117	23254
845.253	23162
845.389	23136
845.525	23071
845.661	22991
845.798	22953
845.934	23083
846.07	22854
846.206	22873
846.342	23064
846.478	22816
846.614	22797
846.75	22713
846.886	22683
847.022	22790
847.158	22733
847.294	22660
847.429	22668
847.565	22672
847.701	22820
847.837	22382
847.972	22413
848.108	22466
848.244	22440
848.379	22318
848.515	22204
848.65	22249
848.786	22234
848.921	22162
849.057	22409
849.192	22348
849.328	22185
849.463	22169
849.598	22207
849.734	22120
849.869	22048
850.004	21926
850.14	22051
850.275	21994
850.41	21926
850.545	21907
850.68	21880
850.815	21949
850.95	21903
851.085	22234
851.22	22109
851.355	22048
851.49	21968
851.625	21972
851.76	22036
851.895	21819
852.03	21827
852.165	22059
852.299	21979
852.434	22112
852.569	22002
852.703	21964
852.838	22021
852.973	22116
853.107	22166
853.242	21964
853.376	21861
853.511	21808
853.645	21671
853.78	21854
853.914	21812
854.048	21797
854.183	21816
854.317	21793
854.451	21987
854.585	21720
854.72	21880
854.854	21857
854.988	21770
855.122	21797
855.256	21823
855.39	21781
855.524	21857
855.658	21842
855.792	21850
855.926	21816
856.06	21781
856.194	21899
856.327	21743
856.461	21698
856.595	21679
856.729	21800
856.862	21945
856.996	21732
857.13	21857
857.263	21926
857.397	21922
857.53	21789
857.664	21903
857.797	21800
857.931	21869
858.064	21884
858.197	21899
858.331	21819
858.464	21701
858.597	21766
858.731	21667
858.864	21808
858.997	21728
859.13	21778
859.263	21842
859.396	21911
859.529	21728
859.662	21686
859.795	21766
859.928	21842
860.061	21876
860.194	21994
860.327	21873
860.46	21789
860.592	21922
860.725	22055
860.858	22017
860.99	21759
861.123	21766
861.256	21739
861.388	21785
861.521	22569
861.653	21641
861.786	21481
861.918	21648
862.05	21686
862.183	21660
862.315	21736
862.447	21785
862.58	21793
862.712	21481
862.844	21481
862.976	21591
863.108	21572
863.24	21941
863.372	21420
863.504	21504
863.636	21393
863.768	21523
863.9	21511
864.032	21416
864.164	21458
864.296	21504
864.428	21625
864.559	21618
864.691	21599
864.823	21500
864.954	21534
865.086	21393
865.217	21523
865.349	21222
865.48	21435
865.612	21397
865.743	21523
865.875	21336
866.006	21321
866.137	21458
866.269	21431
866.4	21431
866.531	21249
866.662	21317
866.793	21230
866.924	21294
867.055	21428
867.186	21355
867.317	21348
867.448	21283
867.579	21283
867.71	21173
867.841	21161
867.972	21416
868.103	21230
868.233	21336
868.364	21272
868.495	21515
868.625	21629
868.756	21633
868.886	21370
869.017	21583
869.147	21717
869.278	21751
869.408	21591
869.539	21568
869.669	21667
869.799	21534
869.929	21747
870.06	21603
870.19	21854
870.32	21808
870.45	21865
870.58	21884
870.71	22010
870.84	22036
870.97	22017
871.1	21998
871.23	22139
871.36	22070
871.489	22086
871.619	22181
871.749	22188
871.879	22097
872.008	22356
872.138	22093
872.267	22192
872.397	22067
872.526	21941
872.656	22010
872.785	21945
872.915	22303
873.044	22322
873.173	22185
873.303	22314
873.432	22306
873.561	22280
873.69	22090
873.819	22158
873.948	22272
874.077	22185
874.206	22143
874.335	22116
874.464	22173
874.593	22398
874.722	22310
874.851	22462
874.979	22436
875.108	22493
875.237	22333
875.365	22310
875.494	22284
875.623	22497
875.751	22310
875.88	22478
876.008	22660
876.136	22675
876.265	22835
876.393	22835
876.521	22915
876.65	22873
876.778	22801
876.906	22710
877.034	22656
877.162	22843
877.29	22717
877.418	22744
877.546	22698
877.674	22717
877.802	22759
877.93	22763
878.058	22786
878.185	22485
878.313	22546
878.441	22740
878.568	22459
878.696	22645
878.824	22805
878.951	22767
879.079	22881
879.206	22999
879.333	22904
879.461	22797
879.588	22866
879.715	22809
879.842	23094
879.97	22816
880.097	22622
880.224	22550
880.351	22519
880.478	22459
880.605	22497
880.732	22630
880.859	22733
880.986	22641
881.112	22622
881.239	22504
881.366	22344
881.493	22150
881.619	22173
881.746	22242
881.872	22173
881.999	22097
882.125	22120
882.252	22116
882.378	22135
882.505	22207
882.631	21964
882.757	21766
882.883	21975
883.01	21918
883.136	21781
883.262	21751
883.388	21648
883.514	21907
883.64	21922
883.766	21880
883.892	21675
884.018	21599
884.143	21770
884.269	21884
884.395	21534
884.52	21416
884.646	21466
884.772	21382
884.897	21340
885.023	21526
885.148	21671
885.274	21663
885.399	21698
885.524	21424
885.65	21568
885.775	21424
885.9	21450
886.025	21667
886.15	21526
886.275	21367
886.4	21424
886.525	21416
886.65	21515
886.775	21443
886.9	21641
887.025	21591
887.149	21405
887.274	21241
887.399	21260
887.523	21329
887.648	21119
887.773	21081
887.897	21279
888.021	21367
888.146	21249
888.27	21344
888.395	21332
888.519	21302
888.643	21252
888.767	21207
888.891	21245
889.015	21123
889.139	21169
889.263	21081
889.387	21203
889.511	21249
889.635	21070
889.759	21081
889.883	21062
890.006	21070
890.13	21142
890.254	20986
890.377	20998
890.501	20811
890.624	20689
890.748	20910
890.871	20686
890.995	20594
891.118	20556
891.241	20693
891.364	20469
891.488	20830
891.611	20701
891.734	20594
891.857	20712
891.98	20560
892.103	20705
892.226	20667
892.349	20571
892.471	20461
892.594	20568
892.717	20533
892.839	20514
892.962	20533
893.085	20693
893.207	20503
893.33	20374
893.452	20400
893.575	20533
893.697	20465
893.819	20644
893.941	20701
894.064	20708
894.186	20476
894.308	20415
894.43	20545
894.552	20518
894.674	20511
894.796	20336
894.918	20499
895.04	20488
895.161	20533
895.283	20533
895.405	20473
895.526	20454
895.648	20442
895.769	20488
895.891	20518
896.012	20598
896.134	20507
896.255	20568
896.376	20393
896.498	20511
896.619	20473
896.74	20480
896.861	20514
896.982	20716
897.103	20967
897.224	20708
897.345	20701
897.466	20579
897.587	20686
897.708	20887
897.828	20708
897.949	20739
898.07	20590
898.19	20663
898.311	20663
898.431	20617
898.552	20636
898.672	20712
898.792	20667
898.913	20621
899.033	20514
899.153	20355
899.273	20389
899.393	20393
899.513	20461
899.633	20522
899.753	20571
899.873	20377
899.993	20450
900.113	20355
900.232	20362
900.352	20233
900.472	20294
900.591	20096
900.711	20214
900.83	20138
900.95	20240
901.069	20282
901.189	20100
901.308	19890
901.427	19761
901.546	19795
901.665	19887
901.784	19734
901.904	19635
902.023	19483
902.141	19495
902.26	19365
902.379	19453
902.498	19354
902.617	19190
902.735	19327
902.854	19320
902.973	19194
903.091	18989
903.21	18863
903.328	18844
903.446	18932
903.565	18726
903.683	18878
903.801	18627
903.919	18734
904.038	18692
904.156	18536
904.274	18608
904.392	18483
904.51	18547
904.627	18445
904.745	18601
904.863	18612
904.981	18296
905.098	18110
905.216	18232
905.334	18136
905.451	18197
905.569	18270
905.686	18155
905.803	18205
905.921	17988
906.038	18133
906.155	17958
906.272	17878
906.389	17984
906.506	17745
906.623	17695
906.74	17790
906.857	17634
906.974	17608
907.091	17775
907.208	17912
907.324	17707
907.441	17642
907.557	17387
907.674	17501
907.79	17497
907.907	17395
908.023	17379
908.139	17474
908.256	17341
908.372	17242
908.488	17395
908.604	17060
908.72	17166
908.836	17284
908.952	17166
909.068	17265
909.184	17269
909.3	17181
909.415	17269
909.531	17162
909.647	17006
909.762	16995
909.878	16843
909.993	16953
910.108	16828
910.224	16706
910.339	16915
910.454	16653
910.57	16752
910.685	16656
910.8	16847
910.915	16824
911.03	16611
911.145	16535
911.259	16371
911.374	16417
911.489	16409
911.604	16436
911.718	16215
911.833	16234
911.947	16109
912.062	16082
912.176	16200
912.291	16169
912.405	16181
912.519	16363
912.633	16379
912.748	16379
912.862	16105
912.976	16090
913.09	15846
913.204	15899
913.318	15926
913.431	16063
913.545	16112
913.659	16124
913.772	15907
913.886	15835
914	15800
914.113	15937
914.226	15968
914.34	15819
914.453	15713
914.566	15728
914.68	15682
914.793	15622
914.906	15420
915.019	15507
915.132	15424
915.245	15515
915.358	15408
915.47	15454
915.583	15374
915.696	15485
915.809	15538
915.921	15610
916.034	15355
916.146	15344
916.259	15291
916.371	15306
916.483	15367
916.595	15256
916.708	15283
916.82	15252
916.932	15192
917.044	15089
917.156	15161
917.268	15013
917.38	15093
917.491	15097
917.603	15039
917.715	15062
917.826	15150
917.938	14921
918.049	14944
918.161	14944
918.272	15104
918.384	15146
918.495	14979
918.606	14906
918.717	14796
918.828	14849
918.939	14716
919.05	14644
919.161	14727
919.272	14560
919.383	14613
919.494	14902
919.604	14963
919.715	14781
919.826	14644
919.936	14796
920.047	14834
920.157	14754
920.267	14929
920.378	14777
920.488	14701
920.598	14876
920.708	15005
920.818	14925
920.928	14876
921.038	15123
921.148	15020
921.258	14743
921.368	14674
921.477	14583
921.587	14423
921.697	14381
921.806	14545
921.916	14324
922.025	14267
922.134	14062
922.244	14001
922.353	14119
922.462	14031
922.571	13906
922.68	13791
922.789	13750
922.898	13883
923.007	13670
923.116	13811
923.224	13689
923.333	13696
923.442	13533
923.55	13639
923.659	13559
923.767	13632
923.876	13578
923.984	13636
924.092	13460
924.201	13624
924.309	13510
924.417	13506
924.525	13453
924.633	13426
924.741	14172
924.849	13126
924.956	13278
925.064	13240
925.172	13206
925.279	13194
925.387	13228
925.494	13164
925.602	13244
925.709	13236
925.816	13099
925.924	13050
926.031	13175
926.138	13061
926.245	13122
926.352	13069
926.459	13213
926.566	13141
926.673	13034
926.779	12932
926.886	12878
926.993	12779
927.099	12764
927.206	12658
927.312	12715
927.419	12772
927.525	12776
927.631	12776
927.737	12642
927.843	12517
927.95	12399
928.056	12525
928.162	12502
928.267	12642
928.373	13069
928.479	12642
928.585	12353
928.69	12566
928.796	12517
928.901	12422
929.007	12289
929.112	12391
929.218	12380
929.323	12334
929.428	12201
929.533	12464
929.638	12117
929.743	12308
929.848	12140
929.953	12175
930.058	12129
930.163	11984
930.267	11939
930.372	12194
930.477	11923
930.581	12079
930.685	12007
930.79	11790
930.894	11870
930.998	11786
931.103	11980
931.207	11554
931.311	11471
931.415	11459
931.519	11258
931.623	11189
