Data from test_V78500241_185.txt Node
Date: Fri Mar 25 15:11:08 CST 2022
User: usil
Spectrometer: V785-0024
Trigger mode: 0
Integration Time (sec): 4.000000E-1
Scans to average: 1
Nonlinearity correction enabled: false
Boxcar width: 0
Storing dark spectrum: false
XAxis mode: Wavelengths
Number of Pixels in Spectrum: 1024
>>>>>Begin Spectral Data<<<<<
801.071	27663
801.214	27580
801.356	27310
801.499	27340
801.641	27173
801.783	27188
801.926	27272
802.068	27195
802.211	27074
802.353	26944
802.496	26785
802.638	26830
802.78	26807
802.923	26712
803.065	26678
803.208	26731
803.35	26708
803.492	26880
803.635	26872
803.777	26724
803.919	26887
804.061	27062
804.204	26971
804.346	26724
804.488	26632
804.63	26785
804.773	26670
804.915	26876
805.057	27032
805.199	26750
805.341	26754
805.483	26838
805.626	26842
805.768	26807
805.91	26933
806.052	26948
806.194	26918
806.336	27089
806.478	26967
806.62	26971
806.762	27013
806.904	27291
807.046	27431
807.188	27329
807.33	27298
807.472	27454
807.614	27150
807.756	27245
807.898	27108
808.04	27104
808.182	27077
808.324	27192
808.465	27077
808.607	27260
808.749	27397
808.891	27637
809.033	27610
809.174	27542
809.316	27389
809.458	27568
809.6	27469
809.741	27488
809.883	27553
810.025	27705
810.166	27751
810.308	27762
810.45	27637
810.591	27553
810.733	27523
810.875	27488
811.016	27272
811.158	27264
811.299	27427
811.441	27606
811.582	27637
811.724	27386
811.865	27389
812.007	27393
812.148	27389
812.29	27393
812.431	27660
812.573	27648
812.714	27819
812.855	27835
812.997	28070
813.138	28177
813.279	27998
813.421	28010
813.562	27907
813.703	27701
813.845	27622
813.986	27279
814.127	27146
814.268	27077
814.41	27089
814.551	26952
814.692	27233
814.833	26872
814.974	26960
815.115	26876
815.256	26819
815.397	26891
815.539	26952
815.68	26769
815.821	26701
815.962	26792
816.103	26705
816.244	26762
816.385	26541
816.526	26648
816.666	26256
816.807	26183
816.948	26229
817.089	26290
817.23	26164
817.371	26157
817.512	26134
817.653	26191
817.793	26115
817.934	26191
818.075	26161
818.216	26233
818.356	26126
818.497	25993
818.638	25871
818.778	25966
818.919	25902
819.06	25974
819.2	25932
819.341	26157
819.481	26199
819.622	26202
819.762	26438
819.903	26473
820.043	26362
820.184	26252
820.324	26084
820.465	26290
820.605	26168
820.746	26134
820.886	26081
821.026	26138
821.167	26027
821.307	26290
821.447	26107
821.588	26012
821.728	25955
821.868	25616
822.008	25746
822.149	25506
822.289	25597
822.429	25377
822.569	25232
822.709	25209
822.849	25000
822.99	25031
823.13	24928
823.27	24897
823.41	24840
823.55	24787
823.69	24939
823.83	24787
823.97	24795
824.11	24650
824.25	24612
824.389	24589
824.529	24608
824.669	24612
824.809	24741
824.949	24787
825.089	24661
825.228	24673
825.368	24407
825.508	24525
825.648	24369
825.787	24414
825.927	24566
826.067	24426
826.206	24479
826.346	24544
826.485	24509
826.625	24395
826.765	24532
826.904	24308
827.044	24140
827.183	24087
827.323	24110
827.462	24239
827.601	24117
827.741	24235
827.88	24057
828.02	24026
828.159	24140
828.298	24213
828.437	24159
828.577	23980
828.716	24289
828.855	24053
828.994	24041
829.134	23786
829.273	23980
829.412	23733
829.551	23817
829.69	23794
829.829	23764
829.968	23946
830.107	23843
830.246	23634
830.385	23668
830.524	23589
830.663	23638
830.802	23452
830.941	23292
831.08	23345
831.219	23398
831.357	23444
831.496	23608
831.635	23387
831.774	23288
831.913	23246
832.051	23056
832.19	23288
832.329	23220
832.467	23022
832.606	22961
832.744	22915
832.883	23022
833.022	23071
833.16	23006
833.299	23136
833.437	23025
833.576	23071
833.714	23010
833.852	23064
833.991	23178
834.129	23174
834.267	23151
834.406	23067
834.544	23022
834.682	23044
834.821	23037
834.959	23341
835.097	23010
835.235	23193
835.373	23003
835.511	23056
835.65	22858
835.788	22778
835.926	22706
836.064	22626
836.202	22675
836.34	22999
836.478	22915
836.615	23022
836.753	22763
836.891	22946
837.029	22797
837.167	22831
837.305	22782
837.443	22736
837.58	22790
837.718	22725
837.856	22778
837.993	22710
838.131	22721
838.269	22489
838.406	22660
838.544	22466
838.681	22470
838.819	22223
838.956	22230
839.094	22207
839.231	22249
839.369	22242
839.506	22485
839.643	22367
839.781	22131
839.918	22025
840.055	22242
840.193	22097
840.33	22040
840.467	22036
840.604	22082
840.742	22363
840.879	21861
841.016	21994
841.153	21941
841.29	22158
841.427	22032
841.564	22238
841.701	21953
841.838	21934
841.975	21994
842.112	21953
842.249	21827
842.385	21739
842.522	22029
842.659	21895
842.796	21804
842.933	21816
843.069	21819
843.206	21751
843.343	21911
843.479	21774
843.616	21823
843.752	21530
843.889	21641
844.025	21690
844.162	21629
844.298	21675
844.435	21496
844.571	21496
844.708	21481
844.844	21610
844.98	21785
845.117	21720
845.253	21450
845.389	21393
845.525	21408
845.661	21332
845.798	21245
845.934	21370
846.07	21275
846.206	21359
846.342	21363
846.478	21348
846.614	21055
846.75	21028
846.886	20982
847.022	21096
847.158	21024
847.294	21116
847.429	21039
847.565	20971
847.701	21294
847.837	20785
847.972	20739
848.108	20724
848.244	20933
848.379	20655
848.515	20533
848.65	20579
848.786	20571
848.921	20533
849.057	20697
849.192	20621
849.328	20651
849.463	20682
849.598	20632
849.734	20476
849.869	20400
850.004	20290
850.14	20370
850.275	20400
850.41	20252
850.545	20298
850.68	20252
850.815	20332
850.95	20301
851.085	20511
851.22	20419
851.355	20271
851.49	20282
851.625	20381
851.76	20138
851.895	20221
852.03	20180
852.165	20404
852.299	20355
852.434	20317
852.569	20317
852.703	20313
852.838	20332
852.973	20396
853.107	20377
853.242	20244
853.376	20103
853.511	20073
853.645	20081
853.78	20229
853.914	20096
854.048	20073
854.183	20077
854.317	20164
854.451	20275
854.585	20069
854.72	20062
854.854	20130
854.988	20134
855.122	20096
855.256	20046
855.39	20145
855.524	20149
855.658	20195
855.792	20221
855.926	20119
856.06	20149
856.194	20149
856.327	20119
856.461	20054
856.595	20119
856.729	20103
856.862	20164
856.996	20016
857.13	20161
857.263	20138
857.397	20168
857.53	20145
857.664	20119
857.797	20119
857.931	20153
858.064	20027
858.197	20202
858.331	20020
858.464	20001
858.597	20005
858.731	20088
858.864	20062
858.997	19963
859.13	20062
859.263	20065
859.396	20088
859.529	20062
859.662	19970
859.795	20016
859.928	20008
860.061	20157
860.194	20358
860.327	20134
860.46	20039
860.592	20176
860.725	20138
860.858	20180
860.99	20054
861.123	19944
861.256	19982
861.388	20073
861.521	20754
861.653	19959
861.786	19776
861.918	19986
862.05	19978
862.183	20088
862.315	20111
862.447	20043
862.58	20043
862.712	19750
862.844	19868
862.976	19947
863.108	19845
863.24	20168
863.372	19734
863.504	19757
863.636	19685
863.768	19780
863.9	19643
864.032	19590
864.164	19643
864.296	19746
864.428	19887
864.559	19887
864.691	19830
864.823	19750
864.954	19742
865.086	19776
865.217	19742
865.349	19635
865.48	19700
865.612	19658
865.743	19875
865.875	19670
866.006	19567
866.137	19658
866.269	19685
866.4	19616
866.531	19704
866.662	19594
866.793	19628
866.924	19590
867.055	19590
867.186	19712
867.317	19510
867.448	19495
867.579	19575
867.71	19518
867.841	19590
867.972	19540
868.103	19616
868.233	19529
868.364	19647
868.495	19708
868.625	19769
868.756	19993
868.886	19830
869.017	19776
869.147	19868
869.278	20005
869.408	19803
869.539	19902
869.669	19982
869.799	19898
869.929	19982
870.06	19940
870.19	20210
870.32	20187
870.45	20267
870.58	20225
870.71	20385
870.84	20275
870.97	20206
871.1	20229
871.23	20476
871.36	20400
871.489	20282
871.619	20355
871.749	20370
871.879	20385
872.008	20568
872.138	20412
872.267	20465
872.397	20366
872.526	20305
872.656	20263
872.785	20290
872.915	20492
873.044	20503
873.173	20602
873.303	20503
873.432	20568
873.561	20602
873.69	20320
873.819	20511
873.948	20549
874.077	20492
874.206	20396
874.335	20503
874.464	20686
874.593	20765
874.722	20644
874.851	20830
874.979	20857
875.108	20842
875.237	20648
875.365	20712
875.494	20716
875.623	20792
875.751	20705
875.88	20785
876.008	20880
876.136	20929
876.265	21093
876.393	21279
876.521	21214
876.65	21119
876.778	21195
876.906	21127
877.034	20990
877.162	21062
877.29	21085
877.418	21066
877.546	21226
877.674	21089
877.802	21020
877.93	21142
878.058	21028
878.185	21020
878.313	20956
878.441	21058
878.568	20921
878.696	21028
878.824	21108
878.951	21123
879.079	21298
879.206	21420
879.333	21176
879.461	21180
879.588	21173
879.715	21192
879.842	21332
879.97	21180
880.097	20853
880.224	20807
880.351	20960
880.478	20880
880.605	20914
880.732	20880
880.859	21116
880.986	20941
881.112	20925
881.239	20811
881.366	20602
881.493	20545
881.619	20488
881.746	20473
881.872	20552
881.999	20499
882.125	20423
882.252	20590
882.378	20621
882.505	20670
882.631	20438
882.757	20157
882.883	20210
883.01	20317
883.136	20206
883.262	20050
883.388	20119
883.514	20320
883.64	20282
883.766	20301
883.892	19925
884.018	20176
884.143	20202
884.269	20180
884.395	20024
884.52	19875
884.646	19959
884.772	19784
884.897	19746
885.023	19940
885.148	20024
885.274	20081
885.399	19883
885.524	19887
885.65	19856
885.775	19795
885.9	19799
886.025	19898
886.15	20050
886.275	19761
886.4	19818
886.525	19795
886.65	19704
886.775	19837
886.9	19970
887.025	20043
887.149	19849
887.274	19769
887.399	19719
887.523	19548
887.648	19689
887.773	19521
887.897	19799
888.021	19712
888.146	19540
888.27	19689
888.395	19784
888.519	19658
888.643	19700
888.767	19723
888.891	19506
889.015	19472
889.139	19510
889.263	19552
889.387	19510
889.511	19719
889.635	19563
889.759	19438
889.883	19381
890.006	19365
890.13	19529
890.254	19453
890.377	19369
890.501	19190
890.624	19129
890.748	19263
890.871	19187
890.995	19004
891.118	18821
891.241	19247
891.364	18973
891.488	19084
891.611	18985
891.734	19042
891.857	19065
891.98	19080
892.103	19148
892.226	19110
892.349	19133
892.471	18954
892.594	19008
892.717	19076
892.839	18924
892.962	19023
893.085	19023
893.207	18882
893.33	18840
893.452	18928
893.575	19034
893.697	18966
893.819	19217
893.941	19289
894.064	19118
894.186	18939
894.308	18966
894.43	19148
894.552	19107
894.674	19065
894.796	18958
894.918	18932
895.04	18901
895.161	19069
895.283	19000
895.405	18989
895.526	18970
895.648	18958
895.769	19012
895.891	19126
896.012	19122
896.134	19000
896.255	18932
896.376	19004
896.498	19012
896.619	19103
896.74	19042
896.861	19122
896.982	19308
897.103	19605
897.224	19365
897.345	19217
897.466	19225
897.587	19263
897.708	19335
897.828	19221
897.949	19145
898.07	19042
898.19	19156
898.311	19141
898.431	19050
898.552	19168
898.672	19282
898.792	19263
898.913	19308
899.033	19099
899.153	19004
899.273	18798
899.393	18970
899.513	18951
899.633	18973
899.753	18943
899.873	18901
899.993	18958
900.113	18989
900.232	18970
900.352	18901
900.472	18810
900.591	18711
900.711	18863
900.83	18791
900.95	18871
901.069	18798
901.189	18597
901.308	18475
901.427	18361
901.546	18479
901.665	18479
901.784	18467
901.904	18258
902.023	18079
902.141	17996
902.26	17927
902.379	18034
902.498	17741
902.617	17878
902.735	17874
902.854	17897
902.973	17805
903.091	17638
903.21	17528
903.328	17608
903.446	17547
903.565	17322
903.683	17551
903.801	17261
903.919	17265
904.038	17315
904.156	17102
904.274	17227
904.392	17094
904.51	17018
904.627	17136
904.745	17223
904.863	17155
904.981	16980
905.098	16885
905.216	16835
905.334	16797
905.451	16835
905.569	16767
905.686	16816
905.803	16782
905.921	16611
906.038	16850
906.155	16615
906.272	16497
906.389	16508
906.506	16417
906.623	16318
906.74	16386
906.857	16242
906.974	16379
907.091	16402
907.208	16481
907.324	16398
907.441	16211
907.557	16036
907.674	16124
907.79	15926
907.907	16101
908.023	16078
908.139	16025
908.256	15922
908.372	15926
908.488	15892
908.604	15667
908.72	15701
908.836	15804
908.952	15759
909.068	15736
909.184	15876
909.3	15793
909.415	15873
909.531	15778
909.647	15500
909.762	15428
909.878	15450
909.993	15435
910.108	15466
910.224	15500
910.339	15477
910.454	15321
910.57	15313
910.685	15260
910.8	15485
910.915	15500
911.03	15302
911.145	15116
911.259	15081
911.374	15074
911.489	14990
911.604	14868
911.718	14815
911.833	14788
911.947	14762
912.062	14610
912.176	14750
912.291	14781
912.405	14819
912.519	14979
912.633	14982
912.748	14811
912.862	14693
912.976	14682
913.09	14438
913.204	14670
913.318	14762
913.431	14842
913.545	14701
913.659	14727
913.772	14640
913.886	14461
914	14434
914.113	14549
914.226	14556
914.34	14514
914.453	14301
914.566	14571
914.68	14324
914.793	14313
914.906	14176
915.019	14130
915.132	13947
915.245	14119
915.358	14168
915.47	14092
915.583	14084
915.696	14073
915.809	14210
915.921	14305
916.034	14081
916.146	14039
916.259	14149
916.371	14035
916.483	14058
916.595	13944
916.708	13887
916.82	13970
916.932	13868
917.044	13997
917.156	13902
917.268	13788
917.38	13826
917.491	13769
917.603	13708
917.715	13868
917.826	13883
917.938	13712
918.049	13624
918.161	13700
918.272	13864
918.384	13814
918.495	13734
918.606	13594
918.717	13529
918.828	13609
918.939	13594
919.05	13464
919.161	13525
919.272	13331
919.383	13480
919.494	13613
919.604	13670
919.715	13597
919.826	13552
919.936	13548
920.047	13628
920.157	13575
920.267	13734
920.378	13506
920.488	13533
920.598	13643
920.708	13826
920.818	13601
920.928	13594
921.038	13822
921.148	13742
921.258	13567
921.368	13422
921.477	13251
921.587	13304
921.697	13088
921.806	13293
921.916	13164
922.025	12993
922.134	12951
922.244	12966
922.353	12951
922.462	12825
922.571	12783
922.68	12650
922.789	12540
922.898	12585
923.007	12532
923.116	12658
923.224	12528
923.333	12483
923.442	12483
923.55	12395
923.659	12403
923.767	12399
923.876	12467
923.984	12479
924.092	12384
924.201	12372
924.309	12327
924.417	12399
924.525	12266
924.633	12262
924.741	13141
924.849	12038
924.956	12220
925.064	12083
925.172	12045
925.279	12003
925.387	12079
925.494	12019
925.602	12129
925.709	12159
925.816	11916
925.924	12007
926.031	12140
926.138	11999
926.245	12068
926.352	11904
926.459	11977
926.566	12064
926.673	11965
926.779	11832
926.886	11737
926.993	11695
927.099	11577
927.206	11558
927.312	11547
927.419	11649
927.525	11623
927.631	11657
927.737	11516
927.843	11414
927.95	11444
928.056	11459
928.162	11444
928.267	11459
928.373	12060
928.479	11596
928.585	11318
928.69	11467
928.796	11474
928.901	11372
929.007	11258
929.112	11303
929.218	11261
929.323	11227
929.428	11220
929.533	11315
929.638	11178
929.743	11223
929.848	11322
929.953	11155
930.058	11094
930.163	10919
930.267	10972
930.372	11071
930.477	10877
930.581	11098
930.685	11079
930.79	10862
930.894	10911
930.998	10767
931.103	10843
931.207	10573
931.311	10363
931.415	10440
931.519	10173
931.623	10162
