Data from test_V78500241_752.txt Node
Date: Fri Mar 25 15:15:05 CST 2022
User: usil
Spectrometer: V785-0024
Trigger mode: 0
Integration Time (sec): 4.000000E-1
Scans to average: 1
Nonlinearity correction enabled: false
Boxcar width: 0
Storing dark spectrum: false
XAxis mode: Wavelengths
Number of Pixels in Spectrum: 1024
>>>>>Begin Spectral Data<<<<<
801.071	27496
801.214	27561
801.356	27329
801.499	27291
801.641	26975
801.783	27123
801.926	27123
802.068	26967
802.211	26944
802.353	26914
802.496	26826
802.638	26659
802.78	26670
802.923	26632
803.065	26701
803.208	26629
803.35	26765
803.492	26758
803.635	26804
803.777	26861
803.919	26800
804.061	27222
804.204	26948
804.346	26872
804.488	26739
804.63	26826
804.773	26872
804.915	26857
805.057	26967
805.199	26872
805.341	26982
805.483	27146
805.626	26975
805.768	26781
805.91	26994
806.052	26952
806.194	26960
806.336	27138
806.478	27017
806.62	26944
806.762	27203
806.904	27211
807.046	27447
807.188	27458
807.33	27351
807.472	27378
807.614	27378
807.756	27424
807.898	27268
808.04	27264
808.182	27340
808.324	27245
808.465	27313
808.607	27519
808.749	27641
808.891	27648
809.033	27789
809.174	27751
809.316	27705
809.458	27732
809.6	27717
809.741	27831
809.883	27797
810.025	27903
810.166	28036
810.308	27991
810.45	27907
810.591	27781
810.733	27838
810.875	27698
811.016	27614
811.158	27477
811.299	27774
811.441	27720
811.582	27808
811.724	27564
811.865	27572
812.007	27671
812.148	27500
812.29	27686
812.431	27838
812.573	27956
812.714	27941
812.855	28363
812.997	28246
813.138	28409
813.279	28261
813.421	28177
813.562	28131
813.703	28044
813.845	27819
813.986	27587
814.127	27568
814.268	27420
814.41	27386
814.551	27199
814.692	27344
814.833	27336
814.974	27332
815.115	27427
815.256	27252
815.397	27264
815.539	27207
815.68	27188
815.821	27176
815.962	27058
816.103	27180
816.244	26853
816.385	26804
816.526	26963
816.666	26693
816.807	26564
816.948	26484
817.089	26720
817.23	26712
817.371	26648
817.512	26575
817.653	26621
817.793	26613
817.934	26549
818.075	26663
818.216	26594
818.356	26549
818.497	26488
818.638	26461
818.778	26370
818.919	26358
819.06	26408
819.2	26465
819.341	26655
819.481	26693
819.622	26750
819.762	27062
819.903	26724
820.043	26735
820.184	26739
820.324	26773
820.465	26819
820.605	26769
820.746	26727
820.886	26545
821.026	26568
821.167	26716
821.307	26716
821.447	26625
821.588	26606
821.728	26320
821.868	26320
822.008	26134
822.149	26088
822.289	26008
822.429	25723
822.569	25852
822.709	25818
822.849	25563
822.99	25571
823.13	25533
823.27	25537
823.41	25285
823.55	25343
823.69	25377
823.83	25259
823.97	25377
824.11	25118
824.25	24951
824.389	25266
824.529	25312
824.669	25225
824.809	25384
824.949	25221
825.089	25324
825.228	25213
825.368	25072
825.508	25080
825.648	25152
825.787	25107
825.927	25152
826.067	24867
826.206	25000
826.346	25133
826.485	25152
826.625	25008
826.765	25126
826.904	25080
827.044	24867
827.183	24833
827.323	24814
827.462	24909
827.601	24856
827.741	24608
827.88	24806
828.02	24631
828.159	24760
828.298	24856
828.437	24856
828.577	24787
828.716	24871
828.855	24715
828.994	24608
829.134	24490
829.273	24642
829.412	24505
829.551	24330
829.69	24582
829.829	24490
829.968	24574
830.107	24505
830.246	24502
830.385	24502
830.524	24350
830.663	24296
830.802	24319
830.941	24049
831.08	24072
831.219	24159
831.357	24140
831.496	24311
831.635	24110
831.774	24026
831.913	24049
832.051	23973
832.19	23908
832.329	23897
832.467	23764
832.606	23851
832.744	23783
832.883	23794
833.022	23714
833.16	23882
833.299	23802
833.437	23855
833.576	23878
833.714	23802
833.852	23748
833.991	23794
834.129	23908
834.267	23798
834.406	23790
834.544	23805
834.682	23874
834.821	23783
834.959	23916
835.097	23809
835.235	23889
835.373	23756
835.511	23908
835.65	23748
835.788	23638
835.926	23551
836.064	23509
836.202	23463
836.34	23615
836.478	23707
836.615	23604
836.753	23767
836.891	23726
837.029	23760
837.167	23668
837.305	23707
837.443	23497
837.58	23497
837.718	23573
837.856	23501
837.993	23516
838.131	23551
838.269	23303
838.406	23417
838.544	23128
838.681	23155
838.819	23181
838.956	22889
839.094	22900
839.231	23170
839.369	23067
839.506	23303
839.643	23280
839.781	22946
839.918	22873
840.055	22919
840.193	22923
840.33	22873
840.467	22854
840.604	22927
840.742	23204
840.879	22763
841.016	22885
841.153	22736
841.29	23010
841.427	22854
841.564	23014
841.701	22892
841.838	22790
841.975	22637
842.112	22850
842.249	22710
842.385	22622
842.522	22843
842.659	22824
842.796	22656
842.933	22672
843.069	22698
843.206	22580
843.343	22729
843.479	22615
843.616	22542
843.752	22413
843.889	22436
844.025	22615
844.162	22344
844.298	22523
844.435	22424
844.571	22481
844.708	22489
844.844	22554
844.98	22668
845.117	22645
845.253	22341
845.389	22295
845.525	22314
845.661	22306
845.798	22158
845.934	22223
846.07	22086
846.206	22363
846.342	22177
846.478	22139
846.614	22078
846.75	21793
846.886	21865
847.022	22021
847.158	21888
847.294	21892
847.429	21991
847.565	21781
847.701	22051
847.837	21515
847.972	21583
848.108	21667
848.244	21663
848.379	21568
848.515	21466
848.65	21481
848.786	21534
848.921	21504
849.057	21694
849.192	21576
849.328	21454
849.463	21538
849.598	21450
849.734	21473
849.869	21340
850.004	21245
850.14	21161
850.275	21252
850.41	21142
850.545	21241
850.68	21180
850.815	21203
850.95	21435
851.085	21428
851.22	21321
851.355	21245
851.49	21222
851.625	21169
851.76	21131
851.895	21195
852.03	21127
852.165	21195
852.299	21245
852.434	21431
852.569	21233
852.703	21249
852.838	21329
852.973	21397
853.107	21428
853.242	21260
853.376	21119
853.511	20948
853.645	20994
853.78	21112
853.914	21131
854.048	20998
854.183	21093
854.317	21100
854.451	21317
854.585	21157
854.72	21032
854.854	21089
854.988	21089
855.122	21005
855.256	20944
855.39	21001
855.524	21036
855.658	21195
855.792	21058
855.926	21066
856.06	21017
856.194	21112
856.327	21043
856.461	20918
856.595	21001
856.729	21093
856.862	21108
856.996	20994
857.13	21081
857.263	21207
857.397	21108
857.53	21070
857.664	21039
857.797	21108
857.931	21260
858.064	21135
858.197	21214
858.331	21028
858.464	21039
858.597	21013
858.731	21074
858.864	20952
858.997	21051
859.13	21093
859.263	21112
859.396	21165
859.529	21062
859.662	21009
859.795	20975
859.928	21104
860.061	21135
860.194	21211
860.327	21093
860.46	21093
860.592	21188
860.725	21218
860.858	21165
860.99	21112
861.123	21123
861.256	21047
861.388	21104
861.521	21766
861.653	21108
861.786	20895
861.918	20941
862.05	20891
862.183	20967
862.315	20948
862.447	21062
862.58	21017
862.712	20788
862.844	20724
862.976	20785
863.108	20788
863.24	21146
863.372	20746
863.504	20849
863.636	20849
863.768	20815
863.9	20743
864.032	20697
864.164	20750
864.296	20739
864.428	20876
864.559	20883
864.691	20826
864.823	20861
864.954	20864
865.086	20720
865.217	20701
865.349	20609
865.48	20670
865.612	20667
865.743	20754
865.875	20674
866.006	20640
866.137	20712
866.269	20777
866.4	20769
866.531	20670
866.662	20667
866.793	20758
866.924	20678
867.055	20663
867.186	20613
867.317	20476
867.448	20552
867.579	20545
867.71	20629
867.841	20541
867.972	20617
868.103	20686
868.233	20743
868.364	20583
868.495	20697
868.625	20838
868.756	21039
868.886	20785
869.017	20743
869.147	20868
869.278	21013
869.408	20876
869.539	20960
869.669	21005
869.799	20868
869.929	20986
870.06	21032
870.19	21211
870.32	21116
870.45	21096
870.58	21195
870.71	21317
870.84	21416
870.97	21363
871.1	21195
871.23	21439
871.36	21450
871.489	21294
871.619	21321
871.749	21458
871.879	21515
872.008	21382
872.138	21428
872.267	21485
872.397	21252
872.526	21302
872.656	21218
872.785	21424
872.915	21572
873.044	21549
873.173	21557
873.303	21466
873.432	21576
873.561	21542
873.69	21462
873.819	21488
873.948	21530
874.077	21386
874.206	21424
874.335	21504
874.464	21523
874.593	21671
874.722	21652
874.851	21663
874.979	21713
875.108	21797
875.237	21732
875.365	21614
875.494	21709
875.623	21648
875.751	21701
875.88	21797
876.008	21797
876.136	21827
876.265	22173
876.393	22181
876.521	22173
876.65	22109
876.778	22067
876.906	21979
877.034	22017
877.162	22040
877.29	21911
877.418	22116
877.546	22070
877.674	22078
877.802	22055
877.93	22021
878.058	22074
878.185	21835
878.313	22006
878.441	22006
878.568	21991
878.696	21918
878.824	22120
878.951	22090
879.079	22207
879.206	22318
879.333	22177
879.461	22101
879.588	22074
879.715	22192
879.842	22341
879.97	22086
880.097	21812
880.224	21766
880.351	21884
880.478	21922
880.605	21876
880.732	21823
880.859	22074
880.986	21846
881.112	21865
881.239	21789
881.366	21644
881.493	21424
881.619	21462
881.746	21386
881.872	21424
881.999	21439
882.125	21359
882.252	21568
882.378	21401
882.505	21473
882.631	21272
882.757	21233
882.883	21233
883.01	21222
883.136	21195
883.262	21077
883.388	20960
883.514	21157
883.64	21207
883.766	21089
883.892	20918
884.018	21020
884.143	21066
884.269	21169
884.395	20788
884.52	20819
884.646	20899
884.772	20811
884.897	20644
885.023	20815
885.148	20895
885.274	20952
885.399	20853
885.524	20823
885.65	20834
885.775	20819
885.9	20735
886.025	20956
886.15	20720
886.275	20830
886.4	20785
886.525	20716
886.65	20644
886.775	20758
886.9	20838
887.025	20910
887.149	20785
887.274	20648
887.399	20549
887.523	20590
887.648	20659
887.773	20484
887.897	20670
888.021	20594
888.146	20442
888.27	20712
888.395	20629
888.519	20598
888.643	20552
888.767	20655
888.891	20533
889.015	20267
889.139	20476
889.263	20431
889.387	20469
889.511	20575
889.635	20480
889.759	20320
889.883	20290
890.006	20358
890.13	20454
890.254	20309
890.377	20278
890.501	20149
890.624	20058
890.748	20214
890.871	20054
890.995	19936
891.118	19799
891.241	19860
891.364	19940
891.488	20122
891.611	20043
891.734	19951
891.857	19898
891.98	20020
892.103	20024
892.226	19963
892.349	19890
892.471	19727
892.594	19753
892.717	19753
892.839	19811
892.962	19860
893.085	19925
893.207	19791
893.33	19620
893.452	19860
893.575	19860
893.697	19833
893.819	19936
893.941	19940
894.064	19997
894.186	19887
894.308	19841
894.43	19982
894.552	20008
894.674	19967
894.796	19685
894.918	19928
895.04	19814
895.161	19826
895.283	19833
895.405	19693
895.526	19753
895.648	19795
895.769	19715
895.891	19791
896.012	20031
896.134	19696
896.255	19887
896.376	19788
896.498	19902
896.619	19826
896.74	19837
896.861	19909
896.982	20229
897.103	20358
897.224	20218
897.345	20130
897.466	20020
897.587	19993
897.708	20180
897.828	20084
897.949	20031
898.07	19856
898.19	20058
898.311	20035
898.431	20016
898.552	20149
898.672	20065
898.792	20031
898.913	20103
899.033	19944
899.153	19674
899.273	19818
899.393	19818
899.513	19799
899.633	19906
899.753	19890
899.873	19845
899.993	19925
900.113	19807
900.232	19769
900.352	19708
900.472	19662
900.591	19586
900.711	19689
900.83	19571
900.95	19708
901.069	19757
901.189	19578
901.308	19403
901.427	19232
901.546	19175
901.665	19247
901.784	19236
901.904	19148
902.023	18943
902.141	18802
902.26	18753
902.379	18878
902.498	18734
902.617	18703
902.735	18863
902.854	18696
902.973	18726
903.091	18445
903.21	18388
903.328	18384
903.446	18361
903.565	18121
903.683	18190
903.801	18140
903.919	18148
904.038	18178
904.156	17923
904.274	18003
904.392	17980
904.51	17840
904.627	17950
904.745	17988
904.863	18041
904.981	17726
905.098	17695
905.216	17638
905.334	17512
905.451	17684
905.569	17653
905.686	17657
905.803	17589
905.921	17440
906.038	17585
906.155	17459
906.272	17356
906.389	17353
906.506	17185
906.623	17235
906.74	17109
906.857	16968
906.974	17075
907.091	17189
907.208	17326
907.324	17105
907.441	17136
907.557	16892
907.674	16850
907.79	16763
907.907	16748
908.023	16892
908.139	16911
908.256	16805
908.372	16831
908.488	16809
908.604	16558
908.72	16618
908.836	16691
908.952	16481
909.068	16630
909.184	16691
909.3	16561
909.415	16622
909.531	16626
909.647	16344
909.762	16249
909.878	16360
909.993	16318
910.108	16291
910.224	16310
910.339	16257
910.454	16242
910.57	16147
910.685	16032
910.8	16363
910.915	16333
911.03	16166
911.145	16040
911.259	16044
911.374	15899
911.489	15983
911.604	15861
911.718	15701
911.833	15679
911.947	15485
912.062	15439
912.176	15682
912.291	15660
912.405	15568
912.519	15956
912.633	15819
912.748	15644
912.862	15698
912.976	15500
913.09	15344
913.204	15435
913.318	15538
913.431	15561
913.545	15511
913.659	15603
913.772	15523
913.886	15214
914	15336
914.113	15374
914.226	15351
914.34	15260
914.453	15249
914.566	15310
914.68	15135
914.793	15013
914.906	15043
915.019	14830
915.132	14864
915.245	14887
915.358	14963
915.47	14941
915.583	14937
915.696	14979
915.809	14998
915.921	15043
916.034	14887
916.146	14792
916.259	14838
916.371	14979
916.483	14941
916.595	14804
916.708	14811
916.82	14697
916.932	14625
917.044	14682
917.156	14670
917.268	14568
917.38	14530
917.491	14389
917.603	14503
917.715	14530
917.826	14651
917.938	14560
918.049	14412
918.161	14507
918.272	14632
918.384	14705
918.495	14476
918.606	14393
918.717	14286
918.828	14290
918.939	14294
919.05	14115
919.161	14244
919.272	14096
919.383	14157
919.494	14347
919.604	14545
919.715	14366
919.826	14278
919.936	14339
920.047	14324
920.157	14332
920.267	14533
920.378	14294
920.488	14218
920.598	14473
920.708	14533
920.818	14530
920.928	14358
921.038	14617
921.148	14507
921.258	14271
921.368	14100
921.477	14065
921.587	14008
921.697	13807
921.806	14043
921.916	13871
922.025	13742
922.134	13662
922.244	13628
922.353	13746
922.462	13537
922.571	13460
922.68	13335
922.789	13339
922.898	13324
923.007	13244
923.116	13369
923.224	13274
923.333	13339
923.442	13137
923.55	13168
923.659	13190
923.767	13278
923.876	13061
923.984	13145
924.092	13027
924.201	13110
924.309	13103
924.417	13065
924.525	12996
924.633	13099
924.741	13814
924.849	12840
924.956	12947
925.064	12749
925.172	12646
925.279	12722
925.387	12753
925.494	12745
925.602	12920
925.709	12810
925.816	12646
925.924	12821
926.031	12798
926.138	12677
926.245	12741
926.352	12612
926.459	12787
926.566	12810
926.673	12612
926.779	12517
926.886	12513
926.993	12292
927.099	12330
927.206	12300
927.312	12247
927.419	12342
927.525	12327
927.631	12376
927.737	12209
927.843	12175
927.95	12140
928.056	12140
928.162	12117
928.267	12228
928.373	12856
928.479	12258
928.585	12030
928.69	12190
928.796	12133
928.901	12049
929.007	11882
929.112	12011
929.218	11946
929.323	11935
929.428	11813
929.533	12011
929.638	11870
929.743	11828
929.848	11847
929.953	11760
930.058	11760
930.163	11615
930.267	11604
930.372	11771
930.477	11551
930.581	11726
930.685	11611
930.79	11471
930.894	11482
930.998	11497
931.103	11589
931.207	11284
931.311	11079
931.415	11090
931.519	10809
931.623	10843
