Data from test_V78500241_179.txt Node
Date: Fri Mar 25 15:11:06 CST 2022
User: usil
Spectrometer: V785-0024
Trigger mode: 0
Integration Time (sec): 4.000000E-1
Scans to average: 1
Nonlinearity correction enabled: false
Boxcar width: 0
Storing dark spectrum: false
XAxis mode: Wavelengths
Number of Pixels in Spectrum: 1024
>>>>>Begin Spectral Data<<<<<
801.071	27351
801.214	27359
801.356	27226
801.499	27135
801.641	26937
801.783	26815
801.926	27009
802.068	26971
802.211	26796
802.353	26575
802.496	26663
802.638	26632
802.78	26522
802.923	26404
803.065	26305
803.208	26408
803.35	26522
803.492	26457
803.635	26530
803.777	26480
803.919	26549
804.061	26952
804.204	26621
804.346	26488
804.488	26457
804.63	26473
804.773	26442
804.915	26355
805.057	26648
805.199	26579
805.341	26484
805.483	26556
805.626	26598
805.768	26476
805.91	26682
806.052	26640
806.194	26507
806.336	26758
806.478	26670
806.62	26629
806.762	26731
806.904	26815
807.046	26975
807.188	27055
807.33	26937
807.472	26944
807.614	26979
807.756	26868
807.898	26883
808.04	26754
808.182	26617
808.324	26830
808.465	26746
808.607	26853
808.749	27123
808.891	27146
809.033	27165
809.174	27131
809.316	27142
809.458	27100
809.6	27184
809.741	27066
809.883	27154
810.025	27211
810.166	27283
810.308	27367
810.45	27298
810.591	27306
810.733	27028
810.875	27093
811.016	27028
811.158	26891
811.299	27157
811.441	27226
811.582	27195
811.724	27001
811.865	26956
812.007	27013
812.148	26929
812.29	27081
812.431	27169
812.573	27397
812.714	27454
812.855	27572
812.997	27462
813.138	27682
813.279	27477
813.421	27477
813.562	27332
813.703	27386
813.845	27195
813.986	26891
814.127	26834
814.268	26785
814.41	26705
814.551	26629
814.692	26762
814.833	26492
814.974	26583
815.115	26636
815.256	26488
815.397	26511
815.539	26552
815.68	26377
815.821	26317
815.962	26492
816.103	26427
816.244	26122
816.385	26183
816.526	26027
816.666	25925
816.807	25814
816.948	25974
817.089	25997
817.23	25776
817.371	25856
817.512	25913
817.653	25807
817.793	25803
817.934	25906
818.075	25753
818.216	25940
818.356	25753
818.497	25784
818.638	25548
818.778	25563
818.919	25430
819.06	25590
819.2	25586
819.341	25849
819.481	25704
819.622	25849
819.762	26073
819.903	26050
820.043	25742
820.184	25921
820.324	25753
820.465	25928
820.605	25925
820.746	25845
820.886	25837
821.026	25826
821.167	25799
821.307	25913
821.447	25700
821.588	25628
821.728	25567
821.868	25358
822.008	25221
822.149	25293
822.289	25209
822.429	24863
822.569	25015
822.709	24947
822.849	24608
822.99	24707
823.13	24604
823.27	24585
823.41	24441
823.55	24426
823.69	24471
823.83	24483
823.97	24391
824.11	24300
824.25	24350
824.389	24228
824.529	24403
824.669	24292
824.809	24334
824.949	24327
825.089	24334
825.228	24327
825.368	24079
825.508	24140
825.648	24163
825.787	24159
825.927	24152
826.067	24030
826.206	24045
826.346	24174
826.485	24178
826.625	24060
826.765	24178
826.904	24110
827.044	23821
827.183	23870
827.323	23752
827.462	23824
827.601	23767
827.741	23752
827.88	23707
828.02	23646
828.159	23722
828.298	23775
828.437	23847
828.577	23592
828.716	23878
828.855	23646
828.994	23436
829.134	23474
829.273	23524
829.412	23372
829.551	23341
829.69	23349
829.829	23459
829.968	23531
830.107	23512
830.246	23433
830.385	23349
830.524	23288
830.663	23216
830.802	23094
830.941	23128
831.08	23056
831.219	23079
831.357	23109
831.496	23307
831.635	23010
831.774	22946
831.913	22889
832.051	22839
832.19	22759
832.329	22820
832.467	22664
832.606	22546
832.744	22500
832.883	22641
833.022	22649
833.16	22740
833.299	22702
833.437	22664
833.576	22660
833.714	22679
833.852	22782
833.991	22721
834.129	22820
834.267	22801
834.406	22694
834.544	22679
834.682	22759
834.821	22618
834.959	22869
835.097	22630
835.235	22717
835.373	22592
835.511	22626
835.65	22660
835.788	22474
835.926	22348
836.064	22352
836.202	22516
836.34	22493
836.478	22611
836.615	22447
836.753	22527
836.891	22626
837.029	22481
837.167	22554
837.305	22451
837.443	22436
837.58	22314
837.718	22394
837.856	22394
837.993	22329
838.131	22348
838.269	22246
838.406	22219
838.544	22188
838.681	22051
838.819	22021
838.956	21861
839.094	21899
839.231	21934
839.369	21972
839.506	22147
839.643	22010
839.781	21739
839.918	21739
840.055	21797
840.193	21675
840.33	21774
840.467	21766
840.604	21823
840.742	22074
840.879	21610
841.016	21618
841.153	21713
841.29	21842
841.427	21705
841.564	21778
841.701	21766
841.838	21629
841.975	21542
842.112	21553
842.249	21641
842.385	21485
842.522	21656
842.659	21428
842.796	21492
842.933	21416
843.069	21363
843.206	21344
843.343	21447
843.479	21412
843.616	21454
843.752	21142
843.889	21313
844.025	21230
844.162	21176
844.298	21329
844.435	21302
844.571	21077
844.708	21279
844.844	21374
844.98	21462
845.117	21256
845.253	21192
845.389	21085
845.525	21127
845.661	21039
845.798	20960
845.934	20960
846.07	20902
846.206	20895
846.342	20994
846.478	20899
846.614	20773
846.75	20716
846.886	20682
847.022	20705
847.158	20807
847.294	20594
847.429	20754
847.565	20701
847.701	20967
847.837	20393
847.972	20404
848.108	20419
848.244	20393
848.379	20339
848.515	20244
848.65	20233
848.786	20320
848.921	20259
849.057	20343
849.192	20153
849.328	20256
849.463	20221
849.598	20214
849.734	20096
849.869	19982
850.004	20100
850.14	20122
850.275	19986
850.41	19883
850.545	19852
850.68	20008
850.815	20039
850.95	20024
851.085	20138
851.22	20081
851.355	19852
851.49	19887
851.625	19894
851.76	19860
851.895	19898
852.03	19791
852.165	19909
852.299	20050
852.434	19997
852.569	20016
852.703	19970
852.838	20069
852.973	19974
853.107	20088
853.242	19974
853.376	19696
853.511	19769
853.645	19693
853.78	19997
853.914	19746
854.048	19769
854.183	19738
854.317	19883
854.451	19982
854.585	19765
854.72	19765
854.854	19719
854.988	19658
855.122	19814
855.256	19620
855.39	19788
855.524	19753
855.658	19837
855.792	19837
855.926	19864
856.06	19830
856.194	19845
856.327	19708
856.461	19761
856.595	19700
856.729	19784
856.862	19871
856.996	19864
857.13	19849
857.263	19837
857.397	19860
857.53	19856
857.664	19830
857.797	19788
857.931	19856
858.064	19742
858.197	19868
858.331	19655
858.464	19750
858.597	19681
858.731	19769
858.864	19677
858.997	19791
859.13	19791
859.263	19788
859.396	19879
859.529	19700
859.662	19632
859.795	19731
859.928	19772
860.061	19826
860.194	19887
860.327	19795
860.46	19624
860.592	19761
860.725	19791
860.858	19890
860.99	19795
861.123	19578
861.256	19658
861.388	19814
861.521	20419
861.653	19540
861.786	19529
861.918	19514
862.05	19708
862.183	19746
862.315	19738
862.447	19772
862.58	19712
862.712	19540
862.844	19472
862.976	19559
863.108	19609
863.24	19780
863.372	19327
863.504	19491
863.636	19476
863.768	19499
863.9	19483
864.032	19483
864.164	19445
864.296	19388
864.428	19434
864.559	19453
864.691	19567
864.823	19457
864.954	19533
865.086	19392
865.217	19301
865.349	19171
865.48	19274
865.612	19396
865.743	19419
865.875	19419
866.006	19285
866.137	19331
866.269	19419
866.4	19278
866.531	19339
866.662	19316
866.793	19285
866.924	19285
867.055	19422
867.186	19362
867.317	19285
867.448	19194
867.579	19384
867.71	19266
867.841	19183
867.972	19217
868.103	19270
868.233	19217
868.364	19289
868.495	19472
868.625	19514
868.756	19613
868.886	19476
869.017	19480
869.147	19685
869.278	19685
869.408	19491
869.539	19613
869.669	19533
869.799	19567
869.929	19807
870.06	19655
870.19	19784
870.32	19868
870.45	19883
870.58	19936
870.71	20027
870.84	20050
870.97	19890
871.1	19856
871.23	20187
871.36	20088
871.489	19921
871.619	20130
871.749	20069
871.879	20183
872.008	20263
872.138	20138
872.267	20126
872.397	20084
872.526	19902
872.656	19997
872.785	19993
872.915	20149
873.044	20252
873.173	20092
873.303	20271
873.432	20153
873.561	20225
873.69	20149
873.819	20115
873.948	20115
874.077	20233
874.206	20126
874.335	20145
874.464	20336
874.593	20412
874.722	20377
874.851	20408
874.979	20442
875.108	20457
875.237	20374
875.365	20301
875.494	20393
875.623	20575
875.751	20400
875.88	20541
876.008	20549
876.136	20701
876.265	20785
876.393	21009
876.521	20845
876.65	20948
876.778	20891
876.906	20838
877.034	20777
877.162	20864
877.29	20765
877.418	20807
877.546	20796
877.674	20777
877.802	20765
877.93	20746
878.058	20682
878.185	20693
878.313	20743
878.441	20857
878.568	20606
878.696	20773
878.824	20849
878.951	20746
879.079	20944
879.206	21051
879.333	20933
879.461	20823
879.588	20963
879.715	20979
879.842	21039
879.97	20834
880.097	20556
880.224	20522
880.351	20670
880.478	20686
880.605	20579
880.732	20602
880.859	20815
880.986	20617
881.112	20632
881.239	20499
881.366	20252
881.493	20305
881.619	20271
881.746	20298
881.872	20199
881.999	20145
882.125	20157
882.252	20313
882.378	20069
882.505	20328
882.631	20248
882.757	19913
882.883	20088
883.01	20008
883.136	19849
883.262	19776
883.388	19841
883.514	19986
883.64	19955
883.766	19864
883.892	19772
884.018	19868
884.143	19913
884.269	20035
884.395	19753
884.52	19651
884.646	19616
884.772	19609
884.897	19441
885.023	19639
885.148	19605
885.274	19879
885.399	19666
885.524	19628
885.65	19552
885.775	19533
885.9	19533
886.025	19594
886.15	19715
886.275	19613
886.4	19480
886.525	19559
886.65	19518
886.775	19506
886.9	19712
887.025	19795
887.149	19647
887.274	19362
887.399	19430
887.523	19422
887.648	19228
887.773	19278
887.897	19407
888.021	19358
888.146	19362
888.27	19411
888.395	19537
888.519	19403
888.643	19460
888.767	19400
888.891	19301
889.015	19095
889.139	19202
889.263	19091
889.387	19133
889.511	19407
889.635	19308
889.759	19179
889.883	19133
890.006	19232
890.13	19285
890.254	19118
890.377	19164
890.501	18958
890.624	18760
890.748	18943
890.871	18920
890.995	18688
891.118	18734
891.241	18829
891.364	18867
891.488	18932
891.611	18760
891.734	18829
891.857	18848
891.98	18798
892.103	18875
892.226	18741
892.349	18654
892.471	18574
892.594	18707
892.717	18738
892.839	18661
892.962	18642
893.085	18783
893.207	18677
893.33	18597
893.452	18601
893.575	18810
893.697	18677
893.819	18916
893.941	18901
894.064	18852
894.186	18711
894.308	18639
894.43	18726
894.552	18753
894.674	18817
894.796	18650
894.918	18741
895.04	18650
895.161	18658
895.283	18677
895.405	18669
895.526	18749
895.648	18696
895.769	18779
895.891	18681
896.012	18768
896.134	18749
896.255	18734
896.376	18779
896.498	18833
896.619	18867
896.74	18688
896.861	18821
896.982	19076
897.103	19141
897.224	19114
897.345	18973
897.466	18848
897.587	19038
897.708	19076
897.828	19141
897.949	18863
898.07	18859
898.19	18985
898.311	19000
898.431	18916
898.552	18970
898.672	19072
898.792	19019
898.913	19061
899.033	18798
899.153	18692
899.273	18658
899.393	18707
899.513	18734
899.633	18745
899.753	18795
899.873	18738
899.993	18642
900.113	18711
900.232	18677
900.352	18669
900.472	18627
900.591	18422
900.711	18578
900.83	18490
900.95	18589
901.069	18604
901.189	18486
901.308	18190
901.427	18053
901.546	18197
901.665	18095
901.784	18136
901.904	18060
902.023	17897
902.141	17665
902.26	17760
902.379	17813
902.498	17668
902.617	17649
902.735	17623
902.854	17592
902.973	17589
903.091	17334
903.21	17254
903.328	17212
903.446	17155
903.565	17140
903.683	17151
903.801	17060
903.919	17052
904.038	17041
904.156	17014
904.274	17022
904.392	16965
904.51	16904
904.627	16854
904.745	17037
904.863	16896
904.981	16713
905.098	16569
905.216	16569
905.334	16675
905.451	16634
905.569	16573
905.686	16519
905.803	16592
905.921	16466
906.038	16516
906.155	16375
906.272	16261
906.389	16322
906.506	16067
906.623	16097
906.74	16109
906.857	15994
906.974	16017
907.091	16173
907.208	16166
907.324	16219
907.441	16006
907.557	15922
907.674	15880
907.79	15774
907.907	15831
908.023	15846
908.139	15842
908.256	15808
908.372	15743
908.488	15732
908.604	15526
908.72	15625
908.836	15488
908.952	15447
909.068	15481
909.184	15652
909.3	15526
909.415	15496
909.531	15473
909.647	15275
909.762	15321
909.878	15222
909.993	15264
910.108	15173
910.224	15214
910.339	15272
910.454	15051
910.57	15146
910.685	15058
910.8	15321
910.915	15192
911.03	15047
911.145	14910
911.259	14899
911.374	14826
911.489	14785
911.604	14712
911.718	14659
911.833	14560
911.947	14431
912.062	14332
912.176	14495
912.291	14549
912.405	14648
912.519	14754
912.633	14769
912.748	14625
912.862	14552
912.976	14484
913.09	14301
913.204	14385
913.318	14465
913.431	14434
913.545	14434
913.659	14503
913.772	14366
913.886	14343
914	14298
914.113	14298
914.226	14366
914.34	14294
914.453	14180
914.566	14290
914.68	14168
914.793	14252
914.906	13917
915.019	13913
915.132	13856
915.245	13906
915.358	14008
915.47	13890
915.583	13864
915.696	13887
915.809	13928
915.921	13993
916.034	13852
916.146	13837
916.259	13837
916.371	13898
916.483	13849
916.595	13715
916.708	13704
916.82	13757
916.932	13715
917.044	13731
917.156	13662
917.268	13491
917.38	13624
917.491	13567
917.603	13670
917.715	13628
917.826	13628
917.938	13613
918.049	13502
918.161	13582
918.272	13719
918.384	13696
918.495	13571
918.606	13449
918.717	13350
918.828	13430
918.939	13426
919.05	13240
919.161	13324
919.272	13122
919.383	13278
919.494	13419
919.604	13537
919.715	13415
919.826	13236
919.936	13289
920.047	13491
920.157	13304
920.267	13540
920.378	13419
920.488	13266
920.598	13540
920.708	13734
920.818	13453
920.928	13441
921.038	13544
921.148	13609
921.258	13331
921.368	13270
921.477	13057
921.587	13069
921.697	12932
921.806	13080
921.916	12958
922.025	12817
922.134	12783
922.244	12715
922.353	12798
922.462	12627
922.571	12566
922.68	12490
922.789	12433
922.898	12437
923.007	12292
923.116	12407
923.224	12369
923.333	12289
923.442	12277
923.55	12251
923.659	12258
923.767	12266
923.876	12239
923.984	12304
924.092	12155
924.201	12175
924.309	12216
924.417	12224
924.525	12045
924.633	12152
924.741	12882
924.849	11969
924.956	12041
925.064	11965
925.172	11726
925.279	11874
925.387	11889
925.494	11942
925.602	11969
925.709	11950
925.816	11798
925.924	11885
926.031	11996
926.138	11908
926.245	11897
926.352	11764
926.459	11920
926.566	11893
926.673	11771
926.779	11695
926.886	11703
926.993	11436
927.099	11581
927.206	11433
927.312	11562
927.419	11532
927.525	11471
927.631	11535
927.737	11395
927.843	11379
927.95	11239
928.056	11326
928.162	11345
928.267	11395
928.373	11908
928.479	11417
928.585	11147
928.69	11299
928.796	11273
928.901	11155
929.007	11060
929.112	11189
929.218	11117
929.323	11086
929.428	11075
929.533	11254
929.638	10987
929.743	11117
929.848	11105
929.953	11022
930.058	10877
930.163	10744
930.267	10862
930.372	10949
930.477	10812
930.581	10904
930.685	10847
930.79	10706
930.894	10683
930.998	10660
931.103	10854
931.207	10386
931.311	10352
931.415	10314
931.519	10143
931.623	10097
