Data from test_V78500241_2787.txt Node
Date: Fri Mar 25 15:29:16 CST 2022
User: usil
Spectrometer: V785-0024
Trigger mode: 0
Integration Time (sec): 4.000000E-1
Scans to average: 1
Nonlinearity correction enabled: false
Boxcar width: 0
Storing dark spectrum: false
XAxis mode: Wavelengths
Number of Pixels in Spectrum: 1024
>>>>>Begin Spectral Data<<<<<
801.071	27161
801.214	27032
801.356	26906
801.499	26804
801.641	26724
801.783	26659
801.926	26724
802.068	26667
802.211	26594
802.353	26537
802.496	26339
802.638	26362
802.78	26332
802.923	26191
803.065	26195
803.208	26172
803.35	26313
803.492	26385
803.635	26503
803.777	26499
803.919	26419
804.061	26712
804.204	26473
804.346	26461
804.488	26362
804.63	26492
804.773	26358
804.915	26465
805.057	26594
805.199	26412
805.341	26469
805.483	26621
805.626	26518
805.768	26564
805.91	26590
806.052	26526
806.194	26427
806.336	26796
806.478	26549
806.62	26492
806.762	26648
806.904	26777
807.046	27028
807.188	26956
807.33	27142
807.472	27066
807.614	26921
807.756	26906
807.898	26754
808.04	26788
808.182	26834
808.324	26872
808.465	26868
808.607	27112
808.749	27165
808.891	27374
809.033	27264
809.174	27157
809.316	27195
809.458	27195
809.6	27169
809.741	27245
809.883	27279
810.025	27401
810.166	27485
810.308	27340
810.45	27447
810.591	27382
810.733	27226
810.875	27055
811.016	27188
811.158	26982
811.299	27351
811.441	27336
811.582	27397
811.724	27192
811.865	27085
812.007	27199
812.148	27047
812.29	27127
812.431	27264
812.573	27416
812.714	27519
812.855	27599
812.997	27736
813.138	27892
813.279	27785
813.421	27603
813.562	27481
813.703	27363
813.845	27401
813.986	27192
814.127	26880
814.268	26864
814.41	26826
814.551	26739
814.692	26857
814.833	26731
814.974	26705
815.115	26819
815.256	26609
815.397	26739
815.539	26655
815.68	26575
815.821	26465
815.962	26644
816.103	26632
816.244	26362
816.385	26298
816.526	26385
816.666	26126
816.807	26149
816.948	26180
817.089	26214
817.23	26142
817.371	25986
817.512	26081
817.653	26043
817.793	26077
817.934	26103
818.075	25959
818.216	26088
818.356	26027
818.497	25913
818.638	25894
818.778	25746
818.919	25791
819.06	25784
819.2	25982
819.341	26020
819.481	26050
819.622	26218
819.762	26408
819.903	26320
820.043	26370
820.184	26233
820.324	26324
820.465	26221
820.605	26161
820.746	26180
820.886	26100
821.026	26005
821.167	26130
821.307	26233
821.447	26012
821.588	25864
821.728	25772
821.868	25662
822.008	25567
822.149	25575
822.289	25563
822.429	25426
822.569	25228
822.709	25198
822.849	25198
822.99	25042
823.13	25019
823.27	25034
823.41	25019
823.55	24856
823.69	24951
823.83	24882
823.97	24741
824.11	24665
824.25	24616
824.389	24650
824.529	24897
824.669	24677
824.809	24730
824.949	24700
825.089	24749
825.228	24684
825.368	24547
825.508	24467
825.648	24532
825.787	24654
825.927	24601
826.067	24483
826.206	24521
826.346	24578
826.485	24707
826.625	24608
826.765	24620
826.904	24551
827.044	24273
827.183	24277
827.323	24060
827.462	24308
827.601	24220
827.741	24273
827.88	24285
828.02	24133
828.159	24133
828.298	24239
828.437	24262
828.577	24095
828.716	24289
828.855	24167
828.994	23847
829.134	23935
829.273	23874
829.412	23923
829.551	23973
829.69	23916
829.829	23916
829.968	24091
830.107	24091
830.246	23954
830.385	23912
830.524	23851
830.663	23775
830.802	23699
830.941	23520
831.08	23467
831.219	23493
831.357	23539
831.496	23710
831.635	23509
831.774	23417
831.913	23429
832.051	23280
832.19	23280
832.329	23448
832.467	23231
832.606	23288
832.744	23162
832.883	23212
833.022	23162
833.16	23254
833.299	23185
833.437	23159
833.576	23258
833.714	23299
833.852	23322
833.991	23258
834.129	23398
834.267	23383
834.406	23376
834.544	23364
834.682	23273
834.821	23181
834.959	23383
835.097	23239
835.235	23292
835.373	23235
835.511	23250
835.65	23079
835.788	23128
835.926	22984
836.064	22896
836.202	22987
836.34	23151
836.478	23189
836.615	23060
836.753	23067
836.891	23109
837.029	23064
837.167	23227
837.305	22984
837.443	22911
837.58	22915
837.718	23140
837.856	23075
837.993	22934
838.131	22965
838.269	22923
838.406	22854
838.544	22729
838.681	22687
838.819	22626
838.956	22470
839.094	22474
839.231	22535
839.369	22725
839.506	22820
839.643	22744
839.781	22284
839.918	22432
840.055	22436
840.193	22344
840.33	22318
840.467	22341
840.604	22344
840.742	22637
840.879	22242
841.016	22379
841.153	22390
841.29	22344
841.427	22466
841.564	22348
841.701	22382
841.838	22249
841.975	22257
842.112	22421
842.249	22405
842.385	22150
842.522	22394
842.659	22333
842.796	21991
842.933	22051
843.069	22105
843.206	22090
843.343	22226
843.479	22067
843.616	22017
843.752	22021
843.889	21956
844.025	22010
844.162	21888
844.298	21987
844.435	21937
844.571	21892
844.708	21876
844.844	22086
844.98	22059
845.117	21873
845.253	21876
845.389	21743
845.525	21762
845.661	21789
845.798	21580
845.934	21682
846.07	21618
846.206	21591
846.342	21747
846.478	21778
846.614	21450
846.75	21351
846.886	21321
847.022	21378
847.158	21412
847.294	21386
847.429	21408
847.565	21332
847.701	21663
847.837	21127
847.972	21096
848.108	21325
848.244	21268
848.379	20960
848.515	20876
848.65	21028
848.786	20948
848.921	21085
849.057	21093
849.192	20956
849.328	21028
849.463	20982
849.598	20895
849.734	20849
849.869	20720
850.004	20644
850.14	20807
850.275	20735
850.41	20689
850.545	20651
850.68	20655
850.815	20720
850.95	20648
851.085	20982
851.22	20895
851.355	20781
851.49	20739
851.625	20785
851.76	20686
851.895	20636
852.03	20629
852.165	20937
852.299	20777
852.434	20716
852.569	20773
852.703	20674
852.838	20777
852.973	20800
853.107	20769
853.242	20648
853.376	20533
853.511	20389
853.645	20587
853.78	20667
853.914	20590
854.048	20583
854.183	20454
854.317	20587
854.451	20826
854.585	20507
854.72	20549
854.854	20644
854.988	20552
855.122	20625
855.256	20476
855.39	20625
855.524	20549
855.658	20667
855.792	20625
855.926	20560
856.06	20541
856.194	20659
856.327	20556
856.461	20533
856.595	20499
856.729	20465
856.862	20724
856.996	20556
857.13	20533
857.263	20773
857.397	20765
857.53	20549
857.664	20549
857.797	20587
857.931	20602
858.064	20621
858.197	20777
858.331	20537
858.464	20495
858.597	20545
858.731	20480
858.864	20469
858.997	20549
859.13	20549
859.263	20609
859.396	20678
859.529	20530
859.662	20473
859.795	20537
859.928	20560
860.061	20792
860.194	20785
860.327	20678
860.46	20663
860.592	20682
860.725	20716
860.858	20640
860.99	20617
861.123	20461
861.256	20446
861.388	20560
861.521	21222
861.653	20518
861.786	20313
861.918	20362
862.05	20427
862.183	20511
862.315	20598
862.447	20568
862.58	20450
862.712	20294
862.844	20301
862.976	20389
863.108	20332
863.24	20720
863.372	20195
863.504	20191
863.636	20237
863.768	20286
863.9	20240
864.032	20161
864.164	20248
864.296	20187
864.428	20404
864.559	20438
864.691	20396
864.823	20461
864.954	20332
865.086	20138
865.217	20168
865.349	20096
865.48	20233
865.612	20180
865.743	20313
865.875	20233
866.006	20187
866.137	20142
866.269	20221
866.4	20142
866.531	20168
866.662	20103
866.793	20024
866.924	20122
867.055	20176
867.186	20119
867.317	20054
867.448	20058
867.579	19986
867.71	19982
867.841	20046
867.972	20088
868.103	20077
868.233	20005
868.364	20119
868.495	20199
868.625	20396
868.756	20469
868.886	20256
869.017	20400
869.147	20415
869.278	20484
869.408	20366
869.539	20389
869.669	20518
869.799	20389
869.929	20450
870.06	20518
870.19	20598
870.32	20606
870.45	20689
870.58	20716
870.71	20868
870.84	20925
870.97	20750
871.1	20788
871.23	21081
871.36	20944
871.489	20887
871.619	20781
871.749	20994
871.879	20967
872.008	21192
872.138	20982
872.267	20868
872.397	20861
872.526	20754
872.656	20849
872.785	20823
872.915	21062
873.044	21058
873.173	21074
873.303	21039
873.432	21017
873.561	21077
873.69	20944
873.819	21047
873.948	20971
874.077	21055
874.206	20883
874.335	21077
874.464	21180
874.593	21237
874.722	21199
874.851	21332
874.979	21173
875.108	21245
875.237	21135
875.365	21173
875.494	21127
875.623	21195
875.751	21157
875.88	21252
876.008	21336
876.136	21405
876.265	21690
876.393	21610
876.521	21648
876.65	21717
876.778	21663
876.906	21477
877.034	21606
877.162	21698
877.29	21473
877.418	21614
877.546	21614
877.674	21633
877.802	21606
877.93	21557
878.058	21481
878.185	21264
878.313	21511
878.441	21492
878.568	21351
878.696	21622
878.824	21568
878.951	21591
879.079	21781
879.206	21873
879.333	21720
879.461	21717
879.588	21736
879.715	21739
879.842	21918
879.97	21595
880.097	21325
880.224	21439
880.351	21507
880.478	21393
880.605	21450
880.732	21332
880.859	21644
880.986	21500
881.112	21447
881.239	21268
881.366	21138
881.493	21032
881.619	20952
881.746	21017
881.872	20967
881.999	20986
882.125	21005
882.252	21093
882.378	20979
882.505	21093
882.631	20906
882.757	20712
882.883	20769
883.01	20746
883.136	20617
883.262	20530
883.388	20511
883.514	20697
883.64	20701
883.766	20625
883.892	20495
884.018	20537
884.143	20651
884.269	20701
884.395	20423
884.52	20320
884.646	20450
884.772	20229
884.897	20290
885.023	20339
885.148	20362
885.274	20454
885.399	20404
885.524	20457
885.65	20488
885.775	20465
885.9	20240
886.025	20423
886.15	20503
886.275	20294
886.4	20256
886.525	20301
886.65	20301
886.775	20187
886.9	20438
887.025	20609
887.149	20244
887.274	20138
887.399	20092
887.523	20130
887.648	20172
887.773	20138
887.897	20111
888.021	20180
888.146	20058
888.27	20210
888.395	20191
888.519	20161
888.643	20202
888.767	20267
888.891	20134
889.015	19879
889.139	20065
889.263	20012
889.387	20054
889.511	20119
889.635	20157
889.759	20008
889.883	20024
890.006	20107
890.13	20065
890.254	19875
890.377	19868
890.501	19651
890.624	19712
890.748	19666
890.871	19635
890.995	19483
891.118	19434
891.241	19483
891.364	19480
891.488	19571
891.611	19559
891.734	19578
891.857	19586
891.98	19510
892.103	19540
892.226	19597
892.349	19495
892.471	19339
892.594	19559
892.717	19449
892.839	19350
892.962	19502
893.085	19544
893.207	19308
893.33	19320
893.452	19396
893.575	19499
893.697	19377
893.819	19613
893.941	19662
894.064	19567
894.186	19331
894.308	19377
894.43	19651
894.552	19495
894.674	19430
894.796	19396
894.918	19354
895.04	19373
895.161	19502
895.283	19419
895.405	19304
895.526	19411
895.648	19403
895.769	19377
895.891	19495
896.012	19518
896.134	19510
896.255	19556
896.376	19438
896.498	19464
896.619	19483
896.74	19365
896.861	19582
896.982	19818
897.103	19898
897.224	19757
897.345	19609
897.466	19548
897.587	19590
897.708	19685
897.828	19757
897.949	19681
898.07	19613
898.19	19582
898.311	19780
898.431	19601
898.552	19655
898.672	19674
898.792	19708
898.913	19662
899.033	19594
899.153	19472
899.273	19419
899.393	19468
899.513	19422
899.633	19472
899.753	19502
899.873	19377
899.993	19571
900.113	19434
900.232	19312
900.352	19350
900.472	19225
900.591	19255
900.711	19263
900.83	19217
900.95	19407
901.069	19263
901.189	19133
901.308	18977
901.427	18863
901.546	18821
901.665	18825
901.784	18802
901.904	18665
902.023	18631
902.141	18357
902.26	18399
902.379	18517
902.498	18414
902.617	18353
902.735	18395
902.854	18376
902.973	18323
903.091	18003
903.21	18015
903.328	17942
903.446	17916
903.565	17764
903.683	17920
903.801	17821
903.919	17767
904.038	17714
904.156	17668
904.274	17642
904.392	17551
904.51	17657
904.627	17539
904.745	17611
904.863	17630
904.981	17414
905.098	17284
905.216	17372
905.334	17288
905.451	17303
905.569	17231
905.686	17258
905.803	17299
905.921	17105
906.038	17147
906.155	17075
906.272	16953
906.389	16991
906.506	16828
906.623	16927
906.74	16786
906.857	16694
906.974	16713
907.091	16847
907.208	16980
907.324	16748
907.441	16748
907.557	16577
907.674	16531
907.79	16550
907.907	16485
908.023	16523
908.139	16592
908.256	16421
908.372	16421
908.488	16394
908.604	16341
908.72	16257
908.836	16223
908.952	16375
909.068	16207
909.184	16405
909.3	16154
909.415	16295
909.531	16291
909.647	15975
909.762	16032
909.878	16040
909.993	15979
910.108	15941
910.224	15915
910.339	15983
910.454	15770
910.57	15793
910.685	15713
910.8	16017
910.915	15922
911.03	15861
911.145	15641
911.259	15549
911.374	15610
911.489	15447
911.604	15408
911.718	15241
911.833	15294
911.947	15348
912.062	15188
912.176	15401
912.291	15431
912.405	15344
912.519	15584
912.633	15496
912.748	15462
912.862	15291
912.976	15173
913.09	15028
913.204	15100
913.318	15161
913.431	15249
913.545	15131
913.659	15294
913.772	15097
913.886	15017
914	15024
914.113	15089
914.226	15085
914.34	14994
914.453	14838
914.566	15028
914.68	14785
914.793	14663
914.906	14754
915.019	14674
915.132	14537
915.245	14564
915.358	14689
915.47	14651
915.583	14594
915.696	14625
915.809	14571
915.921	14739
916.034	14503
916.146	14442
916.259	14514
916.371	14541
916.483	14465
916.595	14495
916.708	14457
916.82	14476
916.932	14400
917.044	14324
917.156	14298
917.268	14221
917.38	14271
917.491	14210
917.603	14309
917.715	14317
917.826	14351
917.938	14176
918.049	14123
918.161	14233
918.272	14404
918.384	14275
918.495	14290
918.606	14024
918.717	13940
918.828	14046
918.939	14043
919.05	14050
919.161	14008
919.272	13826
919.383	13826
919.494	14100
919.604	14256
919.715	13978
919.826	13913
919.936	13955
920.047	13982
920.157	14008
920.267	14123
920.378	13970
920.488	13955
920.598	14259
920.708	14248
920.818	14161
920.928	14126
921.038	14271
921.148	14180
921.258	14062
921.368	13955
921.477	13772
921.587	13780
921.697	13628
921.806	13719
921.916	13575
922.025	13453
922.134	13392
922.244	13510
922.353	13453
922.462	13369
922.571	13236
922.68	13061
922.789	13065
922.898	13103
923.007	13031
923.116	13015
923.224	13008
923.333	13004
923.442	12894
923.55	12878
923.659	12924
923.767	12977
923.876	12795
923.984	12875
924.092	12787
924.201	12825
924.309	12791
924.417	12814
924.525	12662
924.633	12749
924.741	13392
924.849	12563
924.956	12719
925.064	12585
925.172	12464
925.279	12513
925.387	12544
925.494	12525
925.602	12578
925.709	12570
925.816	12391
925.924	12460
926.031	12471
926.138	12399
926.245	12498
926.352	12350
926.459	12559
926.566	12509
926.673	12361
926.779	12235
926.886	12224
926.993	12098
927.099	12102
927.206	12007
927.312	12106
927.419	12019
927.525	12159
927.631	12015
927.737	12038
927.843	11958
927.95	11798
928.056	11996
928.162	11893
928.267	11965
928.373	12506
928.479	11965
928.585	11805
928.69	11836
928.796	11904
928.901	11764
929.007	11615
929.112	11760
929.218	11752
929.323	11745
929.428	11611
929.533	11710
929.638	11600
929.743	11623
929.848	11676
929.953	11649
930.058	11554
930.163	11315
930.267	11379
930.372	11539
930.477	11417
930.581	11558
930.685	11425
930.79	11208
930.894	11261
930.998	11185
931.103	11360
931.207	10976
931.311	10949
931.415	10873
931.519	10637
931.623	10592
