Data from test_V78500241_2198.txt Node
Date: Fri Mar 25 15:25:09 CST 2022
User: usil
Spectrometer: V785-0024
Trigger mode: 0
Integration Time (sec): 4.000000E-1
Scans to average: 1
Nonlinearity correction enabled: false
Boxcar width: 0
Storing dark spectrum: false
XAxis mode: Wavelengths
Number of Pixels in Spectrum: 1024
>>>>>Begin Spectral Data<<<<<
801.071	27926
801.214	27838
801.356	27515
801.499	27545
801.641	27420
801.783	27504
801.926	27412
802.068	27416
802.211	27294
802.353	27180
802.496	27036
802.638	27005
802.78	26921
802.923	26925
803.065	26876
803.208	27062
803.35	27009
803.492	27237
803.635	27131
803.777	27009
803.919	27043
804.061	27439
804.204	27116
804.346	27096
804.488	27043
804.63	27233
804.773	27043
804.915	27173
805.057	27340
805.199	27260
805.341	27157
805.483	27272
805.626	27249
805.768	27169
805.91	27332
806.052	27245
806.194	27093
806.336	27344
806.478	27313
806.62	27306
806.762	27283
806.904	27488
807.046	27804
807.188	27580
807.33	27701
807.472	27759
807.614	27625
807.756	27568
807.898	27538
808.04	27576
808.182	27739
808.324	27694
808.465	27720
808.607	27720
808.749	27781
808.891	27918
809.033	28112
809.174	28055
809.316	27854
809.458	27991
809.6	27888
809.741	27983
809.883	28246
810.025	28139
810.166	28207
810.308	28261
810.45	28070
810.591	28169
810.733	27888
810.875	27949
811.016	27770
811.158	27739
811.299	28002
811.441	28013
811.582	28044
811.724	27934
811.865	27960
812.007	27854
812.148	27907
812.29	27926
812.431	28021
812.573	28257
812.714	28375
812.855	28413
812.997	28436
813.138	28683
813.279	28550
813.421	28523
813.562	28341
813.703	28230
813.845	28219
813.986	28093
814.127	27762
814.268	27599
814.41	27618
814.551	27583
814.692	27549
814.833	27561
814.974	27595
815.115	27618
815.256	27435
815.397	27416
815.539	27435
815.68	27401
815.821	27283
815.962	27431
816.103	27291
816.244	27237
816.385	27272
816.526	27165
816.666	26998
816.807	26883
816.948	26902
817.089	26998
817.23	26902
817.371	26918
817.512	26853
817.653	26914
817.793	26948
817.934	26982
818.075	26937
818.216	26929
818.356	26682
818.497	26762
818.638	26526
818.778	26773
818.919	26613
819.06	26796
819.2	26845
819.341	26872
819.481	26838
819.622	26986
819.762	27173
819.903	27222
820.043	27154
820.184	26967
820.324	26929
820.465	26895
820.605	26967
820.746	26982
820.886	26853
821.026	26807
821.167	26960
821.307	27001
821.447	26918
821.588	26826
821.728	26762
821.868	26575
822.008	26446
822.149	26374
822.289	26320
822.429	26088
822.569	26107
822.709	26050
822.849	25738
822.99	25830
823.13	25894
823.27	25731
823.41	25712
823.55	25525
823.69	25685
823.83	25727
823.97	25616
824.11	25434
824.25	25605
824.389	25502
824.529	25559
824.669	25460
824.809	25685
824.949	25506
825.089	25510
825.228	25510
825.368	25327
825.508	25407
825.648	25388
825.787	25460
825.927	25438
826.067	25354
826.206	25304
826.346	25388
826.485	25285
826.625	25343
826.765	25419
826.904	25384
827.044	25160
827.183	25042
827.323	24954
827.462	25152
827.601	24996
827.741	25019
827.88	25095
828.02	24901
828.159	25034
828.298	25088
828.437	25114
828.577	25004
828.716	25099
828.855	25004
828.994	24681
829.134	24795
829.273	24776
829.412	24772
829.551	24665
829.69	24707
829.829	24684
829.968	24726
830.107	24878
830.246	24639
830.385	24669
830.524	24642
830.663	24525
830.802	24441
830.941	24395
831.08	24414
831.219	24357
831.357	24426
831.496	24566
831.635	24414
831.774	24243
831.913	24235
832.051	24068
832.19	24163
832.329	24148
832.467	24053
832.606	24060
832.744	24015
832.883	23969
833.022	24022
833.16	24117
833.299	24045
833.437	24030
833.576	24041
833.714	24034
833.852	24148
833.991	24003
834.129	24136
834.267	24136
834.406	24125
834.544	23980
834.682	24087
834.821	23950
834.959	24159
835.097	24026
835.235	24197
835.373	24129
835.511	24068
835.65	23973
835.788	23897
835.926	23775
836.064	23642
836.202	23859
836.34	23847
836.478	23931
836.615	23866
836.753	24030
836.891	24018
837.029	24030
837.167	23878
837.305	23828
837.443	23714
837.58	23745
837.718	23737
837.856	23691
837.993	23623
838.131	23615
838.269	23653
838.406	23577
838.544	23589
838.681	23402
838.819	23471
838.956	23269
839.094	23193
839.231	23189
839.369	23452
839.506	23570
839.643	23383
839.781	23208
839.918	23162
840.055	23315
840.193	23155
840.33	23098
840.467	23147
840.604	23189
840.742	23368
840.879	22892
841.016	23052
841.153	23075
841.29	23155
841.427	23060
841.564	23102
841.701	23174
841.838	23022
841.975	23140
842.112	22991
842.249	22911
842.385	22854
842.522	23147
842.659	22908
842.796	22752
842.933	22957
843.069	22847
843.206	22774
843.343	22972
843.479	22911
843.616	22843
843.752	22580
843.889	22713
844.025	22797
844.162	22725
844.298	22793
844.435	22729
844.571	22691
844.708	22645
844.844	22729
844.98	22820
845.117	22790
845.253	22573
845.389	22436
845.525	22626
845.661	22523
845.798	22386
845.934	22599
846.07	22386
846.206	22519
846.342	22580
846.478	22348
846.614	22154
846.75	22139
846.886	22090
847.022	22287
847.158	22124
847.294	22029
847.429	22177
847.565	22120
847.701	22322
847.837	21880
847.972	21759
848.108	21964
848.244	21869
848.379	21770
848.515	21637
848.65	21755
848.786	21709
848.921	21633
849.057	21804
849.192	21747
849.328	21679
849.463	21686
849.598	21660
849.734	21618
849.869	21515
850.004	21545
850.14	21507
850.275	21481
850.41	21367
850.545	21351
850.68	21386
850.815	21447
850.95	21351
851.085	21656
851.22	21485
851.355	21587
851.49	21439
851.625	21515
851.76	21485
851.895	21416
852.03	21287
852.165	21462
852.299	21580
852.434	21447
852.569	21515
852.703	21481
852.838	21553
852.973	21488
853.107	21732
853.242	21351
853.376	21298
853.511	21157
853.645	21351
853.78	21408
853.914	21370
854.048	21176
854.183	21283
854.317	21294
854.451	21530
854.585	21420
854.72	21336
854.854	21367
854.988	21279
855.122	21294
855.256	21169
855.39	21214
855.524	21329
855.658	21329
855.792	21291
855.926	21321
856.06	21504
856.194	21473
856.327	21192
856.461	21218
856.595	21329
856.729	21279
856.862	21351
856.996	21294
857.13	21310
857.263	21450
857.397	21351
857.53	21355
857.664	21367
857.797	21454
857.931	21397
858.064	21340
858.197	21336
858.331	21233
858.464	21184
858.597	21203
858.731	21272
858.864	21188
858.997	21237
859.13	21344
859.263	21287
859.396	21268
859.529	21245
859.662	21161
859.795	21165
859.928	21188
860.061	21435
860.194	21477
860.327	21325
860.46	21439
860.592	21370
860.725	21450
860.858	21500
860.99	21329
861.123	21218
861.256	21211
861.388	21272
861.521	21953
861.653	21146
861.786	21020
861.918	21119
862.05	21249
862.183	21245
862.315	21226
862.447	21298
862.58	21146
862.712	21009
862.844	20925
862.976	21081
863.108	21081
863.24	21298
863.372	20929
863.504	21032
863.636	21032
863.768	20944
863.9	20994
864.032	20960
864.164	21100
864.296	21207
864.428	21043
864.559	21024
864.691	21116
864.823	20941
864.954	20967
865.086	20952
865.217	20880
865.349	20800
865.48	20880
865.612	20914
865.743	20982
865.875	20861
866.006	20929
866.137	21020
866.269	20876
866.4	20887
866.531	20796
866.662	20762
866.793	20796
866.924	20769
867.055	20891
867.186	20944
867.317	20788
867.448	20834
867.579	20883
867.71	20792
867.841	20788
867.972	20891
868.103	20762
868.233	20872
868.364	20868
868.495	20963
868.625	21176
868.756	21173
868.886	20971
869.017	21138
869.147	21131
869.278	21260
869.408	21017
869.539	21119
869.669	21135
869.799	21150
869.929	21230
870.06	21180
870.19	21370
870.32	21454
870.45	21412
870.58	21466
870.71	21549
870.84	21572
870.97	21500
871.1	21507
871.23	21690
871.36	21591
871.489	21583
871.619	21648
871.749	21652
871.879	21717
872.008	21778
872.138	21732
872.267	21739
872.397	21481
872.526	21504
872.656	21599
872.785	21500
872.915	21690
873.044	21724
873.173	21709
873.303	21720
873.432	21667
873.561	21827
873.69	21736
873.819	21610
873.948	21732
874.077	21778
874.206	21705
874.335	21682
874.464	21766
874.593	21911
874.722	21800
874.851	21926
874.979	21873
875.108	21983
875.237	21854
875.365	21759
875.494	21846
875.623	21991
875.751	21846
875.88	21873
876.008	21994
876.136	22105
876.265	22253
876.393	22390
876.521	22390
876.65	22352
876.778	22424
876.906	22166
877.034	22211
877.162	22265
877.29	22265
877.418	22306
877.546	22188
877.674	22223
877.802	22223
877.93	22299
878.058	22211
878.185	22230
878.313	22143
878.441	22211
878.568	22101
878.696	22238
878.824	22272
878.951	22382
879.079	22462
879.206	22516
879.333	22386
879.461	22181
879.588	22379
879.715	22504
879.842	22436
879.97	22314
880.097	22025
880.224	22059
880.351	22036
880.478	22059
880.605	22006
880.732	21975
880.859	22303
880.986	22082
881.112	22173
881.239	21918
881.366	21785
881.493	21599
881.619	21709
881.746	21694
881.872	21652
881.999	21610
882.125	21713
882.252	21705
882.378	21629
882.505	21804
882.631	21542
882.757	21523
882.883	21492
883.01	21397
883.136	21283
883.262	21233
883.388	21017
883.514	21382
883.64	21245
883.766	21241
883.892	20986
884.018	21116
884.143	21218
884.269	21230
884.395	21081
884.52	20994
884.646	20994
884.772	20883
884.897	20872
885.023	20914
885.148	21135
885.274	21089
885.399	21081
885.524	21028
885.65	21017
885.775	20948
885.9	20990
886.025	21085
886.15	21123
886.275	20842
886.4	20914
886.525	21077
886.65	20887
886.775	20785
886.9	21123
887.025	21218
887.149	21020
887.274	20746
887.399	20758
887.523	20743
887.648	20727
887.773	20765
887.897	20933
888.021	20811
888.146	20686
888.27	20899
888.395	20845
888.519	20765
888.643	20807
888.767	20727
888.891	20617
889.015	20507
889.139	20541
889.263	20549
889.387	20640
889.511	20727
889.635	20845
889.759	20575
889.883	20621
890.006	20670
890.13	20769
890.254	20457
890.377	20480
890.501	20415
890.624	20324
890.748	20442
890.871	20237
890.995	20240
891.118	19963
891.241	20134
891.364	20039
891.488	20309
891.611	20233
891.734	20073
891.857	20206
891.98	20172
892.103	20046
892.226	20206
892.349	20122
892.471	19951
892.594	20077
892.717	20027
892.839	20096
892.962	20111
893.085	20176
893.207	20069
893.33	19902
893.452	19894
893.575	20168
893.697	20103
893.819	20164
893.941	20199
894.064	20111
894.186	20024
894.308	19944
894.43	20202
894.552	20176
894.674	20054
894.796	19974
894.918	19982
895.04	19925
895.161	20092
895.283	20187
895.405	20073
895.526	19944
895.648	20073
895.769	20092
895.891	20069
896.012	20161
896.134	20050
896.255	20043
896.376	19940
896.498	20027
896.619	20103
896.74	20012
896.861	20081
896.982	20332
897.103	20457
897.224	20336
897.345	20275
897.466	20328
897.587	20301
897.708	20423
897.828	20320
897.949	20278
898.07	20035
898.19	20259
898.311	20336
898.431	20225
898.552	20206
898.672	20244
898.792	20328
898.913	20229
899.033	20180
899.153	20092
899.273	19959
899.393	19993
899.513	20008
899.633	20012
899.753	20092
899.873	19970
899.993	20008
900.113	19936
900.232	20027
900.352	19947
900.472	19837
900.591	19746
900.711	19795
900.83	19803
900.95	19928
901.069	19849
901.189	19807
901.308	19426
901.427	19236
901.546	19441
901.665	19426
901.784	19430
901.904	19293
902.023	19179
902.141	18989
902.26	18886
902.379	18924
902.498	18878
902.617	18901
902.735	18894
902.854	18920
902.973	18764
903.091	18612
903.21	18525
903.328	18627
903.446	18441
903.565	18304
903.683	18353
903.801	18258
903.919	18372
904.038	18437
904.156	18125
904.274	18144
904.392	18102
904.51	18121
904.627	18155
904.745	18110
904.863	18213
904.981	17973
905.098	17935
905.216	17824
905.334	17790
905.451	17771
905.569	17760
905.686	17889
905.803	17661
905.921	17596
906.038	17707
906.155	17463
906.272	17448
906.389	17547
906.506	17341
906.623	17356
906.74	17147
906.857	17193
906.974	17223
907.091	17395
907.208	17406
907.324	17353
907.441	17193
907.557	17006
907.674	17105
907.79	17067
907.907	17064
908.023	17113
908.139	16984
908.256	16919
908.372	16949
908.488	17060
908.604	16778
908.72	16805
908.836	16850
908.952	16710
909.068	16831
909.184	16809
909.3	16740
909.415	16778
909.531	16877
909.647	16466
909.762	16558
909.878	16546
909.993	16474
910.108	16424
910.224	16402
910.339	16497
910.454	16341
910.57	16261
910.685	16215
910.8	16329
910.915	16432
911.03	16242
911.145	16188
911.259	16074
911.374	16063
911.489	16090
911.604	15983
911.718	15895
911.833	15785
911.947	15774
912.062	15648
912.176	15709
912.291	15717
912.405	15816
912.519	15915
912.633	15926
912.748	15857
912.862	15808
912.976	15694
913.09	15542
913.204	15576
913.318	15717
913.431	15644
913.545	15766
913.659	15804
913.772	15610
913.886	15473
914	15397
914.113	15481
914.226	15606
914.34	15519
914.453	15294
914.566	15370
914.68	15283
914.793	15275
914.906	15077
915.019	15097
915.132	15097
915.245	15104
915.358	15127
915.47	14986
915.583	14986
915.696	15112
915.809	15184
915.921	15203
916.034	15074
916.146	14861
916.259	14902
916.371	14994
916.483	14994
916.595	14842
916.708	14788
916.82	14807
916.932	14880
917.044	14895
917.156	14883
917.268	14796
917.38	14815
917.491	14712
917.603	14724
917.715	14735
917.826	14876
917.938	14583
918.049	14503
918.161	14678
918.272	14842
918.384	14819
918.495	14606
918.606	14533
918.717	14419
918.828	14438
918.939	14514
919.05	14381
919.161	14393
919.272	14244
919.383	14240
919.494	14461
919.604	14663
919.715	14469
919.826	14374
919.936	14374
920.047	14396
920.157	14446
920.267	14640
920.378	14423
920.488	14438
920.598	14648
920.708	14716
920.818	14617
920.928	14549
921.038	14708
921.148	14781
921.258	14431
921.368	14366
921.477	14214
921.587	14161
921.697	14008
921.806	14096
921.916	14111
922.025	13871
922.134	13890
922.244	13776
922.353	13894
922.462	13666
922.571	13681
922.68	13529
922.789	13434
922.898	13483
923.007	13400
923.116	13502
923.224	13445
923.333	13369
923.442	13388
923.55	13312
923.659	13358
923.767	13358
923.876	13190
923.984	13293
924.092	13149
924.201	13141
924.309	13225
924.417	13228
924.525	13118
924.633	13107
924.741	13845
924.849	12886
924.956	13137
925.064	12958
925.172	12943
925.279	12863
925.387	12897
925.494	12844
925.602	13050
925.709	12897
925.816	12795
925.924	12802
926.031	12928
926.138	12795
926.245	12852
926.352	12719
926.459	12848
926.566	12878
926.673	12772
926.779	12559
926.886	12635
926.993	12426
927.099	12418
927.206	12506
927.312	12384
927.419	12490
927.525	12475
927.631	12437
927.737	12399
927.843	12296
927.95	12197
928.056	12315
928.162	12197
928.267	12296
928.373	12901
928.479	12380
928.585	12140
928.69	12178
928.796	12292
928.901	12155
929.007	12053
929.112	11988
929.218	12038
929.323	12057
929.428	12053
929.533	12136
929.638	11901
929.743	11897
929.848	11996
929.953	11984
930.058	11843
930.163	11684
930.267	11722
930.372	11786
930.477	11672
930.581	11912
930.685	11695
930.79	11581
930.894	11630
930.998	11543
931.103	11611
931.207	11307
931.311	11189
931.415	11098
931.519	10995
931.623	10957
