Data from test_V78500241_1693.txt Node
Date: Fri Mar 25 15:21:38 CST 2022
User: usil
Spectrometer: V785-0024
Trigger mode: 0
Integration Time (sec): 4.000000E-1
Scans to average: 1
Nonlinearity correction enabled: false
Boxcar width: 0
Storing dark spectrum: false
XAxis mode: Wavelengths
Number of Pixels in Spectrum: 1024
>>>>>Begin Spectral Data<<<<<
801.071	28040
801.214	27991
801.356	27850
801.499	27671
801.641	27679
801.783	27576
801.926	27595
802.068	27477
802.211	27557
802.353	27473
802.496	27287
802.638	27252
802.78	27272
802.923	27100
803.065	27268
803.208	27123
803.35	27310
803.492	27435
803.635	27389
803.777	27405
803.919	27492
804.061	27861
804.204	27504
804.346	27420
804.488	27252
804.63	27530
804.773	27367
804.915	27481
805.057	27618
805.199	27378
805.341	27564
805.483	27633
805.626	27629
805.768	27580
805.91	27564
806.052	27675
806.194	27496
806.336	27766
806.478	27732
806.62	27504
806.762	27671
806.904	27899
807.046	28021
807.188	28070
807.33	27922
807.472	28139
807.614	27907
807.756	28074
807.898	27785
808.04	27736
808.182	27903
808.324	27861
808.465	28048
808.607	28124
808.749	28234
808.891	28299
809.033	28356
809.174	28272
809.316	28242
809.458	28287
809.6	28280
809.741	28276
809.883	28367
810.025	28443
810.166	28573
810.308	28580
810.45	28455
810.591	28398
810.733	28310
810.875	28337
811.016	28150
811.158	28112
811.299	28276
811.441	28333
811.582	28356
811.724	28143
811.865	28169
812.007	28234
812.148	28299
812.29	28325
812.431	28447
812.573	28675
812.714	28592
812.855	28748
812.997	28820
813.138	29010
813.279	28755
813.421	28816
813.562	28656
813.703	28596
813.845	28360
813.986	28234
814.127	28078
814.268	27987
814.41	27960
814.551	27884
814.692	27941
814.833	27918
814.974	27854
815.115	28002
815.256	27823
815.397	27880
815.539	27816
815.68	27907
815.821	27496
815.962	27644
816.103	27682
816.244	27625
816.385	27519
816.526	27488
816.666	27306
816.807	27104
816.948	27332
817.089	27298
817.23	27020
817.371	27264
817.512	27214
817.653	27287
817.793	27199
817.934	27287
818.075	27184
818.216	27233
818.356	27268
818.497	27142
818.638	27005
818.778	26895
818.919	26971
819.06	26956
819.2	27127
819.341	27214
819.481	27268
819.622	27443
819.762	27374
819.903	27378
820.043	27382
820.184	27382
820.324	27389
820.465	27424
820.605	27401
820.746	27310
820.886	27108
821.026	27245
821.167	27264
821.307	27458
821.447	27226
821.588	27294
821.728	27051
821.868	26918
822.008	26724
822.149	26682
822.289	26640
822.429	26533
822.569	26423
822.709	26309
822.849	26149
822.99	26183
823.13	26195
823.27	26172
823.41	25993
823.55	26001
823.69	26195
823.83	25997
823.97	25997
824.11	25769
824.25	25704
824.389	25887
824.529	25868
824.669	25890
824.809	25928
824.949	25928
825.089	25856
825.228	25982
825.368	25674
825.508	25647
825.648	25742
825.787	25738
825.927	25879
826.067	25769
826.206	25731
826.346	25750
826.485	25677
826.625	25731
826.765	25879
826.904	25803
827.044	25575
827.183	25609
827.323	25441
827.462	25476
827.601	25373
827.741	25544
827.88	25533
828.02	25297
828.159	25441
828.298	25422
828.437	25479
828.577	25343
828.716	25563
828.855	25354
828.994	25198
829.134	25187
829.273	25198
829.412	25095
829.551	25091
829.69	25183
829.829	25171
829.968	25308
830.107	25175
830.246	25145
830.385	25065
830.524	25019
830.663	24985
830.802	24825
830.941	24791
831.08	24726
831.219	24954
831.357	24886
831.496	25053
831.635	24779
831.774	24802
831.913	24722
832.051	24483
832.19	24608
832.329	24536
832.467	24547
832.606	24410
832.744	24391
832.883	24429
833.022	24361
833.16	24475
833.299	24460
833.437	24460
833.576	24620
833.714	24475
833.852	24429
833.991	24582
834.129	24505
834.267	24559
834.406	24509
834.544	24612
834.682	24464
834.821	24574
834.959	24669
835.097	24266
835.235	24513
835.373	24578
835.511	24494
835.65	24342
835.788	24456
835.926	24346
836.064	24182
836.202	24182
836.34	24403
836.478	24460
836.615	24426
836.753	24407
836.891	24403
837.029	24403
837.167	24243
837.305	24273
837.443	24197
837.58	24102
837.718	24262
837.856	24174
837.993	24121
838.131	24213
838.269	24045
838.406	24095
838.544	23954
838.681	23847
838.819	23805
838.956	23646
839.094	23726
839.231	23752
839.369	23821
839.506	23988
839.643	23935
839.781	23764
839.918	23649
840.055	23604
840.193	23699
840.33	23623
840.467	23471
840.604	23577
840.742	23786
840.879	23307
841.016	23520
841.153	23505
841.29	23630
841.427	23490
841.564	23619
841.701	23490
841.838	23455
841.975	23490
842.112	23474
842.249	23414
842.385	23227
842.522	23528
842.659	23387
842.796	23364
842.933	23364
843.069	23284
843.206	23406
843.343	23303
843.479	23227
843.616	23349
843.752	23075
843.889	23200
844.025	23235
844.162	23155
844.298	23204
844.435	23109
844.571	23098
844.708	23029
844.844	23200
844.98	23170
845.117	23094
845.253	23071
845.389	22942
845.525	22980
845.661	22949
845.798	22850
845.934	22904
846.07	22885
846.206	22892
846.342	22961
846.478	22774
846.614	22626
846.75	22519
846.886	22611
847.022	22527
847.158	22637
847.294	22603
847.429	22554
847.565	22481
847.701	22702
847.837	22318
847.972	22291
848.108	22413
848.244	22424
848.379	22230
848.515	22139
848.65	22055
848.786	22128
848.921	22131
849.057	22204
849.192	22230
849.328	22181
849.463	22067
849.598	22150
849.734	22124
849.869	21956
850.004	21884
850.14	21800
850.275	21907
850.41	21766
850.545	21895
850.68	21880
850.815	22090
850.95	21915
851.085	22032
851.22	22013
851.355	21861
851.49	21918
851.625	21876
851.76	21937
851.895	21819
852.03	21831
852.165	21827
852.299	22070
852.434	21991
852.569	21930
852.703	21899
852.838	21968
852.973	21964
853.107	22006
853.242	21937
853.376	21720
853.511	21500
853.645	21937
853.78	21873
853.914	21804
854.048	21682
854.183	21629
854.317	21625
854.451	21846
854.585	21682
854.72	21679
854.854	21778
854.988	21534
855.122	21835
855.256	21660
855.39	21736
855.524	21804
855.658	21732
855.792	21717
855.926	21720
856.06	21850
856.194	21823
856.327	21622
856.461	21625
856.595	21755
856.729	21736
856.862	21850
856.996	21736
857.13	21781
857.263	21800
857.397	21755
857.53	21625
857.664	21667
857.797	21827
857.931	21770
858.064	21854
858.197	21960
858.331	21701
858.464	21675
858.597	21591
858.731	21705
858.864	21652
858.997	21713
859.13	21759
859.263	21648
859.396	21804
859.529	21633
859.662	21835
859.795	21618
859.928	21789
860.061	21884
860.194	21842
860.327	21778
860.46	21739
860.592	21724
860.725	21979
860.858	21895
860.99	21663
861.123	21606
861.256	21652
861.388	21774
861.521	22352
861.653	21515
861.786	21561
861.918	21450
862.05	21599
862.183	21622
862.315	21603
862.447	21724
862.58	21622
862.712	21481
862.844	21401
862.976	21545
863.108	21564
863.24	21804
863.372	21397
863.504	21408
863.636	21466
863.768	21458
863.9	21416
864.032	21397
864.164	21291
864.296	21507
864.428	21523
864.559	21462
864.691	21454
864.823	21485
864.954	21458
865.086	21424
865.217	21439
865.349	21260
865.48	21416
865.612	21302
865.743	21386
865.875	21397
866.006	21355
866.137	21401
866.269	21260
866.4	21310
866.531	21272
866.662	21325
866.793	21287
866.924	21279
867.055	21195
867.186	21233
867.317	21260
867.448	21085
867.579	21135
867.71	21051
867.841	21192
867.972	21249
868.103	21241
868.233	21317
868.364	21294
868.495	21351
868.625	21428
868.756	21629
868.886	21443
869.017	21507
869.147	21568
869.278	21519
869.408	21511
869.539	21485
869.669	21523
869.799	21599
869.929	21557
870.06	21542
870.19	21785
870.32	21736
870.45	21888
870.58	21915
870.71	21888
870.84	21968
870.97	21956
871.1	21846
871.23	22029
871.36	21956
871.489	22010
871.619	21998
871.749	22162
871.879	22135
872.008	22196
872.138	22135
872.267	22010
872.397	21892
872.526	22063
872.656	21854
872.785	21907
872.915	22032
873.044	22120
873.173	22036
873.303	22169
873.432	22162
873.561	22105
873.69	22120
873.819	22116
873.948	22090
874.077	22093
874.206	22051
874.335	22196
874.464	22211
874.593	22398
874.722	22162
874.851	22341
874.979	22333
875.108	22390
875.237	22242
875.365	22226
875.494	22200
875.623	22329
875.751	22226
875.88	22421
876.008	22451
876.136	22443
876.265	22694
876.393	22877
876.521	22957
876.65	22706
876.778	22771
876.906	22763
877.034	22573
877.162	22668
877.29	22580
877.418	22717
877.546	22698
877.674	22656
877.802	22687
877.93	22660
878.058	22599
878.185	22565
878.313	22637
878.441	22672
878.568	22550
878.696	22550
878.824	22759
878.951	22626
879.079	22828
879.206	22866
879.333	22908
879.461	22713
879.588	22698
879.715	22809
879.842	23018
879.97	22767
880.097	22413
880.224	22535
880.351	22573
880.478	22554
880.605	22390
880.732	22538
880.859	22729
880.986	22497
881.112	22455
881.239	22375
881.366	22246
881.493	22192
881.619	22078
881.746	22093
881.872	22036
881.999	22067
882.125	21960
882.252	22124
882.378	22040
882.505	22158
882.631	21926
882.757	21816
882.883	21800
883.01	21728
883.136	21743
883.262	21561
883.388	21622
883.514	21743
883.64	21720
883.766	21614
883.892	21545
884.018	21671
884.143	21679
884.269	21736
884.395	21568
884.52	21458
884.646	21424
884.772	21428
884.897	21412
885.023	21351
885.148	21344
885.274	21564
885.399	21405
885.524	21386
885.65	21386
885.775	21439
885.9	21473
886.025	21507
886.15	21374
886.275	21344
886.4	21439
886.525	21279
886.65	21344
886.775	21241
886.9	21439
887.025	21542
887.149	21245
887.274	21268
887.399	21104
887.523	21176
887.648	21142
887.773	21001
887.897	21226
888.021	21161
888.146	21142
888.27	21203
888.395	21256
888.519	21203
888.643	21131
888.767	21207
888.891	20933
889.015	20910
889.139	20960
889.263	20899
889.387	21070
889.511	21173
889.635	21074
889.759	20868
889.883	20906
890.006	20887
890.13	21066
890.254	20925
890.377	20849
890.501	20853
890.624	20640
890.748	20735
890.871	20526
890.995	20522
891.118	20495
891.241	20568
891.364	20575
891.488	20606
891.611	20537
891.734	20503
891.857	20533
891.98	20537
892.103	20621
892.226	20465
892.349	20404
892.471	20320
892.594	20446
892.717	20278
892.839	20347
892.962	20454
893.085	20545
893.207	20419
893.33	20199
893.452	20442
893.575	20473
893.697	20301
893.819	20518
893.941	20545
894.064	20594
894.186	20221
894.308	20332
894.43	20431
894.552	20522
894.674	20507
894.796	20366
894.918	20381
895.04	20404
895.161	20503
895.283	20366
895.405	20301
895.526	20484
895.648	20446
895.769	20457
895.891	20492
896.012	20377
896.134	20400
896.255	20313
896.376	20298
896.498	20511
896.619	20438
896.74	20374
896.861	20454
896.982	20712
897.103	20956
897.224	20579
897.345	20590
897.466	20507
897.587	20499
897.708	20602
897.828	20686
897.949	20473
898.07	20313
898.19	20415
898.311	20632
898.431	20404
898.552	20644
898.672	20701
898.792	20670
898.913	20590
899.033	20450
899.153	20408
899.273	20286
899.393	20282
899.513	20290
899.633	20317
899.753	20324
899.873	20263
899.993	20457
900.113	20256
900.232	20381
900.352	20256
900.472	20332
900.591	20164
900.711	20218
900.83	20050
900.95	20149
901.069	20176
901.189	20054
901.308	19776
901.427	19658
901.546	19765
901.665	19613
901.784	19613
901.904	19529
902.023	19552
902.141	19198
902.26	19209
902.379	19350
902.498	19236
902.617	19145
902.735	19293
902.854	19160
902.973	19027
903.091	18856
903.21	18810
903.328	18958
903.446	18684
903.565	18665
903.683	18677
903.801	18642
903.919	18665
904.038	18616
904.156	18441
904.274	18555
904.392	18494
904.51	18399
904.627	18437
904.745	18475
904.863	18525
904.981	18232
905.098	18060
905.216	18083
905.334	18083
905.451	18171
905.569	18102
905.686	18095
905.803	18072
905.921	17988
906.038	17954
906.155	17973
906.272	17836
906.389	17817
906.506	17642
906.623	17695
906.74	17672
906.857	17566
906.974	17532
907.091	17642
907.208	17604
907.324	17661
907.441	17619
907.557	17459
907.674	17474
907.79	17368
907.907	17330
908.023	17356
908.139	17341
908.256	17193
908.372	17273
908.488	17147
908.604	17174
908.72	17003
908.836	17151
908.952	17117
909.068	17166
909.184	17166
909.3	17025
909.415	17094
909.531	17014
909.647	16740
909.762	16713
909.878	16854
909.993	16839
910.108	16790
910.224	16771
910.339	16649
910.454	16721
910.57	16641
910.685	16436
910.8	16877
910.915	16675
911.03	16558
911.145	16333
911.259	16329
911.374	16440
911.489	16379
911.604	16215
911.718	16071
911.833	16173
911.947	16059
912.062	15937
912.176	16135
912.291	16059
912.405	16147
912.519	16253
912.633	16204
912.748	16200
912.862	16071
912.976	16025
913.09	15880
913.204	15880
913.318	15956
913.431	15960
913.545	15994
913.659	15968
913.772	15854
913.886	15907
914	15625
914.113	15842
914.226	15846
914.34	15747
914.453	15591
914.566	15762
914.68	15679
914.793	15549
914.906	15340
915.019	15348
915.132	15351
915.245	15386
915.358	15386
915.47	15401
915.583	15268
915.696	15351
915.809	15477
915.921	15355
916.034	15351
916.146	15279
916.259	15138
916.371	15359
916.483	15230
916.595	15195
916.708	15161
916.82	15135
916.932	15066
917.044	15089
917.156	15146
917.268	14941
917.38	15074
917.491	14975
917.603	14990
917.715	14990
917.826	15043
917.938	14944
918.049	14785
918.161	14956
918.272	15077
918.384	14975
918.495	14921
918.606	14758
918.717	14739
918.828	14712
918.939	14667
919.05	14594
919.161	14746
919.272	14560
919.383	14648
919.494	14777
919.604	14838
919.715	14724
919.826	14533
919.936	14651
920.047	14792
920.157	14670
920.267	14895
920.378	14735
920.488	14587
920.598	14899
920.708	14933
920.818	14853
920.928	14754
921.038	14914
921.148	14823
921.258	14708
921.368	14552
921.477	14450
921.587	14400
921.697	14256
921.806	14408
921.916	14229
922.025	14180
922.134	14050
922.244	14119
922.353	14035
922.462	13944
922.571	13849
922.68	13791
922.789	13685
922.898	13700
923.007	13597
923.116	13708
923.224	13662
923.333	13658
923.442	13575
923.55	13514
923.659	13609
923.767	13620
923.876	13445
923.984	13521
924.092	13422
924.201	13415
924.309	13480
924.417	13464
924.525	13384
924.633	13419
924.741	14210
924.849	13145
924.956	13327
925.064	13152
925.172	13061
925.279	13103
925.387	13152
925.494	13152
925.602	13091
925.709	13240
925.816	12939
925.924	13107
926.031	13084
926.138	13034
926.245	13038
926.352	12928
926.459	13137
926.566	13149
926.673	12970
926.779	12764
926.886	12852
926.993	12768
927.099	12665
927.206	12662
927.312	12521
927.419	12662
927.525	12684
927.631	12608
927.737	12448
927.843	12601
927.95	12448
928.056	12532
928.162	12494
928.267	12513
928.373	13019
928.479	12528
928.585	12338
928.69	12418
928.796	12513
928.901	12361
929.007	12197
929.112	12289
929.218	12330
929.323	12186
929.428	12133
929.533	12300
929.638	12163
929.743	12163
929.848	12213
929.953	12175
930.058	12091
930.163	11843
930.267	11935
930.372	12087
930.477	11828
930.581	12003
930.685	11935
930.79	11783
930.894	11752
930.998	11786
931.103	11843
931.207	11562
931.311	11398
931.415	11311
931.519	11197
931.623	11162
