Data from test_V78500241_2014.txt Node
Date: Fri Mar 25 15:23:52 CST 2022
User: usil
Spectrometer: V785-0024
Trigger mode: 0
Integration Time (sec): 4.000000E-1
Scans to average: 1
Nonlinearity correction enabled: false
Boxcar width: 0
Storing dark spectrum: false
XAxis mode: Wavelengths
Number of Pixels in Spectrum: 1024
>>>>>Begin Spectral Data<<<<<
801.071	27846
801.214	27713
801.356	27511
801.499	27462
801.641	27195
801.783	27279
801.926	27424
802.068	27283
802.211	27287
802.353	27275
802.496	26921
802.638	27032
802.78	26906
802.923	26899
803.065	27009
803.208	26971
803.35	27070
803.492	27104
803.635	27188
803.777	27013
803.919	27344
804.061	27500
804.204	27279
804.346	27146
804.488	27142
804.63	27154
804.773	27077
804.915	27096
805.057	27154
805.199	27123
805.341	27176
805.483	27310
805.626	27241
805.768	27173
805.91	27329
806.052	27329
806.194	27237
806.336	27435
806.478	27378
806.62	27192
806.762	27435
806.904	27545
807.046	27728
807.188	27618
807.33	27770
807.472	27759
807.614	27705
807.756	27698
807.898	27564
808.04	27485
808.182	27507
808.324	27534
808.465	27576
808.607	27842
808.749	28025
808.891	27892
809.033	28044
809.174	27975
809.316	27831
809.458	27960
809.6	27781
809.741	27850
809.883	27987
810.025	28204
810.166	28356
810.308	28154
810.45	28166
810.591	28143
810.733	27892
810.875	27937
811.016	27724
811.158	27850
811.299	27827
811.441	27983
811.582	27953
811.724	28002
811.865	27838
812.007	27838
812.148	27934
812.29	27991
812.431	28097
812.573	28173
812.714	28272
812.855	28421
812.997	28504
813.138	28660
813.279	28561
813.421	28379
813.562	28337
813.703	28109
813.845	28162
813.986	27914
814.127	27747
814.268	27618
814.41	27648
814.551	27580
814.692	27705
814.833	27443
814.974	27462
815.115	27625
815.256	27450
815.397	27545
815.539	27466
815.68	27420
815.821	27397
815.962	27378
816.103	27317
816.244	27211
816.385	27100
816.526	27218
816.666	26967
816.807	26861
816.948	26937
817.089	26940
817.23	27062
817.371	26891
817.512	26876
817.653	26746
817.793	26826
817.934	26895
818.075	26807
818.216	26845
818.356	26842
818.497	26636
818.638	26488
818.778	26640
818.919	26636
819.06	26739
819.2	26708
819.341	26849
819.481	26823
819.622	26948
819.762	27260
819.903	27252
820.043	26990
820.184	26952
820.324	26967
820.465	27013
820.605	27043
820.746	26944
820.886	26948
821.026	27009
821.167	26929
821.307	27017
821.447	26842
821.588	26727
821.728	26651
821.868	26453
822.008	26313
822.149	26317
822.289	26343
822.429	26134
822.569	26012
822.709	25997
822.849	25925
822.99	25765
823.13	25803
823.27	25780
823.41	25685
823.55	25464
823.69	25704
823.83	25582
823.97	25582
824.11	25460
824.25	25460
824.389	25327
824.529	25742
824.669	25483
824.809	25578
824.949	25658
825.089	25605
825.228	25453
825.368	25419
825.508	25335
825.648	25441
825.787	25403
825.927	25426
826.067	25460
826.206	25373
826.346	25244
826.485	25297
826.625	25331
826.765	25521
826.904	25403
827.044	25061
827.183	25225
827.323	25061
827.462	25183
827.601	25038
827.741	25050
827.88	25122
828.02	24897
828.159	25069
828.298	25076
828.437	25179
828.577	24962
828.716	25084
828.855	25000
828.994	24920
829.134	24760
829.273	24840
829.412	24734
829.551	24768
829.69	24795
829.829	24772
829.968	24795
830.107	24772
830.246	24802
830.385	24601
830.524	24677
830.663	24578
830.802	24608
830.941	24486
831.08	24323
831.219	24319
831.357	24437
831.496	24604
831.635	24311
831.774	24388
831.913	24266
832.051	24155
832.19	24232
832.329	24144
832.467	24018
832.606	23885
832.744	23980
832.883	24072
833.022	23992
833.16	23916
833.299	24022
833.437	24045
833.576	24087
833.714	23999
833.852	24087
833.991	24076
834.129	24140
834.267	24174
834.406	24110
834.544	24057
834.682	24133
834.821	24057
834.959	24114
835.097	24041
835.235	24213
835.373	24098
835.511	24106
835.65	23977
835.788	24022
835.926	23771
836.064	23790
836.202	23813
836.34	23851
836.478	24091
836.615	23946
836.753	23958
836.891	23935
837.029	23988
837.167	23851
837.305	23916
837.443	23741
837.58	23756
837.718	23889
837.856	23843
837.993	23802
838.131	23866
838.269	23634
838.406	23653
838.544	23573
838.681	23436
838.819	23383
838.956	23193
839.094	23250
839.231	23383
839.369	23402
839.506	23691
839.643	23482
839.781	23307
839.918	23269
840.055	23254
840.193	23235
840.33	23174
840.467	23136
840.604	23216
840.742	23463
840.879	23147
841.016	23041
841.153	23147
841.29	23261
841.427	23212
841.564	23178
841.701	23200
841.838	23155
841.975	22957
842.112	23121
842.249	22885
842.385	22927
842.522	23132
842.659	22934
842.796	22892
842.933	23090
843.069	22995
843.206	22847
843.343	22987
843.479	22972
843.616	23014
843.752	22656
843.889	22698
844.025	22759
844.162	22645
844.298	22885
844.435	22607
844.571	22451
844.708	22554
844.844	22862
844.98	22786
845.117	22908
845.253	22683
845.389	22542
845.525	22630
845.661	22603
845.798	22367
845.934	22485
846.07	22462
846.206	22493
846.342	22637
846.478	22481
846.614	22120
846.75	22238
846.886	22196
847.022	22173
847.158	22097
847.294	22299
847.429	22299
847.565	22143
847.701	22451
847.837	21915
847.972	21895
848.108	22082
848.244	21907
848.379	21755
848.515	21648
848.65	21835
848.786	21770
848.921	21720
849.057	21972
849.192	21846
849.328	21736
849.463	21663
849.598	21633
849.734	21709
849.869	21656
850.004	21614
850.14	21591
850.275	21454
850.41	21344
850.545	21511
850.68	21393
850.815	21519
850.95	21523
851.085	21637
851.22	21603
851.355	21587
851.49	21420
851.625	21644
851.76	21481
851.895	21401
852.03	21374
852.165	21466
852.299	21435
852.434	21614
852.569	21519
852.703	21515
852.838	21572
852.973	21705
853.107	21663
853.242	21454
853.376	21370
853.511	21252
853.645	21462
853.78	21447
853.914	21329
854.048	21405
854.183	21294
854.317	21298
854.451	21523
854.585	21393
854.72	21340
854.854	21473
854.988	21283
855.122	21260
855.256	21279
855.39	21275
855.524	21374
855.658	21367
855.792	21378
855.926	21264
856.06	21500
856.194	21412
856.327	21306
856.461	21325
856.595	21348
856.729	21355
856.862	21401
856.996	21370
857.13	21420
857.263	21439
857.397	21329
857.53	21317
857.664	21382
857.797	21340
857.931	21431
858.064	21405
858.197	21367
858.331	21332
858.464	21325
858.597	21195
858.731	21374
858.864	21389
858.997	21382
859.13	21264
859.263	21317
859.396	21420
859.529	21252
859.662	21344
859.795	21313
859.928	21249
860.061	21526
860.194	21553
860.327	21332
860.46	21374
860.592	21462
860.725	21378
860.858	21302
860.99	21344
861.123	21199
861.256	21237
861.388	21298
861.521	22040
861.653	21188
861.786	21154
861.918	21230
862.05	21230
862.183	21405
862.315	21393
862.447	21408
862.58	21287
862.712	21146
862.844	21096
862.976	21074
863.108	21062
863.24	21431
863.372	20906
863.504	21028
863.636	21017
863.768	21093
863.9	20963
864.032	20956
864.164	21028
864.296	21119
864.428	21173
864.559	21001
864.691	21233
864.823	21131
864.954	21058
865.086	21009
865.217	20914
865.349	20910
865.48	20891
865.612	20994
865.743	21180
865.875	20895
866.006	20891
866.137	20941
866.269	20929
866.4	20853
866.531	20967
866.662	20727
866.793	20826
866.924	20815
867.055	20891
867.186	20895
867.317	20838
867.448	20842
867.579	20853
867.71	20720
867.841	20864
867.972	20864
868.103	20925
868.233	20899
868.364	20982
868.495	20864
868.625	21070
868.756	21260
868.886	21108
869.017	21135
869.147	21176
869.278	21161
869.408	21142
869.539	21188
869.669	21180
869.799	21138
869.929	21100
870.06	21275
870.19	21496
870.32	21340
870.45	21473
870.58	21500
870.71	21549
870.84	21606
870.97	21405
871.1	21519
871.23	21603
871.36	21778
871.489	21591
871.619	21606
871.749	21785
871.879	21770
872.008	21743
872.138	21656
872.267	21720
872.397	21610
872.526	21564
872.656	21488
872.785	21660
872.915	21679
873.044	21797
873.173	21823
873.303	21705
873.432	21610
873.561	21918
873.69	21728
873.819	21694
873.948	21804
874.077	21789
874.206	21580
874.335	21583
874.464	21842
874.593	21975
874.722	21869
874.851	21899
874.979	22021
875.108	22135
875.237	21835
875.365	21831
875.494	21956
875.623	21953
875.751	21899
875.88	22135
876.008	22059
876.136	22139
876.265	22367
876.393	22500
876.521	22451
876.65	22588
876.778	22459
876.906	22242
877.034	22314
877.162	22360
877.29	22257
877.418	22310
877.546	22352
877.674	22303
877.802	22272
877.93	22310
878.058	22261
878.185	22344
878.313	22306
878.441	22192
878.568	22040
878.696	22192
878.824	22325
878.951	22398
879.079	22424
879.206	22763
879.333	22440
879.461	22382
879.588	22363
879.715	22295
879.842	22805
879.97	22398
880.097	22234
880.224	22109
880.351	22082
880.478	22139
880.605	22082
880.732	22181
880.859	22268
880.986	22200
881.112	22143
881.239	21892
881.366	21876
881.493	21869
881.619	21690
881.746	21846
881.872	21709
881.999	21599
882.125	21587
882.252	21774
882.378	21663
882.505	21789
882.631	21641
882.757	21348
882.883	21492
883.01	21359
883.136	21306
883.262	21199
883.388	21207
883.514	21439
883.64	21447
883.766	21340
883.892	21104
884.018	21222
884.143	21287
884.269	21359
884.395	21127
884.52	20933
884.646	21093
884.772	20944
884.897	20857
885.023	21070
885.148	21081
885.274	21131
885.399	21154
885.524	21009
885.65	20975
885.775	21036
885.9	21043
886.025	21123
886.15	21116
886.275	20952
886.4	20872
886.525	20921
886.65	20979
886.775	21051
886.9	21199
887.025	21294
887.149	21062
887.274	20754
887.399	20758
887.523	20754
887.648	20705
887.773	20781
887.897	20785
888.021	20826
888.146	20788
888.27	20948
888.395	20880
888.519	20853
888.643	20819
888.767	20849
888.891	20750
889.015	20629
889.139	20686
889.263	20507
889.387	20659
889.511	20727
889.635	20705
889.759	20533
889.883	20556
890.006	20609
890.13	20701
890.254	20533
890.377	20636
890.501	20286
890.624	20358
890.748	20256
890.871	20343
890.995	20126
891.118	20145
891.241	20069
891.364	20259
891.488	20271
891.611	20210
891.734	20039
891.857	20210
891.98	20214
892.103	20256
892.226	20286
892.349	20202
892.471	19932
892.594	20161
892.717	20043
892.839	20077
892.962	20065
893.085	20199
893.207	20054
893.33	19978
893.452	20069
893.575	20221
893.697	20088
893.819	20168
893.941	20442
894.064	20164
894.186	20130
894.308	20088
894.43	20058
894.552	20199
894.674	20202
894.796	20126
894.918	19986
895.04	19959
895.161	20092
895.283	20008
895.405	20122
895.526	20046
895.648	20043
895.769	20138
895.891	20096
896.012	20142
896.134	20092
896.255	20103
896.376	19982
896.498	20027
896.619	20054
896.74	20084
896.861	20103
896.982	20412
897.103	20507
897.224	20396
897.345	20305
897.466	20244
897.587	20298
897.708	20431
897.828	20206
897.949	20370
898.07	20077
898.19	20275
898.311	20290
898.431	20119
898.552	20282
898.672	20362
898.792	20396
898.913	20320
899.033	20172
899.153	20119
899.273	19970
899.393	20096
899.513	20062
899.633	20081
899.753	20039
899.873	19959
899.993	20065
900.113	20005
900.232	19913
900.352	19856
900.472	19936
900.591	19727
900.711	19826
900.83	19879
900.95	19753
901.069	19871
901.189	19632
901.308	19533
901.427	19346
901.546	19354
901.665	19411
901.784	19407
901.904	19259
902.023	19225
902.141	19031
902.26	18844
902.379	18928
902.498	18901
902.617	18837
902.735	18935
902.854	18977
902.973	18886
903.091	18646
903.21	18540
903.328	18555
903.446	18437
903.565	18410
903.683	18448
903.801	18399
903.919	18384
904.038	18372
904.156	18049
904.274	18174
904.392	18159
904.51	18117
904.627	18174
904.745	18224
904.863	18216
904.981	17920
905.098	17771
905.216	17847
905.334	17779
905.451	17843
905.569	17703
905.686	17733
905.803	17832
905.921	17547
906.038	17726
906.155	17710
906.272	17436
906.389	17577
906.506	17349
906.623	17372
906.74	17372
906.857	17299
906.974	17436
907.091	17444
907.208	17497
907.324	17395
907.441	17315
907.557	17064
907.674	17075
907.79	16949
907.907	17045
908.023	17037
908.139	17124
908.256	17014
908.372	16949
908.488	16968
908.604	16820
908.72	16816
908.836	16786
908.952	16809
909.068	16778
909.184	16896
909.3	16805
909.415	16790
909.531	16672
909.647	16622
909.762	16508
909.878	16409
909.993	16542
910.108	16432
910.224	16402
910.339	16474
910.454	16451
910.57	16295
910.685	16192
910.8	16489
910.915	16436
911.03	16352
911.145	16120
911.259	16105
911.374	16124
911.489	16051
911.604	15895
911.718	15838
911.833	15892
911.947	15804
912.062	15568
912.176	15751
912.291	15793
912.405	15827
912.519	15937
912.633	15994
912.748	15797
912.862	15770
912.976	15762
913.09	15576
913.204	15652
913.318	15671
913.431	15747
913.545	15739
913.659	15800
913.772	15576
913.886	15511
914	15370
914.113	15580
914.226	15606
914.34	15538
914.453	15329
914.566	15557
914.68	15321
914.793	15256
914.906	15138
915.019	15116
915.132	14944
915.245	15123
915.358	15070
915.47	15020
915.583	15032
915.696	15085
915.809	15192
915.921	15249
916.034	14941
916.146	14895
916.259	14933
916.371	15055
916.483	15017
916.595	14921
916.708	14838
916.82	14883
916.932	14876
917.044	14872
917.156	14823
917.268	14796
917.38	14705
917.491	14701
917.603	14750
917.715	14785
917.826	14769
917.938	14644
918.049	14606
918.161	14686
918.272	14777
918.384	14819
918.495	14712
918.606	14556
918.717	14492
918.828	14389
918.939	14484
919.05	14427
919.161	14503
919.272	14366
919.383	14336
919.494	14564
919.604	14629
919.715	14465
919.826	14431
919.936	14404
920.047	14579
920.157	14431
920.267	14674
920.378	14514
920.488	14419
920.598	14613
920.708	14674
920.818	14648
920.928	14640
921.038	14762
921.148	14769
921.258	14298
921.368	14320
921.477	14267
921.587	14145
921.697	14100
921.806	14130
921.916	13978
922.025	13833
922.134	13868
922.244	13833
922.353	13997
922.462	13715
922.571	13681
922.68	13483
922.789	13411
922.898	13472
923.007	13403
923.116	13499
923.224	13407
923.333	13483
923.442	13411
923.55	13346
923.659	13312
923.767	13331
923.876	13187
923.984	13403
924.092	13183
924.201	13259
924.309	13209
924.417	13232
924.525	13091
924.633	13149
924.741	13852
924.849	13004
924.956	13031
925.064	12897
925.172	12810
925.279	12886
925.387	13019
925.494	12920
925.602	13023
925.709	12939
925.816	12817
925.924	12840
926.031	12943
926.138	12779
926.245	12970
926.352	12738
926.459	12817
926.566	12962
926.673	12783
926.779	12578
926.886	12620
926.993	12532
927.099	12490
927.206	12494
927.312	12426
927.419	12544
927.525	12483
927.631	12506
927.737	12376
927.843	12285
927.95	12235
928.056	12224
928.162	12308
928.267	12289
928.373	12932
928.479	12384
928.585	12235
928.69	12247
928.796	12194
928.901	12182
929.007	12034
929.112	12163
929.218	12117
929.323	12087
929.428	11969
929.533	12110
929.638	11923
929.743	11984
929.848	11992
929.953	11969
930.058	11817
930.163	11676
930.267	11790
930.372	11786
930.477	11615
930.581	11874
930.685	11729
930.79	11577
930.894	11676
930.998	11554
931.103	11726
931.207	11356
931.311	11296
931.415	11258
931.519	10934
931.623	10938
