Data from test_V78500241_1635.txt Node
Date: Fri Mar 25 15:21:14 CST 2022
User: usil
Spectrometer: V785-0024
Trigger mode: 0
Integration Time (sec): 4.000000E-1
Scans to average: 1
Nonlinearity correction enabled: false
Boxcar width: 0
Storing dark spectrum: false
XAxis mode: Wavelengths
Number of Pixels in Spectrum: 1024
>>>>>Begin Spectral Data<<<<<
801.071	27911
801.214	27759
801.356	27447
801.499	27538
801.641	27526
801.783	27401
801.926	27519
802.068	27359
802.211	27332
802.353	27226
802.496	27043
802.638	27055
802.78	27036
802.923	26960
803.065	26967
803.208	26963
803.35	27051
803.492	27184
803.635	27325
803.777	27180
803.919	27131
804.061	27648
804.204	27340
804.346	27222
804.488	27260
804.63	27310
804.773	27032
804.915	27207
805.057	27294
805.199	27203
805.341	27291
805.483	27507
805.626	27469
805.768	27359
805.91	27348
806.052	27317
806.194	27363
806.336	27686
806.478	27439
806.62	27317
806.762	27515
806.904	27515
807.046	27934
807.188	27812
807.33	27698
807.472	27861
807.614	27709
807.756	27800
807.898	27644
808.04	27587
808.182	27614
808.324	27633
808.465	27576
808.607	27831
808.749	28059
808.891	28055
809.033	28223
809.174	28105
809.316	27835
809.458	27979
809.6	27934
809.741	28162
809.883	28177
810.025	28287
810.166	28394
810.308	28363
810.45	28242
810.591	28196
810.733	28055
810.875	27972
811.016	27895
811.158	27747
811.299	28139
811.441	28097
811.582	28238
811.724	27903
811.865	28006
812.007	27968
812.148	28044
812.29	28109
812.431	28036
812.573	28325
812.714	28379
812.855	28436
812.997	28599
813.138	28710
813.279	28630
813.421	28443
813.562	28421
813.703	28424
813.845	28090
813.986	27930
814.127	27713
814.268	27724
814.41	27633
814.551	27644
814.692	27850
814.833	27743
814.974	27583
815.115	27709
815.256	27545
815.397	27538
815.539	27561
815.68	27389
815.821	27469
815.962	27477
816.103	27401
816.244	27241
816.385	27188
816.526	27279
816.666	27085
816.807	26868
816.948	26857
817.089	27070
817.23	27005
817.371	27036
817.512	26914
817.653	26940
817.793	26826
817.934	26861
818.075	26921
818.216	27058
818.356	26826
818.497	26902
818.638	26853
818.778	26739
818.919	26743
819.06	26845
819.2	26853
819.341	27028
819.481	26979
819.622	27256
819.762	27424
819.903	27291
820.043	27214
820.184	27066
820.324	27135
820.465	27138
820.605	27058
820.746	27036
820.886	26811
821.026	27070
821.167	26960
821.307	27211
821.447	27070
821.588	26960
821.728	26830
821.868	26724
822.008	26476
822.149	26419
822.289	26362
822.429	26202
822.569	25974
822.709	26161
822.849	25909
822.99	25970
823.13	25887
823.27	25906
823.41	25696
823.55	25689
823.69	25860
823.83	25811
823.97	25681
824.11	25422
824.25	25544
824.389	25544
824.529	25616
824.669	25590
824.809	25750
824.949	25670
825.089	25769
825.228	25719
825.368	25422
825.508	25510
825.648	25259
825.787	25472
825.927	25510
826.067	25381
826.206	25460
826.346	25499
826.485	25365
826.625	25449
826.765	25639
826.904	25624
827.044	25221
827.183	25388
827.323	25141
827.462	25266
827.601	25206
827.741	25202
827.88	25156
828.02	25145
828.159	25126
828.298	24928
828.437	25263
828.577	25126
828.716	25179
828.855	25118
828.994	24859
829.134	25012
829.273	24882
829.412	24901
829.551	24787
829.69	24852
829.829	24894
829.968	24882
830.107	24962
830.246	24909
830.385	24795
830.524	24768
830.663	24692
830.802	24627
830.941	24585
831.08	24517
831.219	24582
831.357	24483
831.496	24749
831.635	24566
831.774	24334
831.913	24323
832.051	24422
832.19	24266
832.329	24235
832.467	24121
832.606	24155
832.744	24117
832.883	24076
833.022	24125
833.16	24201
833.299	24197
833.437	24220
833.576	24117
833.714	24228
833.852	24346
833.991	24190
834.129	24254
834.267	24220
834.406	24270
834.544	24243
834.682	24201
834.821	24281
834.959	24410
835.097	23969
835.235	24319
835.373	24209
835.511	24186
835.65	24133
835.788	24057
835.926	23977
836.064	23954
836.202	23870
836.34	24064
836.478	24030
836.615	23980
836.753	24190
836.891	24178
837.029	24045
837.167	24015
837.305	23939
837.443	23809
837.58	23874
837.718	23916
837.856	23954
837.993	23745
838.131	23893
838.269	23775
838.406	23790
838.544	23741
838.681	23531
838.819	23478
838.956	23474
839.094	23277
839.231	23490
839.369	23623
839.506	23855
839.643	23642
839.781	23471
839.918	23292
840.055	23433
840.193	23372
840.33	23223
840.467	23376
840.604	23231
840.742	23543
840.879	23136
841.016	23269
841.153	23105
841.29	23356
841.427	23216
841.564	23299
841.701	23296
841.838	23258
841.975	23216
842.112	23159
842.249	23094
842.385	22904
842.522	23242
842.659	23083
842.796	23124
842.933	22984
843.069	22885
843.206	22904
843.343	23037
843.479	23022
843.616	23056
843.752	22763
843.889	22885
844.025	23025
844.162	22824
844.298	22854
844.435	22877
844.571	22793
844.708	22862
844.844	23010
844.98	22881
845.117	22835
845.253	22820
845.389	22668
845.525	22725
845.661	22630
845.798	22550
845.934	22569
846.07	22550
846.206	22573
846.342	22660
846.478	22451
846.614	22398
846.75	22344
846.886	22276
847.022	22352
847.158	22257
847.294	22219
847.429	22318
847.565	22398
847.701	22432
847.837	22048
847.972	21953
848.108	22147
848.244	22082
848.379	21819
848.515	21850
848.65	21762
848.786	21880
848.921	21778
849.057	22002
849.192	22029
849.328	21911
849.463	21835
849.598	21789
849.734	21766
849.869	21800
850.004	21644
850.14	21663
850.275	21660
850.41	21580
850.545	21553
850.68	21576
850.815	21774
850.95	21572
851.085	21842
851.22	21736
851.355	21667
851.49	21507
851.625	21458
851.76	21477
851.895	21580
852.03	21424
852.165	21622
852.299	21698
852.434	21675
852.569	21648
852.703	21599
852.838	21679
852.973	21751
853.107	21717
853.242	21701
853.376	21504
853.511	21351
853.645	21397
853.78	21485
853.914	21515
854.048	21344
854.183	21397
854.317	21485
854.451	21591
854.585	21500
854.72	21435
854.854	21481
854.988	21374
855.122	21329
855.256	21188
855.39	21439
855.524	21564
855.658	21523
855.792	21458
855.926	21553
856.06	21523
856.194	21504
856.327	21466
856.461	21412
856.595	21431
856.729	21481
856.862	21526
856.996	21507
857.13	21534
857.263	21534
857.397	21473
857.53	21477
857.664	21477
857.797	21534
857.931	21523
858.064	21374
858.197	21606
858.331	21553
858.464	21435
858.597	21287
858.731	21420
858.864	21370
858.997	21469
859.13	21405
859.263	21462
859.396	21530
859.529	21466
859.662	21340
859.795	21416
859.928	21408
860.061	21728
860.194	21511
860.327	21435
860.46	21500
860.592	21557
860.725	21644
860.858	21610
860.99	21606
861.123	21370
861.256	21367
861.388	21469
861.521	22154
861.653	21336
861.786	21127
861.918	21351
862.05	21351
862.183	21336
862.315	21344
862.447	21488
862.58	21355
862.712	21173
862.844	21119
862.976	21313
863.108	21195
863.24	21606
863.372	21104
863.504	21184
863.636	21176
863.768	21230
863.9	21188
864.032	21093
864.164	21119
864.296	21268
864.428	21321
864.559	21355
864.691	21370
864.823	21036
864.954	21085
865.086	21207
865.217	21123
865.349	20986
865.48	20975
865.612	20967
865.743	21108
865.875	21119
866.006	21066
866.137	21157
866.269	21055
866.4	21119
866.531	20937
866.662	20925
866.793	20899
866.924	20986
867.055	20925
867.186	21093
867.317	20952
867.448	20956
867.579	20982
867.71	20906
867.841	20849
867.972	20967
868.103	21020
868.233	20986
868.364	21039
868.495	21047
868.625	21089
868.756	21298
868.886	21138
869.017	21154
869.147	21245
869.278	21264
869.408	21302
869.539	21214
869.669	21325
869.799	21241
869.929	21325
870.06	21340
870.19	21534
870.32	21488
870.45	21523
870.58	21675
870.71	21713
870.84	21793
870.97	21583
871.1	21701
871.23	21800
871.36	21736
871.489	21717
871.619	21762
871.749	21869
871.879	21953
872.008	21979
872.138	21816
872.267	21918
872.397	21747
872.526	21663
872.656	21682
872.785	21644
872.915	21838
873.044	21915
873.173	21861
873.303	21941
873.432	21892
873.561	21895
873.69	21838
873.819	21846
873.948	21865
874.077	21838
874.206	21831
874.335	21819
874.464	21903
874.593	22044
874.722	22017
874.851	22002
874.979	22059
875.108	22051
875.237	21972
875.365	21846
875.494	22048
875.623	22131
875.751	21991
875.88	22017
876.008	22116
876.136	22223
876.265	22402
876.393	22767
876.521	22497
876.65	22584
876.778	22390
876.906	22394
877.034	22459
877.162	22440
877.29	22360
877.418	22470
877.546	22485
877.674	22443
877.802	22409
877.93	22405
878.058	22409
878.185	22272
878.313	22341
878.441	22402
878.568	22230
878.696	22261
878.824	22348
878.951	22478
879.079	22622
879.206	22660
879.333	22580
879.461	22394
879.588	22531
879.715	22561
879.842	22611
879.97	22504
880.097	22101
880.224	22154
880.351	22329
880.478	22306
880.605	22276
880.732	22188
880.859	22538
880.986	22185
881.112	22284
881.239	22154
881.366	22128
881.493	21892
881.619	21964
881.746	21781
881.872	21789
881.999	21819
882.125	21747
882.252	21762
882.378	21808
882.505	21918
882.631	21614
882.757	21485
882.883	21625
883.01	21507
883.136	21450
883.262	21401
883.388	21408
883.514	21519
883.64	21519
883.766	21393
883.892	21279
884.018	21291
884.143	21340
884.269	21568
884.395	21287
884.52	21135
884.646	21142
884.772	21077
884.897	21077
885.023	21150
885.148	21184
885.274	21245
885.399	21298
885.524	21165
885.65	21055
885.775	21176
885.9	21207
886.025	21207
886.15	21188
886.275	21096
886.4	20982
886.525	21096
886.65	21036
886.775	21036
886.9	21226
887.025	21321
887.149	21131
887.274	20921
887.399	20845
887.523	20899
887.648	20807
887.773	20853
887.897	21020
888.021	20971
888.146	20796
888.27	21013
888.395	20971
888.519	20876
888.643	20857
888.767	21043
888.891	20864
889.015	20705
889.139	20781
889.263	20640
889.387	20788
889.511	20800
889.635	20796
889.759	20720
889.883	20678
890.006	20663
890.13	20792
890.254	20659
890.377	20606
890.501	20427
890.624	20431
890.748	20450
890.871	20309
890.995	20336
891.118	20191
891.241	20263
891.364	20294
891.488	20332
891.611	20294
891.734	20263
891.857	20381
891.98	20267
892.103	20320
892.226	20324
892.349	20218
892.471	20119
892.594	20187
892.717	20248
892.839	20122
892.962	20115
893.085	20138
893.207	20153
893.33	20096
893.452	20024
893.575	20214
893.697	20103
893.819	20259
893.941	20324
894.064	20362
894.186	20210
894.308	20024
894.43	20168
894.552	20233
894.674	20183
894.796	20100
894.918	20176
895.04	20149
895.161	20259
895.283	20149
895.405	20134
895.526	20195
895.648	20138
895.769	20065
895.891	20134
896.012	20138
896.134	20153
896.255	20180
896.376	20107
896.498	20107
896.619	20233
896.74	20122
896.861	20256
896.982	20442
897.103	20606
897.224	20393
897.345	20275
897.466	20252
897.587	20423
897.708	20492
897.828	20415
897.949	20282
898.07	20199
898.19	20252
898.311	20370
898.431	20434
898.552	20355
898.672	20434
898.792	20404
898.913	20324
899.033	20259
899.153	20229
899.273	20008
899.393	20065
899.513	20191
899.633	20157
899.753	20115
899.873	20016
899.993	20176
900.113	19967
900.232	20058
900.352	20046
900.472	19940
900.591	19795
900.711	20005
900.83	19795
900.95	20005
901.069	19955
901.189	19856
901.308	19613
901.427	19510
901.546	19438
901.665	19438
901.784	19506
901.904	19358
902.023	19236
902.141	19057
902.26	19038
902.379	19034
902.498	18935
902.617	18935
902.735	18932
902.854	18970
902.973	18829
903.091	18806
903.21	18551
903.328	18673
903.446	18566
903.565	18426
903.683	18467
903.801	18384
903.919	18414
904.038	18418
904.156	18235
904.274	18300
904.392	18277
904.51	18201
904.627	18334
904.745	18254
904.863	18350
904.981	18034
905.098	17961
905.216	17942
905.334	18022
905.451	17996
905.569	17931
905.686	17988
905.803	17863
905.921	17714
906.038	17817
906.155	17691
906.272	17657
906.389	17623
906.506	17535
906.623	17520
906.74	17383
906.857	17239
906.974	17379
907.091	17516
907.208	17566
907.324	17376
907.441	17334
907.557	17200
907.674	17212
907.79	17029
907.907	17128
908.023	17170
908.139	17318
908.256	17143
908.372	17075
908.488	16949
908.604	16904
908.72	16782
908.836	16942
908.952	16774
909.068	16927
909.184	16904
909.3	16896
909.415	16911
909.531	16915
909.647	16618
909.762	16592
909.878	16531
909.993	16641
910.108	16603
910.224	16573
910.339	16481
910.454	16565
910.57	16436
910.685	16344
910.8	16519
910.915	16622
911.03	16440
911.145	16287
911.259	16196
911.374	16166
911.489	16101
911.604	16074
911.718	15968
911.833	16006
911.947	15876
912.062	15736
912.176	15869
912.291	15937
912.405	15854
912.519	16051
912.633	16032
912.748	15987
912.862	15960
912.976	15850
913.09	15637
913.204	15724
913.318	15778
913.431	15720
913.545	15880
913.659	15823
913.772	15622
913.886	15504
914	15500
914.113	15656
914.226	15679
914.34	15553
914.453	15450
914.566	15564
914.68	15310
914.793	15439
914.906	15245
915.019	15173
915.132	15077
915.245	15195
915.358	15218
915.47	15203
915.583	15127
915.696	15211
915.809	15195
915.921	15241
916.034	15097
916.146	15062
916.259	15047
916.371	15123
916.483	15055
916.595	14975
916.708	14963
916.82	14937
916.932	14956
917.044	14967
917.156	14914
917.268	14735
917.38	14883
917.491	14781
917.603	14891
917.715	14815
917.826	14952
917.938	14765
918.049	14701
918.161	14800
918.272	14883
918.384	14792
918.495	14701
918.606	14579
918.717	14476
918.828	14568
918.939	14625
919.05	14488
919.161	14560
919.272	14454
919.383	14377
919.494	14629
919.604	14743
919.715	14537
919.826	14442
919.936	14454
920.047	14549
920.157	14579
920.267	14720
920.378	14511
920.488	14389
920.598	14754
920.708	14765
920.818	14686
920.928	14682
921.038	14731
921.148	14842
921.258	14552
921.368	14336
921.477	14275
921.587	14225
921.697	14195
921.806	14202
921.916	14077
922.025	13936
922.134	13928
922.244	13822
922.353	13894
922.462	13765
922.571	13750
922.68	13556
922.789	13460
922.898	13556
923.007	13491
923.116	13521
923.224	13483
923.333	13521
923.442	13400
923.55	13354
923.659	13285
923.767	13441
923.876	13320
923.984	13415
924.092	13324
924.201	13316
924.309	13285
924.417	13278
924.525	13103
924.633	13244
924.741	14123
924.849	13012
924.956	13149
925.064	12966
925.172	12928
925.279	12875
925.387	13050
925.494	13004
925.602	13103
925.709	13099
925.816	12859
925.924	12913
926.031	12966
926.138	12890
926.245	12935
926.352	12897
926.459	12954
926.566	12863
926.673	12852
926.779	12779
926.886	12711
926.993	12570
927.099	12559
927.206	12494
927.312	12418
927.419	12544
927.525	12437
927.631	12456
927.737	12426
927.843	12445
927.95	12258
928.056	12285
928.162	12281
928.267	12323
928.373	13000
928.479	12391
928.585	12125
928.69	12277
928.796	12403
928.901	12186
929.007	12129
929.112	12182
929.218	12163
929.323	12121
929.428	12057
929.533	12205
929.638	11988
929.743	11996
929.848	12030
929.953	11965
930.058	11977
930.163	11741
930.267	11786
930.372	11882
930.477	11684
930.581	12007
930.685	11847
930.79	11627
930.894	11634
930.998	11585
931.103	11752
931.207	11395
931.311	11292
931.415	11250
931.519	11113
931.623	11056
