Data from test_V78500241_691.txt Node
Date: Fri Mar 25 15:14:40 CST 2022
User: usil
Spectrometer: V785-0024
Trigger mode: 0
Integration Time (sec): 4.000000E-1
Scans to average: 1
Nonlinearity correction enabled: false
Boxcar width: 0
Storing dark spectrum: false
XAxis mode: Wavelengths
Number of Pixels in Spectrum: 1024
>>>>>Begin Spectral Data<<<<<
801.071	28124
801.214	28078
801.356	27819
801.499	27785
801.641	27774
801.783	27534
801.926	27800
802.068	27641
802.211	27603
802.353	27408
802.496	27218
802.638	27310
802.78	27359
802.923	27306
803.065	27237
803.208	27393
803.35	27283
803.492	27382
803.635	27492
803.777	27275
803.919	27530
804.061	27831
804.204	27511
804.346	27420
804.488	27485
804.63	27481
804.773	27378
804.915	27523
805.057	27625
805.199	27492
805.341	27648
805.483	27572
805.626	27618
805.768	27519
805.91	27629
806.052	27583
806.194	27679
806.336	27876
806.478	27443
806.62	27641
806.762	27778
806.904	27968
807.046	28318
807.188	28021
807.33	28051
807.472	28093
807.614	27899
807.756	27991
807.898	27846
808.04	27892
808.182	27922
808.324	28025
808.465	27835
808.607	28101
808.749	28291
808.891	28386
809.033	28607
809.174	28375
809.316	28344
809.458	28322
809.6	28215
809.741	28314
809.883	28497
810.025	28561
810.166	28740
810.308	28664
810.45	28634
810.591	28615
810.733	28478
810.875	28223
811.016	28169
811.158	28200
811.299	28337
811.441	28519
811.582	28466
811.724	28211
811.865	28276
812.007	28219
812.148	28337
812.29	28371
812.431	28592
812.573	28584
812.714	28847
812.855	28877
812.997	28953
813.138	28987
813.279	29025
813.421	28984
813.562	28873
813.703	28729
813.845	28691
813.986	28253
814.127	28150
814.268	27972
814.41	28010
814.551	27945
814.692	28154
814.833	28070
814.974	27914
815.115	28055
815.256	27911
815.397	27873
815.539	27991
815.68	27895
815.821	27591
815.962	27827
816.103	27781
816.244	27679
816.385	27564
816.526	27648
816.666	27477
816.807	27325
816.948	27397
817.089	27431
817.23	27313
817.371	27473
817.512	27249
817.653	27283
817.793	27313
817.934	27306
818.075	27530
818.216	27420
818.356	27435
818.497	27184
818.638	27108
818.778	27116
818.919	27150
819.06	27154
819.2	27313
819.341	27294
819.481	27203
819.622	27458
819.762	27682
819.903	27644
820.043	27526
820.184	27454
820.324	27370
820.465	27443
820.605	27466
820.746	27549
820.886	27184
821.026	27420
821.167	27393
821.307	27660
821.447	27226
821.588	27104
821.728	26986
821.868	26975
822.008	26796
822.149	26785
822.289	26686
822.429	26602
822.569	26400
822.709	26434
822.849	26221
822.99	26195
823.13	26237
823.27	26351
823.41	26202
823.55	26024
823.69	26115
823.83	26050
823.97	26096
824.11	25875
824.25	25909
824.389	25864
824.529	25921
824.669	25887
824.809	26058
824.949	25890
825.089	26027
825.228	26069
825.368	25761
825.508	25776
825.648	25875
825.787	25955
825.927	25982
826.067	25917
826.206	25784
826.346	25947
826.485	25845
826.625	25894
826.765	25959
826.904	25833
827.044	25696
827.183	25616
827.323	25457
827.462	25647
827.601	25419
827.741	25556
827.88	25544
828.02	25434
828.159	25415
828.298	25495
828.437	25594
828.577	25518
828.716	25609
828.855	25487
828.994	25339
829.134	25175
829.273	25285
829.412	25263
829.551	25118
829.69	25209
829.829	25312
829.968	25285
830.107	25244
830.246	25373
830.385	25202
830.524	25076
830.663	25031
830.802	24886
830.941	24878
831.08	24791
831.219	24875
831.357	24825
831.496	25080
831.635	24966
831.774	24760
831.913	24882
832.051	24681
832.19	24467
832.329	24582
832.467	24582
832.606	24471
832.744	24597
832.883	24494
833.022	24448
833.16	24612
833.299	24536
833.437	24585
833.576	24525
833.714	24471
833.852	24616
833.991	24661
834.129	24681
834.267	24776
834.406	24574
834.544	24696
834.682	24540
834.821	24738
834.959	24631
835.097	24357
835.235	24582
835.373	24585
835.511	24525
835.65	24418
835.788	24452
835.926	24266
836.064	24243
836.202	24125
836.34	24407
836.478	24490
836.615	24365
836.753	24403
836.891	24490
837.029	24399
837.167	24319
837.305	24235
837.443	24372
837.58	24178
837.718	24232
837.856	24270
837.993	24121
838.131	24167
838.269	24098
838.406	24026
838.544	23977
838.681	23817
838.819	23965
838.956	23619
839.094	23684
839.231	23668
839.369	23931
839.506	24140
839.643	23878
839.781	23760
839.918	23562
840.055	23687
840.193	23676
840.33	23577
840.467	23642
840.604	23672
840.742	23836
840.879	23345
841.016	23486
841.153	23509
841.29	23760
841.427	23558
841.564	23726
841.701	23653
841.838	23646
841.975	23444
842.112	23433
842.249	23448
842.385	23379
842.522	23516
842.659	23383
842.796	23383
842.933	23383
843.069	23307
843.206	23360
843.343	23391
843.479	23364
843.616	23410
843.752	23250
843.889	23280
844.025	23296
844.162	23109
844.298	23231
844.435	23121
844.571	23147
844.708	23136
844.844	23250
844.98	23414
845.117	23299
845.253	23143
845.389	22972
845.525	22984
845.661	22965
845.798	22984
845.934	22968
846.07	22866
846.206	22923
846.342	22991
846.478	22828
846.614	22729
846.75	22538
846.886	22649
847.022	22664
847.158	22649
847.294	22687
847.429	22603
847.565	22580
847.701	22771
847.837	22348
847.972	22253
848.108	22500
848.244	22398
848.379	22230
848.515	22276
848.65	22257
848.786	22234
848.921	22299
849.057	22379
849.192	22200
849.328	22287
849.463	22268
849.598	22093
849.734	22055
849.869	22070
850.004	22116
850.14	22036
850.275	22074
850.41	21888
850.545	21930
850.68	21972
850.815	22017
850.95	21975
851.085	22082
851.22	22112
851.355	21972
851.49	22025
851.625	21930
851.76	21838
851.895	21785
852.03	21819
852.165	21975
852.299	21960
852.434	21987
852.569	21975
852.703	21899
852.838	21991
852.973	22173
853.107	22021
853.242	21827
853.376	21838
853.511	21759
853.645	21644
853.78	21728
853.914	21804
854.048	21747
854.183	21694
854.317	21793
854.451	22021
854.585	21793
854.72	21789
854.854	21895
854.988	21755
855.122	21762
855.256	21739
855.39	21694
855.524	21850
855.658	21728
855.792	21831
855.926	21880
856.06	21869
856.194	21751
856.327	21751
856.461	21759
856.595	21705
856.729	21603
856.862	21937
856.996	21865
857.13	21774
857.263	21907
857.397	21892
857.53	21785
857.664	21838
857.797	21873
857.931	21941
858.064	21861
858.197	21842
858.331	21720
858.464	21686
858.597	21701
858.731	21816
858.864	21808
858.997	21747
859.13	21686
859.263	21804
859.396	21979
859.529	21690
859.662	21751
859.795	21713
859.928	21709
860.061	21854
860.194	21956
860.327	21797
860.46	21846
860.592	21934
860.725	21937
860.858	21800
860.99	21854
861.123	21739
861.256	21732
861.388	21835
861.521	22527
861.653	21709
861.786	21492
861.918	21595
862.05	21679
862.183	21774
862.315	21751
862.447	21907
862.58	21770
862.712	21469
862.844	21568
862.976	21488
863.108	21572
863.24	21812
863.372	21504
863.504	21545
863.636	21542
863.768	21458
863.9	21557
864.032	21458
864.164	21405
864.296	21500
864.428	21614
864.559	21492
864.691	21553
864.823	21492
864.954	21447
865.086	21428
865.217	21420
865.349	21363
865.48	21397
865.612	21382
865.743	21469
865.875	21393
866.006	21401
866.137	21275
866.269	21359
866.4	21397
866.531	21298
866.662	21260
866.793	21237
866.924	21302
867.055	21325
867.186	21264
867.317	21264
867.448	21169
867.579	21275
867.71	21233
867.841	21302
867.972	21218
868.103	21264
868.233	21401
868.364	21264
868.495	21447
868.625	21412
868.756	21595
868.886	21443
869.017	21561
869.147	21682
869.278	21652
869.408	21580
869.539	21454
869.669	21644
869.799	21625
869.929	21599
870.06	21572
870.19	21922
870.32	21812
870.45	21934
870.58	21998
870.71	22021
870.84	21907
870.97	22090
871.1	21956
871.23	22032
871.36	22055
871.489	22063
871.619	22044
871.749	22097
871.879	22185
872.008	22185
872.138	22078
872.267	22200
872.397	22025
872.526	21934
872.656	21808
872.785	21953
872.915	22048
873.044	22226
873.173	22192
873.303	22059
873.432	22162
873.561	22249
873.69	22112
873.819	22207
873.948	22150
874.077	22143
874.206	22166
874.335	22086
874.464	22280
874.593	22268
874.722	22367
874.851	22322
874.979	22379
875.108	22478
875.237	22341
875.365	22459
875.494	22382
875.623	22497
875.751	22379
875.88	22421
876.008	22493
876.136	22527
876.265	22778
876.393	22862
876.521	22908
876.65	22820
876.778	22748
876.906	22679
877.034	22626
877.162	22824
877.29	22615
877.418	22683
877.546	22858
877.674	22729
877.802	22672
877.93	22767
878.058	22630
878.185	22653
878.313	22717
878.441	22694
878.568	22565
878.696	22577
878.824	22721
878.951	22611
879.079	22961
879.206	23033
879.333	22797
879.461	22687
879.588	22995
879.715	23056
879.842	22896
879.97	22660
880.097	22508
880.224	22599
880.351	22626
880.478	22565
880.605	22451
880.732	22573
880.859	22710
880.986	22527
881.112	22596
881.239	22390
881.366	22310
881.493	22204
881.619	22196
881.746	22154
881.872	22036
881.999	21975
882.125	22070
882.252	22025
882.378	22150
882.505	22154
882.631	21918
882.757	21701
882.883	21861
883.01	21747
883.136	21831
883.262	21667
883.388	21610
883.514	21797
883.64	21899
883.766	21644
883.892	21652
884.018	21469
884.143	21808
884.269	21857
884.395	21576
884.52	21412
884.646	21557
884.772	21389
884.897	21401
885.023	21393
885.148	21538
885.274	21557
885.399	21561
885.524	21469
885.65	21336
885.775	21431
885.9	21424
886.025	21542
886.15	21428
886.275	21420
886.4	21283
886.525	21386
886.65	21370
886.775	21313
886.9	21443
887.025	21542
887.149	21401
887.274	21272
887.399	21214
887.523	21226
887.648	21180
887.773	21119
887.897	21302
888.021	21283
888.146	21017
888.27	21329
888.395	21226
888.519	21317
888.643	21230
888.767	21256
888.891	21081
889.015	20986
889.139	21093
889.263	21032
889.387	20998
889.511	21214
889.635	21096
889.759	20994
889.883	20891
890.006	20956
890.13	21096
890.254	20971
890.377	20952
890.501	20674
890.624	20674
890.748	20838
890.871	20632
890.995	20609
891.118	20423
891.241	20636
891.364	20389
891.488	20701
891.611	20648
891.734	20606
891.857	20499
891.98	20632
892.103	20499
892.226	20469
892.349	20431
892.471	20374
892.594	20549
892.717	20526
892.839	20461
892.962	20476
893.085	20465
893.207	20408
893.33	20336
893.452	20469
893.575	20488
893.697	20442
893.819	20716
893.941	20697
894.064	20556
894.186	20404
894.308	20362
894.43	20492
894.552	20552
894.674	20473
894.796	20309
894.918	20423
895.04	20469
895.161	20575
895.283	20469
895.405	20408
895.526	20518
895.648	20423
895.769	20442
895.891	20488
896.012	20495
896.134	20442
896.255	20465
896.376	20393
896.498	20415
896.619	20533
896.74	20370
896.861	20579
896.982	20758
897.103	20887
897.224	20670
897.345	20556
897.466	20693
897.587	20571
897.708	20735
897.828	20606
897.949	20564
898.07	20400
898.19	20533
898.311	20629
898.431	20590
898.552	20659
898.672	20617
898.792	20670
898.913	20617
899.033	20457
899.153	20381
899.273	20336
899.393	20389
899.513	20396
899.633	20396
899.753	20442
899.873	20320
899.993	20492
900.113	20244
900.232	20275
900.352	20176
900.472	20206
900.591	20206
900.711	20145
900.83	20092
900.95	20244
901.069	20290
901.189	20107
901.308	19693
901.427	19704
901.546	19799
901.665	19655
901.784	19715
901.904	19620
902.023	19693
902.141	19369
902.26	19278
902.379	19369
902.498	19160
902.617	19278
902.735	19331
902.854	19293
902.973	19080
903.091	18913
903.21	18939
903.328	18833
903.446	18757
903.565	18715
903.683	18802
903.801	18521
903.919	18661
904.038	18658
904.156	18422
904.274	18566
904.392	18589
904.51	18502
904.627	18483
904.745	18426
904.863	18525
904.981	18285
905.098	18155
905.216	18171
905.334	18224
905.451	18273
905.569	18163
905.686	18152
905.803	18121
905.921	18022
906.038	18019
906.155	17912
906.272	17790
906.389	17832
906.506	17714
906.623	17699
906.74	17668
906.857	17505
906.974	17646
907.091	17764
907.208	17863
907.324	17642
907.441	17566
907.557	17433
907.674	17417
907.79	17337
907.907	17398
908.023	17478
908.139	17440
908.256	17353
908.372	17311
908.488	17227
908.604	17185
908.72	17025
908.836	17117
908.952	17181
909.068	17140
909.184	17193
909.3	17242
909.415	17140
909.531	17193
909.647	16828
909.762	16843
909.878	16820
909.993	16793
910.108	16835
910.224	16793
910.339	16843
910.454	16710
910.57	16596
910.685	16580
910.8	16877
910.915	16900
911.03	16755
911.145	16470
911.259	16466
911.374	16405
911.489	16466
911.604	16249
911.718	16181
911.833	16181
911.947	16017
912.062	16036
912.176	16173
912.291	16181
912.405	16120
912.519	16265
912.633	16360
912.748	16143
912.862	16097
912.976	15983
913.09	15915
913.204	15994
913.318	15991
913.431	16074
913.545	15991
913.659	16013
913.772	15907
913.886	15800
914	15656
914.113	15915
914.226	15861
914.34	15869
914.453	15793
914.566	15831
914.68	15629
914.793	15584
914.906	15370
915.019	15317
915.132	15302
915.245	15439
915.358	15329
915.47	15252
915.583	15424
915.696	15389
915.809	15481
915.921	15443
916.034	15348
916.146	15256
916.259	15226
916.371	15310
916.483	15378
916.595	15142
916.708	15142
916.82	15211
916.932	15218
917.044	15195
917.156	15150
917.268	15058
917.38	15009
917.491	14948
917.603	14979
917.715	15066
917.826	15058
917.938	14925
918.049	14777
918.161	14895
918.272	14967
918.384	15119
918.495	14986
918.606	14834
918.717	14674
918.828	14788
918.939	14701
919.05	14674
919.161	14670
919.272	14579
919.383	14564
919.494	14853
919.604	14998
919.715	14853
919.826	14575
919.936	14762
920.047	14735
920.157	14644
920.267	14857
920.378	14674
920.488	14716
920.598	14880
920.708	14979
920.818	14963
920.928	14872
921.038	14933
921.148	14994
921.258	14716
921.368	14606
921.477	14370
921.587	14537
921.697	14298
921.806	14381
921.916	14229
922.025	14176
922.134	14142
922.244	14065
922.353	14100
922.462	13928
922.571	13944
922.68	13856
922.789	13769
922.898	13689
923.007	13647
923.116	13761
923.224	13639
923.333	13681
923.442	13605
923.55	13540
923.659	13537
923.767	13628
923.876	13495
923.984	13556
924.092	13400
924.201	13578
924.309	13487
924.417	13491
924.525	13426
924.633	13445
924.741	14199
924.849	13206
924.956	13343
925.064	13187
925.172	13118
925.279	13179
925.387	13126
925.494	13133
925.602	13206
925.709	13194
925.816	13080
925.924	13065
926.031	13183
926.138	13122
926.245	13122
926.352	12989
926.459	13046
926.566	13168
926.673	13050
926.779	12973
926.886	12886
926.993	12757
927.099	12703
927.206	12738
927.312	12753
927.419	12738
927.525	12715
927.631	12662
927.737	12585
927.843	12445
927.95	12448
928.056	12525
928.162	12464
928.267	12532
928.373	13129
928.479	12582
928.585	12323
928.69	12490
928.796	12486
928.901	12357
929.007	12136
929.112	12399
929.218	12369
929.323	12330
929.428	12232
929.533	12372
929.638	12125
929.743	12205
929.848	12270
929.953	12186
930.058	12076
930.163	11843
930.267	12003
930.372	12049
930.477	11870
930.581	12148
930.685	11965
930.79	11798
930.894	11813
930.998	11764
931.103	11923
931.207	11562
931.311	11524
931.415	11425
931.519	11155
931.623	11162
