Data from test_V78500241_437.txt Node
Date: Fri Mar 25 15:12:54 CST 2022
User: usil
Spectrometer: V785-0024
Trigger mode: 0
Integration Time (sec): 4.000000E-1
Scans to average: 1
Nonlinearity correction enabled: false
Boxcar width: 0
Storing dark spectrum: false
XAxis mode: Wavelengths
Number of Pixels in Spectrum: 1024
>>>>>Begin Spectral Data<<<<<
801.071	27096
801.214	27085
801.356	26842
801.499	26883
801.641	26781
801.783	26769
801.926	26861
802.068	26826
802.211	26609
802.353	26568
802.496	26579
802.638	26298
802.78	26431
802.923	26305
803.065	26343
803.208	26305
803.35	26294
803.492	26552
803.635	26541
803.777	26396
803.919	26579
804.061	26765
804.204	26556
804.346	26374
804.488	26427
804.63	26453
804.773	26343
804.915	26492
805.057	26682
805.199	26522
805.341	26541
805.483	26598
805.626	26469
805.768	26453
805.91	26473
806.052	26640
806.194	26488
806.336	26758
806.478	26545
806.62	26568
806.762	26613
806.904	26811
807.046	27096
807.188	27138
807.33	26952
807.472	27119
807.614	26826
807.756	26876
807.898	26788
808.04	26746
808.182	26796
808.324	26861
808.465	26792
808.607	26880
808.749	27001
808.891	27363
809.033	27435
809.174	27275
809.316	27169
809.458	27142
809.6	27146
809.741	27340
809.883	27226
810.025	27538
810.166	27496
810.308	27435
810.45	27382
810.591	27511
810.733	27252
810.875	27127
811.016	26967
811.158	27020
811.299	27245
811.441	27249
811.582	27405
811.724	27112
811.865	27104
812.007	27165
812.148	27081
812.29	27214
812.431	27378
812.573	27435
812.714	27523
812.855	27610
812.997	27800
813.138	27800
813.279	27732
813.421	27861
813.562	27648
813.703	27587
813.845	27355
813.986	27066
814.127	26933
814.268	26914
814.41	26769
814.551	26720
814.692	26990
814.833	26788
814.974	26686
815.115	26864
815.256	26674
815.397	26838
815.539	26785
815.68	26495
815.821	26446
815.962	26670
816.103	26598
816.244	26590
816.385	26358
816.526	26415
816.666	26153
816.807	25997
816.948	26130
817.089	26278
817.23	26081
817.371	26119
817.512	26142
817.653	26005
817.793	26096
817.934	25989
818.075	26054
818.216	26142
818.356	26107
818.497	25936
818.638	25830
818.778	25833
818.919	25814
819.06	25925
819.2	26012
819.341	25963
819.481	26172
819.622	26305
819.762	26495
819.903	26381
820.043	26320
820.184	26225
820.324	26202
820.465	26237
820.605	26324
820.746	26164
820.886	26073
821.026	26164
821.167	26126
821.307	26138
821.447	26122
821.588	26084
821.728	25826
821.868	25559
822.008	25582
822.149	25613
822.289	25655
822.429	25297
822.569	25168
822.709	25285
822.849	24935
822.99	25072
823.13	24947
823.27	25031
823.41	24924
823.55	24810
823.69	24848
823.83	24875
823.97	24840
824.11	24673
824.25	24642
824.389	24601
824.529	24684
824.669	24745
824.809	24856
824.949	24760
825.089	24852
825.228	24661
825.368	24597
825.508	24536
825.648	24551
825.787	24578
825.927	24544
826.067	24547
826.206	24517
826.346	24646
826.485	24608
826.625	24612
826.765	24623
826.904	24517
827.044	24346
827.183	24357
827.323	24334
827.462	24292
827.601	24209
827.741	24273
827.88	24247
828.02	24102
828.159	24201
828.298	24251
828.437	24258
828.577	24289
828.716	24429
828.855	24247
828.994	24041
829.134	23954
829.273	24136
829.412	23870
829.551	23866
829.69	23958
829.829	23969
829.968	23961
830.107	24106
830.246	23984
830.385	23901
830.524	23893
830.663	23817
830.802	23646
830.941	23608
831.08	23596
831.219	23627
831.357	23619
831.496	23866
831.635	23524
831.774	23478
831.913	23474
832.051	23444
832.19	23410
832.329	23444
832.467	23246
832.606	23307
832.744	23261
832.883	23452
833.022	23269
833.16	23337
833.299	23334
833.437	23440
833.576	23379
833.714	23376
833.852	23486
833.991	23440
834.129	23429
834.267	23433
834.406	23387
834.544	23303
834.682	23376
834.821	23410
834.959	23672
835.097	23258
835.235	23398
835.373	23315
835.511	23242
835.65	23273
835.788	23174
835.926	23105
836.064	23048
836.202	23052
836.34	23189
836.478	23299
836.615	23235
836.753	23296
836.891	23212
837.029	23212
837.167	23155
837.305	23117
837.443	23048
837.58	23102
837.718	23128
837.856	23090
837.993	23094
838.131	23105
838.269	22889
838.406	22862
838.544	22980
838.681	22771
838.819	22656
838.956	22637
839.094	22569
839.231	22497
839.369	22862
839.506	22949
839.643	22664
839.781	22622
839.918	22580
840.055	22675
840.193	22599
840.33	22485
840.467	22470
840.604	22550
840.742	22717
840.879	22329
841.016	22500
841.153	22295
841.29	22577
841.427	22470
841.564	22596
841.701	22516
841.838	22466
841.975	22390
842.112	22318
842.249	22173
842.385	22215
842.522	22413
842.659	22261
842.796	22204
842.933	22204
843.069	22139
843.206	22230
843.343	22234
843.479	22306
843.616	22356
843.752	22101
843.889	21994
844.025	22169
844.162	22021
844.298	22200
844.435	21983
844.571	21983
844.708	22025
844.844	22200
844.98	22162
845.117	22166
845.253	21937
845.389	21949
845.525	21842
845.661	21968
845.798	21903
845.934	21778
846.07	21705
846.206	21804
846.342	21953
846.478	21774
846.614	21591
846.75	21393
846.886	21580
847.022	21595
847.158	21519
847.294	21572
847.429	21473
847.565	21614
847.701	21679
847.837	21214
847.972	21195
848.108	21420
848.244	21256
848.379	21032
848.515	21085
848.65	20921
848.786	21173
848.921	21009
849.057	21321
849.192	21272
849.328	21089
849.463	21096
849.598	21020
849.734	20921
849.869	20914
850.004	20956
850.14	20842
850.275	20895
850.41	20765
850.545	20758
850.68	20754
850.815	20872
850.95	20758
851.085	20963
851.22	20994
851.355	20921
851.49	20731
851.625	20777
851.76	20785
851.895	20758
852.03	20731
852.165	20842
852.299	20815
852.434	20948
852.569	20914
852.703	20826
852.838	20914
852.973	21020
853.107	20944
853.242	20853
853.376	20708
853.511	20602
853.645	20655
853.78	20750
853.914	20826
854.048	20689
854.183	20651
854.317	20689
854.451	20849
854.585	20640
854.72	20606
854.854	20815
854.988	20514
855.122	20655
855.256	20590
855.39	20708
855.524	20583
855.658	20796
855.792	20712
855.926	20644
856.06	20670
856.194	20853
856.327	20777
856.461	20492
856.595	20533
856.729	20644
856.862	20868
856.996	20731
857.13	20693
857.263	20750
857.397	20686
857.53	20743
857.664	20708
857.797	20651
857.931	20807
858.064	20807
858.197	20735
858.331	20533
858.464	20621
858.597	20594
858.731	20651
858.864	20670
858.997	20571
859.13	20659
859.263	20667
859.396	20735
859.529	20705
859.662	20678
859.795	20568
859.928	20621
860.061	20914
860.194	20971
860.327	20670
860.46	20575
860.592	20788
860.725	20807
860.858	20655
860.99	20629
861.123	20644
861.256	20651
861.388	20640
861.521	21302
861.653	20552
861.786	20518
861.918	20564
862.05	20507
862.183	20705
862.315	20648
862.447	20697
862.58	20499
862.712	20423
862.844	20393
862.976	20465
863.108	20427
863.24	20769
863.372	20355
863.504	20480
863.636	20385
863.768	20488
863.9	20271
864.032	20309
864.164	20282
864.296	20358
864.428	20457
864.559	20492
864.691	20514
864.823	20377
864.954	20328
865.086	20366
865.217	20366
865.349	20233
865.48	20305
865.612	20339
865.743	20408
865.875	20339
866.006	20225
866.137	20191
866.269	20199
866.4	20229
866.531	20210
866.662	20271
866.793	20237
866.924	20130
867.055	20225
867.186	20214
867.317	20244
867.448	20218
867.579	20115
867.71	20122
867.841	20130
867.972	20263
868.103	20202
868.233	20267
868.364	20191
868.495	20355
868.625	20415
868.756	20469
868.886	20415
869.017	20381
869.147	20583
869.278	20568
869.408	20511
869.539	20514
869.669	20549
869.799	20499
869.929	20579
870.06	20708
870.19	20880
870.32	20773
870.45	20762
870.58	20941
870.71	20933
870.84	20929
870.97	20883
871.1	20853
871.23	21055
871.36	21131
871.489	20944
871.619	21081
871.749	21058
871.879	21169
872.008	21157
872.138	21131
872.267	21013
872.397	20929
872.526	20785
872.656	20883
872.785	20937
872.915	21184
873.044	21180
873.173	21093
873.303	21112
873.432	21157
873.561	21123
873.69	21142
873.819	21051
873.948	21222
874.077	21028
874.206	21009
874.335	21096
874.464	21317
874.593	21294
874.722	21291
874.851	21393
874.979	21237
875.108	21382
875.237	21135
875.365	21245
875.494	21195
875.623	21462
875.751	21256
875.88	21317
876.008	21504
876.136	21561
876.265	21785
876.393	21850
876.521	21759
876.65	21865
876.778	21682
876.906	21679
877.034	21705
877.162	21739
877.29	21599
877.418	21675
877.546	21663
877.674	21736
877.802	21675
877.93	21717
878.058	21717
878.185	21545
878.313	21751
878.441	21633
878.568	21462
878.696	21671
878.824	21736
878.951	21884
879.079	21778
879.206	22013
879.333	21800
879.461	21724
879.588	21823
879.715	21759
879.842	22048
879.97	21789
880.097	21526
880.224	21557
880.351	21603
880.478	21698
880.605	21447
880.732	21549
880.859	21557
880.986	21496
881.112	21481
881.239	21294
881.366	21275
881.493	21051
881.619	21165
881.746	21150
881.872	21020
881.999	21104
882.125	21074
882.252	21062
882.378	20990
882.505	21222
882.631	20944
882.757	20750
882.883	20971
883.01	20750
883.136	20781
883.262	20739
883.388	20712
883.514	20754
883.64	20925
883.766	20785
883.892	20518
884.018	20716
884.143	20769
884.269	20876
884.395	20556
884.52	20446
884.646	20442
884.772	20336
884.897	20351
885.023	20339
885.148	20522
885.274	20678
885.399	20552
885.524	20396
885.65	20442
885.775	20492
885.9	20263
886.025	20446
886.15	20590
886.275	20332
886.4	20320
886.525	20339
886.65	20355
886.775	20317
886.9	20495
887.025	20560
887.149	20408
887.274	20278
887.399	20191
887.523	20172
887.648	20187
887.773	20145
887.897	20256
888.021	20332
888.146	20301
888.27	20343
888.395	20381
888.519	20301
888.643	20355
888.767	20301
888.891	20054
889.015	20069
889.139	20073
889.263	20012
889.387	20176
889.511	20252
889.635	20176
889.759	19997
889.883	20054
890.006	20039
890.13	20142
890.254	19894
890.377	19917
890.501	19826
890.624	19772
890.748	19784
890.871	19693
890.995	19548
891.118	19422
891.241	19632
891.364	19582
891.488	19830
891.611	19655
891.734	19567
891.857	19719
891.98	19582
892.103	19693
892.226	19693
892.349	19586
892.471	19426
892.594	19537
892.717	19518
892.839	19369
892.962	19460
893.085	19655
893.207	19491
893.33	19293
893.452	19476
893.575	19575
893.697	19487
893.819	19666
893.941	19780
894.064	19605
894.186	19506
894.308	19381
894.43	19563
894.552	19750
894.674	19525
894.796	19434
894.918	19449
895.04	19449
895.161	19556
895.283	19590
895.405	19472
895.526	19464
895.648	19525
895.769	19525
895.891	19689
896.012	19601
896.134	19548
896.255	19495
896.376	19510
896.498	19582
896.619	19548
896.74	19480
896.861	19681
896.982	19852
897.103	19997
897.224	19830
897.345	19803
897.466	19666
897.587	19708
897.708	19757
897.828	19803
897.949	19548
898.07	19613
898.19	19772
898.311	19864
898.431	19723
898.552	19689
898.672	19833
898.792	19841
898.913	19753
899.033	19651
899.153	19487
899.273	19354
899.393	19521
899.513	19415
899.633	19476
899.753	19487
899.873	19388
899.993	19533
900.113	19365
900.232	19556
900.352	19422
900.472	19274
900.591	19266
900.711	19331
900.83	19213
900.95	19453
901.069	19362
901.189	19228
901.308	18939
901.427	18954
901.546	18795
901.665	18962
901.784	18863
901.904	18814
902.023	18559
902.141	18509
902.26	18471
902.379	18441
902.498	18410
902.617	18403
902.735	18380
902.854	18395
902.973	18384
903.091	18197
903.21	18129
903.328	17992
903.446	17992
903.565	17882
903.683	17996
903.801	17783
903.919	17889
904.038	17958
904.156	17657
904.274	17699
904.392	17649
904.51	17661
904.627	17668
904.745	17775
904.863	17680
904.981	17360
905.098	17372
905.216	17353
905.334	17265
905.451	17296
905.569	17345
905.686	17398
905.803	17368
905.921	17052
906.038	17250
906.155	17181
906.272	17079
906.389	17151
906.506	17033
906.623	16968
906.74	16911
906.857	16824
906.974	16801
907.091	16927
907.208	17064
907.324	16968
907.441	16843
907.557	16694
907.674	16626
907.79	16512
907.907	16645
908.023	16698
908.139	16527
908.256	16481
908.372	16481
908.488	16451
908.604	16367
908.72	16287
908.836	16318
908.952	16314
909.068	16375
909.184	16402
909.3	16299
909.415	16344
909.531	16268
909.647	16082
909.762	16105
909.878	16032
909.993	16067
910.108	16051
910.224	15983
910.339	16029
910.454	15964
910.57	15854
910.685	15873
910.8	16071
910.915	16051
911.03	15930
911.145	15705
911.259	15701
911.374	15701
911.489	15557
911.604	15564
911.718	15405
911.833	15397
911.947	15317
912.062	15108
912.176	15298
912.291	15336
912.405	15393
912.519	15545
912.633	15549
912.748	15507
912.862	15313
912.976	15192
913.09	15074
913.204	15233
913.318	15207
913.431	15359
913.545	15207
913.659	15374
913.772	15085
913.886	15001
914	14971
914.113	15070
914.226	15131
914.34	15184
914.453	14982
914.566	15097
914.68	14842
914.793	14868
914.906	14769
915.019	14629
915.132	14625
915.245	14655
915.358	14777
915.47	14640
915.583	14674
915.696	14644
915.809	14724
915.921	14670
916.034	14549
916.146	14552
916.259	14564
916.371	14644
916.483	14667
916.595	14522
916.708	14469
916.82	14514
916.932	14396
917.044	14404
917.156	14473
917.268	14389
917.38	14381
917.491	14381
917.603	14298
917.715	14298
917.826	14427
917.938	14294
918.049	14157
918.161	14176
918.272	14400
918.384	14404
918.495	14332
918.606	14145
918.717	14142
918.828	14126
918.939	14096
919.05	14050
919.161	14043
919.272	13898
919.383	13879
919.494	14092
919.604	14305
919.715	14100
919.826	13917
919.936	14069
920.047	14168
920.157	14024
920.267	14267
920.378	14016
920.488	14100
920.598	14210
920.708	14358
920.818	14180
920.928	14062
921.038	14309
921.148	14248
921.258	13936
921.368	13967
921.477	13814
921.587	13780
921.697	13689
921.806	13826
921.916	13708
922.025	13491
922.134	13400
922.244	13460
922.353	13453
922.462	13324
922.571	13293
922.68	13217
922.789	13103
922.898	13137
923.007	13057
923.116	13129
923.224	13061
923.333	13042
923.442	12970
923.55	12875
923.659	12977
923.767	13050
923.876	12856
923.984	12981
924.092	12840
924.201	12909
924.309	12852
924.417	12844
924.525	12734
924.633	12749
924.741	13704
924.849	12612
924.956	12715
925.064	12547
925.172	12502
925.279	12544
925.387	12509
925.494	12528
925.602	12711
925.709	12608
925.816	12494
925.924	12502
926.031	12547
926.138	12528
926.245	12502
926.352	12437
926.459	12570
926.566	12456
926.673	12433
926.779	12361
926.886	12285
926.993	12133
927.099	12171
927.206	12049
927.312	12076
927.419	12159
927.525	12049
927.631	12110
927.737	12068
927.843	11927
927.95	11908
928.056	11961
928.162	11988
928.267	11999
928.373	12722
928.479	12022
928.585	11764
928.69	11916
928.796	11980
928.901	11798
929.007	11668
929.112	11843
929.218	11805
929.323	11809
929.428	11680
929.533	11859
929.638	11646
929.743	11638
929.848	11649
929.953	11611
930.058	11551
930.163	11379
930.267	11490
930.372	11478
930.477	11368
930.581	11646
930.685	11398
930.79	11372
930.894	11208
930.998	11277
931.103	11402
931.207	11113
931.311	10987
931.415	10797
931.519	10641
931.623	10744
