Data from test_V78500241_3050.txt Node
Date: Fri Mar 25 15:31:06 CST 2022
User: usil
Spectrometer: V785-0024
Trigger mode: 0
Integration Time (sec): 4.000000E-1
Scans to average: 1
Nonlinearity correction enabled: false
Boxcar width: 0
Storing dark spectrum: false
XAxis mode: Wavelengths
Number of Pixels in Spectrum: 1024
>>>>>Begin Spectral Data<<<<<
801.071	27104
801.214	27161
801.356	26861
801.499	26777
801.641	26644
801.783	26746
801.926	26739
802.068	26743
802.211	26670
802.353	26689
802.496	26351
802.638	26358
802.78	26377
802.923	26172
803.065	26278
803.208	26237
803.35	26332
803.492	26355
803.635	26629
803.777	26381
803.919	26488
804.061	26948
804.204	26579
804.346	26404
804.488	26484
804.63	26480
804.773	26343
804.915	26590
805.057	26594
805.199	26522
805.341	26514
805.483	26670
805.626	26587
805.768	26556
805.91	26560
806.052	26746
806.194	26594
806.336	26750
806.478	26541
806.62	26659
806.762	26609
806.904	26819
807.046	27138
807.188	27089
807.33	27024
807.472	27165
807.614	26963
807.756	26979
807.898	26891
808.04	26788
808.182	26788
808.324	26918
808.465	26948
808.607	27058
808.749	27382
808.891	27294
809.033	27256
809.174	27272
809.316	27176
809.458	27146
809.6	27313
809.741	27325
809.883	27397
810.025	27382
810.166	27405
810.308	27424
810.45	27534
810.591	27443
810.733	27283
810.875	27169
811.016	27100
811.158	27241
811.299	27294
811.441	27325
811.582	27367
811.724	27207
811.865	27218
812.007	27161
812.148	27184
812.29	27165
812.431	27367
812.573	27542
812.714	27488
812.855	27728
812.997	27926
813.138	27854
813.279	27857
813.421	27701
813.562	27660
813.703	27564
813.845	27386
813.986	27055
814.127	26952
814.268	26811
814.41	26876
814.551	26876
814.692	26902
814.833	26823
814.974	26891
815.115	26880
815.256	26651
815.397	26739
815.539	26705
815.68	26663
815.821	26571
815.962	26617
816.103	26651
816.244	26484
816.385	26415
816.526	26431
816.666	26081
816.807	26130
816.948	26229
817.089	26278
817.23	26153
817.371	26164
817.512	26096
817.653	26016
817.793	26035
817.934	26161
818.075	26142
818.216	26195
818.356	26145
818.497	25974
818.638	25883
818.778	25826
818.919	25940
819.06	25925
819.2	25868
819.341	26077
819.481	26107
819.622	26172
819.762	26408
819.903	26503
820.043	26149
820.184	26221
820.324	26248
820.465	26282
820.605	26214
820.746	26115
820.886	26149
821.026	26111
821.167	26161
821.307	26164
821.447	26084
821.588	25951
821.728	25928
821.868	25746
822.008	25639
822.149	25544
822.289	25567
822.429	25301
822.569	25236
822.709	25099
822.849	25088
822.99	25126
823.13	25023
823.27	25012
823.41	24954
823.55	24787
823.69	24878
823.83	24821
823.97	24844
824.11	24700
824.25	24741
824.389	24604
824.529	24715
824.669	24730
824.809	24661
824.949	24810
825.089	24821
825.228	24760
825.368	24661
825.508	24585
825.648	24574
825.787	24604
825.927	24582
826.067	24627
826.206	24555
826.346	24597
826.485	24673
826.625	24502
826.765	24574
826.904	24532
827.044	24338
827.183	24429
827.323	24308
827.462	24338
827.601	24308
827.741	24353
827.88	24254
828.02	24186
828.159	24186
828.298	24220
828.437	24270
828.577	24152
828.716	24327
828.855	24133
828.994	23950
829.134	23988
829.273	24064
829.412	23950
829.551	23904
829.69	23984
829.829	24022
829.968	23980
830.107	24011
830.246	24034
830.385	23901
830.524	23885
830.663	23767
830.802	23756
830.941	23634
831.08	23589
831.219	23748
831.357	23668
831.496	23805
831.635	23535
831.774	23512
831.913	23444
832.051	23334
832.19	23406
832.329	23455
832.467	23227
832.606	23311
832.744	23162
832.883	23292
833.022	23197
833.16	23193
833.299	23280
833.437	23368
833.576	23307
833.714	23368
833.852	23467
833.991	23231
834.129	23337
834.267	23528
834.406	23258
834.544	23509
834.682	23227
834.821	23246
834.959	23573
835.097	23227
835.235	23334
835.373	23220
835.511	23322
835.65	23132
835.788	23246
835.926	23124
836.064	22965
836.202	23029
836.34	23181
836.478	23136
836.615	23086
836.753	23227
836.891	23212
837.029	23178
837.167	23155
837.305	23166
837.443	22923
837.58	23006
837.718	23155
837.856	22984
837.993	22866
838.131	23086
838.269	22999
838.406	22965
838.544	22900
838.681	22729
838.819	22592
838.956	22455
839.094	22615
839.231	22527
839.369	22702
839.506	22881
839.643	22748
839.781	22500
839.918	22489
840.055	22466
840.193	22542
840.33	22314
840.467	22409
840.604	22466
840.742	22694
840.879	22360
841.016	22348
841.153	22265
841.29	22466
841.427	22363
841.564	22367
841.701	22573
841.838	22295
841.975	22333
842.112	22367
842.249	22280
842.385	22169
842.522	22360
842.659	22337
842.796	22173
842.933	22112
843.069	22173
843.206	22070
843.343	22238
843.479	22150
843.616	22048
843.752	21842
843.889	21956
844.025	22158
844.162	21918
844.298	21930
844.435	22070
844.571	22017
844.708	22002
844.844	22059
844.98	22032
845.117	22063
845.253	21854
845.389	21762
845.525	21838
845.661	21686
845.798	21720
845.934	21709
846.07	21622
846.206	21603
846.342	21774
846.478	21751
846.614	21458
846.75	21435
846.886	21416
847.022	21488
847.158	21469
847.294	21492
847.429	21443
847.565	21389
847.701	21629
847.837	21211
847.972	21070
848.108	21256
848.244	21100
848.379	21013
848.515	21005
848.65	20956
848.786	20975
848.921	21093
849.057	21119
849.192	21066
849.328	20998
849.463	21039
849.598	20994
849.734	20941
849.869	20861
850.004	20838
850.14	20902
850.275	20887
850.41	20686
850.545	20796
850.68	20746
850.815	20705
850.95	20769
851.085	20937
851.22	20906
851.355	20826
851.49	20708
851.625	20857
851.76	20792
851.895	20693
852.03	20708
852.165	20804
852.299	20815
852.434	20876
852.569	20804
852.703	20819
852.838	20979
852.973	20925
853.107	20845
853.242	20739
853.376	20697
853.511	20492
853.645	20552
853.78	20724
853.914	20724
854.048	20587
854.183	20571
854.317	20670
854.451	20895
854.585	20625
854.72	20511
854.854	20689
854.988	20617
855.122	20682
855.256	20564
855.39	20629
855.524	20800
855.658	20739
855.792	20674
855.926	20590
856.06	20739
856.194	20857
856.327	20606
856.461	20469
856.595	20533
856.729	20545
856.862	20815
856.996	20541
857.13	20735
857.263	20765
857.397	20689
857.53	20594
857.664	20526
857.797	20651
857.931	20769
858.064	20560
858.197	20689
858.331	20670
858.464	20575
858.597	20374
858.731	20670
858.864	20484
858.997	20533
859.13	20678
859.263	20640
859.396	20552
859.529	20613
859.662	20526
859.795	20613
859.928	20670
860.061	20720
860.194	20880
860.327	20613
860.46	20537
860.592	20788
860.725	20834
860.858	20762
860.99	20678
861.123	20560
861.256	20503
861.388	20587
861.521	21214
861.653	20495
861.786	20339
861.918	20465
862.05	20533
862.183	20522
862.315	20606
862.447	20598
862.58	20465
862.712	20393
862.844	20267
862.976	20454
863.108	20427
863.24	20663
863.372	20252
863.504	20404
863.636	20271
863.768	20298
863.9	20358
864.032	20313
864.164	20351
864.296	20347
864.428	20446
864.559	20385
864.691	20492
864.823	20320
864.954	20282
865.086	20252
865.217	20256
865.349	20142
865.48	20286
865.612	20183
865.743	20343
865.875	20180
866.006	20195
866.137	20263
866.269	20138
866.4	20237
866.531	20161
866.662	20100
866.793	20134
866.924	20058
867.055	20218
867.186	20195
867.317	20187
867.448	20115
867.579	20187
867.71	20046
867.841	20115
867.972	20187
868.103	20119
868.233	20153
868.364	20180
868.495	20271
868.625	20393
868.756	20427
868.886	20328
869.017	20320
869.147	20583
869.278	20537
869.408	20465
869.539	20484
869.669	20423
869.799	20450
869.929	20587
870.06	20571
870.19	20754
870.32	20762
870.45	20773
870.58	20823
870.71	20948
870.84	20918
870.97	20796
871.1	20864
871.23	21009
871.36	21157
871.489	20948
871.619	20868
871.749	21009
871.879	21180
872.008	21017
872.138	21024
872.267	20933
872.397	20887
872.526	20864
872.656	20826
872.785	20880
872.915	20880
873.044	21089
873.173	21039
873.303	21047
873.432	21032
873.561	21089
873.69	21051
873.819	21039
873.948	21055
874.077	21036
874.206	20956
874.335	21085
874.464	21154
874.593	21222
874.722	21142
874.851	21325
874.979	21279
875.108	21332
875.237	21176
875.365	21252
875.494	21203
875.623	21374
875.751	21386
875.88	21351
876.008	21485
876.136	21561
876.265	21629
876.393	21800
876.521	21667
876.65	21903
876.778	21679
876.906	21660
877.034	21625
877.162	21599
877.29	21538
877.418	21652
877.546	21618
877.674	21675
877.802	21709
877.93	21671
878.058	21515
878.185	21641
878.313	21561
878.441	21629
878.568	21416
878.696	21496
878.824	21648
878.951	21724
879.079	21816
879.206	21857
879.333	21975
879.461	21846
879.588	21644
879.715	21789
879.842	21941
879.97	21747
880.097	21488
880.224	21458
880.351	21485
880.478	21549
880.605	21367
880.732	21393
880.859	21755
880.986	21576
881.112	21473
881.239	21332
881.366	21184
881.493	21123
881.619	21131
881.746	21043
881.872	21013
881.999	21051
882.125	21043
882.252	21005
882.378	21058
882.505	21154
882.631	20895
882.757	20781
882.883	20815
883.01	20746
883.136	20701
883.262	20640
883.388	20579
883.514	20746
883.64	20838
883.766	20705
883.892	20533
884.018	20450
884.143	20613
884.269	20735
884.395	20389
884.52	20381
884.646	20476
884.772	20400
884.897	20301
885.023	20419
885.148	20434
885.274	20507
885.399	20514
885.524	20396
885.65	20492
885.775	20514
885.9	20469
886.025	20503
886.15	20442
886.275	20370
886.4	20374
886.525	20415
886.65	20419
886.775	20229
886.9	20389
887.025	20606
887.149	20507
887.274	20164
887.399	20206
887.523	20210
887.648	20218
887.773	20100
887.897	20336
888.021	20263
888.146	20134
888.27	20298
888.395	20263
888.519	20191
888.643	20278
888.767	20248
888.891	20130
889.015	20043
889.139	19997
889.263	19951
889.387	20005
889.511	20301
889.635	20069
889.759	20001
889.883	20001
890.006	19978
890.13	20100
890.254	19807
890.377	19871
890.501	19719
890.624	19845
890.748	19776
890.871	19693
890.995	19639
891.118	19620
891.241	19639
891.364	19597
891.488	19807
891.611	19605
891.734	19594
891.857	19620
891.98	19632
892.103	19666
892.226	19597
892.349	19544
892.471	19521
892.594	19468
892.717	19662
892.839	19525
892.962	19571
893.085	19510
893.207	19495
893.33	19605
893.452	19411
893.575	19480
893.697	19601
893.819	19761
893.941	19727
894.064	19662
894.186	19544
894.308	19533
894.43	19658
894.552	19655
894.674	19689
894.796	19514
894.918	19499
895.04	19335
895.161	19529
895.283	19575
895.405	19537
895.526	19548
895.648	19483
895.769	19647
895.891	19426
896.012	19647
896.134	19548
896.255	19556
896.376	19647
896.498	19407
896.619	19537
896.74	19483
896.861	19567
896.982	19890
897.103	19940
897.224	19712
897.345	19727
897.466	19750
897.587	19605
897.708	19875
897.828	19723
897.949	19662
898.07	19567
898.19	19742
898.311	19788
898.431	19753
898.552	19674
898.672	19837
898.792	19871
898.913	19769
899.033	19651
899.153	19590
899.273	19434
899.393	19575
899.513	19529
899.633	19457
899.753	19415
899.873	19453
899.993	19556
900.113	19434
900.232	19620
900.352	19415
900.472	19411
900.591	19244
900.711	19285
900.83	19335
900.95	19426
901.069	19304
901.189	19171
901.308	18989
901.427	18840
901.546	18859
901.665	18882
901.784	19004
901.904	18677
902.023	18585
902.141	18536
902.26	18452
902.379	18574
902.498	18384
902.617	18414
902.735	18391
902.854	18216
902.973	18376
903.091	18060
903.21	18060
903.328	18136
903.446	17999
903.565	17874
903.683	17908
903.801	17741
903.919	17916
904.038	17843
904.156	17703
904.274	17840
904.392	17695
904.51	17528
904.627	17551
904.745	17703
904.863	17790
904.981	17524
905.098	17345
905.216	17296
905.334	17326
905.451	17402
905.569	17356
905.686	17345
905.803	17406
905.921	17185
906.038	17318
906.155	17128
906.272	17003
906.389	16995
906.506	16923
906.623	16938
906.74	16733
906.857	16759
906.974	16744
907.091	16961
907.208	17041
907.324	16904
907.441	16748
907.557	16634
907.674	16596
907.79	16531
907.907	16603
908.023	16660
908.139	16588
908.256	16577
908.372	16599
908.488	16447
908.604	16390
908.72	16280
908.836	16405
908.952	16265
909.068	16356
909.184	16306
909.3	16310
909.415	16314
909.531	16322
909.647	16112
909.762	15972
909.878	15964
909.993	16078
910.108	16032
910.224	16116
910.339	15994
910.454	15983
910.57	15956
910.685	15812
910.8	16162
910.915	16017
911.03	15774
911.145	15667
911.259	15667
911.374	15679
911.489	15603
911.604	15454
911.718	15526
911.833	15458
911.947	15268
912.062	15306
912.176	15386
912.291	15397
912.405	15412
912.519	15610
912.633	15504
912.748	15462
912.862	15458
912.976	15180
913.09	15085
913.204	15184
913.318	15169
913.431	15405
913.545	15351
913.659	15298
913.772	15268
913.886	15077
914	15020
914.113	15135
914.226	15180
914.34	15089
914.453	14918
914.566	15104
914.68	15005
914.793	14891
914.906	14682
915.019	14670
915.132	14537
915.245	14598
915.358	14693
915.47	14651
915.583	14708
915.696	14663
915.809	14716
915.921	14815
916.034	14594
916.146	14568
916.259	14476
916.371	14678
916.483	14530
916.595	14495
916.708	14400
916.82	14427
916.932	14568
917.044	14469
917.156	14412
917.268	14309
917.38	14336
917.491	14294
917.603	14290
917.715	14355
917.826	14396
917.938	14210
918.049	14142
918.161	14172
918.272	14320
918.384	14423
918.495	14252
918.606	14115
918.717	14043
918.828	14161
918.939	14065
919.05	13997
919.161	14005
919.272	13860
919.383	13856
919.494	14119
919.604	14259
919.715	14126
919.826	13986
919.936	14084
920.047	14142
920.157	14168
920.267	14305
920.378	14035
920.488	14062
920.598	14206
920.708	14343
920.818	14256
920.928	14130
921.038	14313
921.148	14313
921.258	14043
921.368	13967
921.477	13902
921.587	13723
921.697	13670
921.806	13887
921.916	13685
922.025	13571
922.134	13548
922.244	13468
922.353	13518
922.462	13358
922.571	13274
922.68	13118
922.789	13008
922.898	13137
923.007	12981
923.116	13038
923.224	13072
923.333	13038
923.442	13000
923.55	12928
923.659	12962
923.767	12977
923.876	12913
923.984	12989
924.092	12875
924.201	12825
924.309	12867
924.417	12833
924.525	12760
924.633	12806
924.741	13757
924.849	12532
924.956	12700
925.064	12566
925.172	12502
925.279	12437
925.387	12551
925.494	12513
925.602	12654
925.709	12517
925.816	12410
925.924	12456
926.031	12612
926.138	12502
926.245	12532
926.352	12456
926.459	12585
926.566	12486
926.673	12471
926.779	12266
926.886	12311
926.993	12148
927.099	12159
927.206	12140
927.312	12098
927.419	12155
927.525	12205
927.631	12140
927.737	12079
927.843	11961
927.95	11805
928.056	11882
928.162	12049
928.267	12022
928.373	12608
928.479	12030
928.585	11779
928.69	11836
928.796	11965
928.901	11783
929.007	11653
929.112	11851
929.218	11710
929.323	11718
929.428	11741
929.533	11802
929.638	11665
929.743	11733
929.848	11653
929.953	11592
930.058	11493
930.163	11368
930.267	11436
930.372	11493
930.477	11383
930.581	11676
930.685	11459
930.79	11322
930.894	11364
930.998	11292
931.103	11360
931.207	11083
931.311	10942
931.415	10843
931.519	10755
931.623	10725
