Data from test_V78500241_3078.txt Node
Date: Fri Mar 25 15:31:17 CST 2022
User: usil
Spectrometer: V785-0024
Trigger mode: 0
Integration Time (sec): 4.000000E-1
Scans to average: 1
Nonlinearity correction enabled: false
Boxcar width: 0
Storing dark spectrum: false
XAxis mode: Wavelengths
Number of Pixels in Spectrum: 1024
>>>>>Begin Spectral Data<<<<<
801.071	27222
801.214	27317
801.356	27024
801.499	26940
801.641	26800
801.783	26807
801.926	26758
802.068	26910
802.211	26876
802.353	26823
802.496	26552
802.638	26374
802.78	26499
802.923	26514
803.065	26259
803.208	26320
803.35	26522
803.492	26594
803.635	26507
803.777	26560
803.919	26644
804.061	26971
804.204	26678
804.346	26598
804.488	26488
804.63	26556
804.773	26590
804.915	26602
805.057	26731
805.199	26484
805.341	26712
805.483	26720
805.626	26746
805.768	26533
805.91	26743
806.052	26777
806.194	26693
806.336	26743
806.478	26750
806.62	26632
806.762	26811
806.904	27150
807.046	27161
807.188	27104
807.33	27279
807.472	27283
807.614	27051
807.756	27055
807.898	26990
808.04	26937
808.182	26929
808.324	26967
808.465	26986
808.607	27100
808.749	27287
808.891	27511
809.033	27492
809.174	27389
809.316	27245
809.458	27348
809.6	27218
809.741	27473
809.883	27420
810.025	27656
810.166	27606
810.308	27572
810.45	27485
810.591	27549
810.733	27397
810.875	27313
811.016	27226
811.158	27325
811.299	27435
811.441	27393
811.582	27564
811.724	27351
811.865	27272
812.007	27237
812.148	27195
812.29	27340
812.431	27359
812.573	27519
812.714	27759
812.855	27656
812.997	27914
813.138	27914
813.279	27964
813.421	27816
813.562	27705
813.703	27542
813.845	27523
813.986	27237
814.127	27077
814.268	27047
814.41	26944
814.551	26963
814.692	27001
814.833	26857
814.974	26895
815.115	27001
815.256	26781
815.397	26918
815.539	26762
815.68	26777
815.821	26632
815.962	26765
816.103	26708
816.244	26686
816.385	26564
816.526	26606
816.666	26081
816.807	26218
816.948	26320
817.089	26328
817.23	26240
817.371	26218
817.512	26107
817.653	26134
817.793	25940
817.934	26271
818.075	26358
818.216	26267
818.356	26172
818.497	25982
818.638	26065
818.778	26005
818.919	25982
819.06	25936
819.2	26054
819.341	26138
819.481	26176
819.622	26370
819.762	26503
819.903	26427
820.043	26473
820.184	26263
820.324	26225
820.465	26370
820.605	26298
820.746	26400
820.886	26107
821.026	26275
821.167	26191
821.307	26389
821.447	26176
821.588	26138
821.728	26058
821.868	25894
822.008	25681
822.149	25719
822.289	25632
822.429	25491
822.569	25362
822.709	25384
822.849	25213
822.99	25274
823.13	25145
823.27	25202
823.41	25050
823.55	24916
823.69	25080
823.83	25000
823.97	24973
824.11	24768
824.25	24810
824.389	24844
824.529	24954
824.669	24859
824.809	25046
824.949	25023
825.089	24924
825.228	24909
825.368	24711
825.508	24783
825.648	24646
825.787	24661
825.927	24669
826.067	24635
826.206	24707
826.346	24844
826.485	24631
826.625	24684
826.765	24787
826.904	24760
827.044	24437
827.183	24452
827.323	24338
827.462	24441
827.601	24464
827.741	24357
827.88	24372
828.02	24254
828.159	24372
828.298	24338
828.437	24380
828.577	24342
828.716	24521
828.855	24285
828.994	24129
829.134	24136
829.273	24015
829.412	24144
829.551	24007
829.69	24072
829.829	24114
829.968	24235
830.107	24136
830.246	24011
830.385	23927
830.524	23973
830.663	23992
830.802	23737
830.941	23695
831.08	23748
831.219	23817
831.357	23817
831.496	23855
831.635	23672
831.774	23630
831.913	23703
832.051	23277
832.19	23539
832.329	23410
832.467	23410
832.606	23250
832.744	23391
832.883	23364
833.022	23307
833.16	23452
833.299	23414
833.437	23395
833.576	23459
833.714	23474
833.852	23497
833.991	23589
834.129	23543
834.267	23604
834.406	23379
834.544	23406
834.682	23379
834.821	23524
834.959	23653
835.097	23322
835.235	23554
835.373	23501
835.511	23387
835.65	23315
835.788	23311
835.926	23273
836.064	22987
836.202	23155
836.34	23208
836.478	23433
836.615	23341
836.753	23181
836.891	23349
837.029	23277
837.167	23155
837.305	23147
837.443	23159
837.58	23197
837.718	23239
837.856	23250
837.993	23067
838.131	23181
838.269	22919
838.406	23048
838.544	22930
838.681	22816
838.819	22710
838.956	22611
839.094	22691
839.231	22736
839.369	22858
839.506	23003
839.643	22858
839.781	22588
839.918	22546
840.055	22645
840.193	22634
840.33	22519
840.467	22519
840.604	22622
840.742	22767
840.879	22402
841.016	22500
841.153	22474
841.29	22801
841.427	22573
841.564	22592
841.701	22478
841.838	22451
841.975	22398
842.112	22409
842.249	22386
842.385	22455
842.522	22565
842.659	22413
842.796	22310
842.933	22310
843.069	22268
843.206	22276
843.343	22394
843.479	22333
843.616	22226
843.752	22097
843.889	22017
844.025	22196
844.162	21994
844.298	22154
844.435	22029
844.571	22082
844.708	22101
844.844	22200
844.98	22318
845.117	22120
845.253	21960
845.389	21892
845.525	21956
845.661	21861
845.798	21857
845.934	21838
846.07	21895
846.206	21922
846.342	21876
846.478	21922
846.614	21564
846.75	21557
846.886	21538
847.022	21614
847.158	21675
847.294	21477
847.429	21625
847.565	21507
847.701	21781
847.837	21348
847.972	21237
848.108	21424
848.244	21192
848.379	21062
848.515	21184
848.65	21028
848.786	21138
848.921	21127
849.057	21207
849.192	21169
849.328	21085
849.463	21188
849.598	21146
849.734	21112
849.869	20921
850.004	20883
850.14	20933
850.275	21036
850.41	20906
850.545	20762
850.68	20868
850.815	20941
850.95	20857
851.085	21074
851.22	21161
851.355	20876
851.49	20838
851.625	20960
851.76	20811
851.895	20849
852.03	20739
852.165	20765
852.299	20830
852.434	21001
852.569	20967
852.703	20796
852.838	20925
852.973	21093
853.107	21096
853.242	20876
853.376	20754
853.511	20697
853.645	20621
853.78	20876
853.914	20731
854.048	20678
854.183	20625
854.317	20750
854.451	20902
854.585	20648
854.72	20720
854.854	20834
854.988	20602
855.122	20739
855.256	20617
855.39	20735
855.524	20785
855.658	20705
855.792	20739
855.926	20792
856.06	20735
856.194	20906
856.327	20804
856.461	20598
856.595	20701
856.729	20708
856.862	20895
856.996	20773
857.13	20857
857.263	20781
857.397	20743
857.53	20769
857.664	20651
857.797	20849
857.931	20781
858.064	20826
858.197	20773
858.331	20712
858.464	20590
858.597	20625
858.731	20712
858.864	20739
858.997	20583
859.13	20826
859.263	20689
859.396	20697
859.529	20720
859.662	20739
859.795	20754
859.928	20678
860.061	20823
860.194	20918
860.327	20861
860.46	20739
860.592	20880
860.725	20876
860.858	20823
860.99	20762
861.123	20682
861.256	20583
861.388	20625
861.521	21218
861.653	20545
861.786	20560
861.918	20602
862.05	20575
862.183	20590
862.315	20670
862.447	20804
862.58	20773
862.712	20374
862.844	20465
862.976	20583
863.108	20518
863.24	20902
863.372	20415
863.504	20377
863.636	20427
863.768	20408
863.9	20374
864.032	20377
864.164	20511
864.296	20442
864.428	20617
864.559	20442
864.691	20480
864.823	20419
864.954	20377
865.086	20457
865.217	20324
865.349	20309
865.48	20290
865.612	20377
865.743	20488
865.875	20389
866.006	20313
866.137	20469
866.269	20404
866.4	20298
866.531	20286
866.662	20206
866.793	20233
866.924	20210
867.055	20336
867.186	20313
867.317	20210
867.448	20195
867.579	20233
867.71	20332
867.841	20210
867.972	20313
868.103	20259
868.233	20336
868.364	20214
868.495	20320
868.625	20488
868.756	20511
868.886	20351
869.017	20492
869.147	20712
869.278	20640
869.408	20568
869.539	20530
869.669	20708
869.799	20499
869.929	20609
870.06	20533
870.19	20724
870.32	20758
870.45	20891
870.58	20887
870.71	20941
870.84	21017
870.97	20857
871.1	20773
871.23	21135
871.36	21100
871.489	21135
871.619	21070
871.749	21222
871.879	21119
872.008	21226
872.138	21237
872.267	20979
872.397	20902
872.526	21017
872.656	21081
872.785	20902
872.915	21142
873.044	21138
873.173	21077
873.303	21112
873.432	21203
873.561	21195
873.69	21207
873.819	21112
873.948	21165
874.077	21123
874.206	21051
874.335	21241
874.464	21283
874.593	21313
874.722	21332
874.851	21408
874.979	21443
875.108	21500
875.237	21408
875.365	21260
875.494	21431
875.623	21488
875.751	21424
875.88	21408
876.008	21473
876.136	21625
876.265	21762
876.393	21918
876.521	21781
876.65	21975
876.778	21797
876.906	21732
877.034	21679
877.162	21800
877.29	21739
877.418	21880
877.546	21778
877.674	21819
877.802	21739
877.93	21690
878.058	21781
878.185	21667
878.313	21694
878.441	21793
878.568	21507
878.696	21580
878.824	21736
878.951	21850
879.079	21922
879.206	22048
879.333	21964
879.461	21759
879.588	21857
879.715	21793
879.842	21975
879.97	21804
880.097	21412
880.224	21603
880.351	21564
880.478	21610
880.605	21412
880.732	21599
880.859	21739
880.986	21686
881.112	21633
881.239	21523
881.366	21313
881.493	21283
881.619	21089
881.746	21188
881.872	21199
881.999	20990
882.125	21096
882.252	21173
882.378	21123
882.505	21211
882.631	21005
882.757	20880
882.883	20887
883.01	20872
883.136	20724
883.262	20792
883.388	20830
883.514	20788
883.64	20994
883.766	20667
883.892	20632
884.018	20739
884.143	20750
884.269	20998
884.395	20518
884.52	20495
884.646	20507
884.772	20533
884.897	20412
885.023	20484
885.148	20522
885.274	20667
885.399	20625
885.524	20469
885.65	20526
885.775	20377
885.9	20355
886.025	20659
886.15	20609
886.275	20400
886.4	20351
886.525	20461
886.65	20518
886.775	20488
886.9	20689
887.025	20636
887.149	20469
887.274	20267
887.399	20290
887.523	20225
887.648	20320
887.773	20050
887.897	20541
888.021	20298
888.146	20248
888.27	20286
888.395	20313
888.519	20237
888.643	20332
888.767	20180
888.891	20187
889.015	20073
889.139	20157
889.263	20058
889.387	20199
889.511	20282
889.635	20263
889.759	20005
889.883	20001
890.006	20115
890.13	20244
890.254	20122
890.377	19978
890.501	19753
890.624	19875
890.748	19955
890.871	19635
890.995	19635
891.118	19510
891.241	19738
891.364	19643
891.488	19818
891.611	19662
891.734	19575
891.857	19662
891.98	19731
892.103	19670
892.226	19712
892.349	19510
892.471	19377
892.594	19605
892.717	19651
892.839	19643
892.962	19590
893.085	19700
893.207	19586
893.33	19415
893.452	19491
893.575	19639
893.697	19605
893.819	19693
893.941	19738
894.064	19647
894.186	19521
894.308	19483
894.43	19677
894.552	19757
894.674	19635
894.796	19518
894.918	19594
895.04	19590
895.161	19723
895.283	19457
895.405	19533
895.526	19582
895.648	19575
895.769	19559
895.891	19639
896.012	19632
896.134	19700
896.255	19578
896.376	19559
896.498	19521
896.619	19609
896.74	19510
896.861	19674
896.982	19898
897.103	19993
897.224	19921
897.345	19883
897.466	19765
897.587	19856
897.708	19932
897.828	19807
897.949	19837
898.07	19704
898.19	19674
898.311	19963
898.431	19769
898.552	19822
898.672	19959
898.792	19830
898.913	19784
899.033	19628
899.153	19616
899.273	19476
899.393	19685
899.513	19544
899.633	19655
899.753	19552
899.873	19419
899.993	19590
900.113	19460
900.232	19628
900.352	19544
900.472	19331
900.591	19339
900.711	19396
900.83	19266
900.95	19472
901.069	19457
901.189	19217
901.308	19008
901.427	18924
901.546	18928
901.665	18989
901.784	18935
901.904	18897
902.023	18700
902.141	18612
902.26	18502
902.379	18544
902.498	18456
902.617	18445
902.735	18509
902.854	18506
902.973	18418
903.091	18254
903.21	18171
903.328	18159
903.446	18019
903.565	17866
903.683	17942
903.801	17821
903.919	17946
904.038	17832
904.156	17672
904.274	17855
904.392	17707
904.51	17672
904.627	17710
904.745	17783
904.863	17741
904.981	17558
905.098	17467
905.216	17368
905.334	17376
905.451	17242
905.569	17383
905.686	17463
905.803	17379
905.921	17185
906.038	17280
906.155	17337
906.272	17014
906.389	17117
906.506	17041
906.623	16938
906.74	16949
906.857	16892
906.974	16862
907.091	16915
907.208	16991
907.324	16900
907.441	16835
907.557	16725
907.674	16713
907.79	16542
907.907	16611
908.023	16691
908.139	16637
908.256	16649
908.372	16554
908.488	16516
908.604	16371
908.72	16333
908.836	16417
908.952	16375
909.068	16394
909.184	16519
909.3	16382
909.415	16443
909.531	16367
909.647	16169
909.762	16101
909.878	16051
909.993	16177
910.108	16010
910.224	16040
910.339	16051
910.454	15934
910.57	15918
910.685	15808
910.8	16051
910.915	16116
911.03	15899
911.145	15743
911.259	15701
911.374	15679
911.489	15614
911.604	15587
911.718	15473
911.833	15466
911.947	15348
912.062	15359
912.176	15435
912.291	15485
912.405	15485
912.519	15667
912.633	15797
912.748	15469
912.862	15393
912.976	15313
913.09	15138
913.204	15230
913.318	15249
913.431	15294
913.545	15287
913.659	15363
913.772	15291
913.886	15104
914	14960
914.113	15146
914.226	15161
914.34	15100
914.453	14921
914.566	15100
914.68	14944
914.793	14876
914.906	14750
915.019	14727
915.132	14678
915.245	14659
915.358	14689
915.47	14705
915.583	14689
915.696	14735
915.809	14701
915.921	14750
916.034	14682
916.146	14613
916.259	14594
916.371	14697
916.483	14571
916.595	14480
916.708	14617
916.82	14552
916.932	14526
917.044	14526
917.156	14427
917.268	14366
917.38	14317
917.491	14434
917.603	14385
917.715	14469
917.826	14492
917.938	14301
918.049	14221
918.161	14332
918.272	14488
918.384	14385
918.495	14343
918.606	14180
918.717	14100
918.828	14244
918.939	14161
919.05	14130
919.161	14164
919.272	13932
919.383	14005
919.494	14168
919.604	14400
919.715	14054
919.826	14001
919.936	14115
920.047	14221
920.157	14096
920.267	14305
920.378	14046
920.488	14096
920.598	14221
920.708	14423
920.818	14240
920.928	14244
921.038	14442
921.148	14385
921.258	14176
921.368	13974
921.477	13951
921.587	13955
921.697	13727
921.806	13913
921.916	13776
922.025	13624
922.134	13563
922.244	13571
922.353	13544
922.462	13339
922.571	13384
922.68	13285
922.789	13236
922.898	13183
923.007	13190
923.116	13129
923.224	13225
923.333	13175
923.442	12985
923.55	12996
923.659	12962
923.767	13031
923.876	13095
923.984	13034
924.092	12859
924.201	13027
924.309	12913
924.417	12848
924.525	12779
924.633	12935
924.741	13742
924.849	12783
924.956	12787
925.064	12597
925.172	12597
925.279	12669
925.387	12589
925.494	12631
925.602	12734
925.709	12669
925.816	12471
925.924	12608
926.031	12547
926.138	12601
926.245	12627
926.352	12498
926.459	12612
926.566	12631
926.673	12513
926.779	12407
926.886	12429
926.993	12304
927.099	12258
927.206	12159
927.312	12125
927.419	12224
927.525	12194
927.631	12251
927.737	12064
927.843	12117
927.95	11901
928.056	11965
928.162	12034
928.267	12072
928.373	12730
928.479	12072
928.585	11805
928.69	11980
928.796	12019
928.901	11901
929.007	11779
929.112	11958
929.218	11817
929.323	11859
929.428	11707
929.533	11809
929.638	11748
929.743	11741
929.848	11748
929.953	11680
930.058	11543
930.163	11414
930.267	11425
930.372	11573
930.477	11433
930.581	11661
930.685	11425
930.79	11410
930.894	11296
930.998	11391
931.103	11444
931.207	11128
931.311	10995
931.415	10869
931.519	10771
931.623	10736
