Data from test_V78500241_1757.txt Node
Date: Fri Mar 25 15:22:05 CST 2022
User: usil
Spectrometer: V785-0024
Trigger mode: 0
Integration Time (sec): 4.000000E-1
Scans to average: 1
Nonlinearity correction enabled: false
Boxcar width: 0
Storing dark spectrum: false
XAxis mode: Wavelengths
Number of Pixels in Spectrum: 1024
>>>>>Begin Spectral Data<<<<<
801.071	27861
801.214	27869
801.356	27648
801.499	27504
801.641	27408
801.783	27310
801.926	27405
802.068	27568
802.211	27329
802.353	27298
802.496	27074
802.638	26933
802.78	27112
802.923	26963
803.065	27100
803.208	27013
803.35	27028
803.492	27340
803.635	27359
803.777	27093
803.919	27454
804.061	27644
804.204	27340
804.346	27256
804.488	27089
804.63	27306
804.773	27241
804.915	27245
805.057	27332
805.199	27112
805.341	27367
805.483	27344
805.626	27454
805.768	27336
805.91	27507
806.052	27393
806.194	27211
806.336	27488
806.478	27481
806.62	27393
806.762	27466
806.904	27682
807.046	27838
807.188	27873
807.33	27903
807.472	27838
807.614	27804
807.756	27770
807.898	27819
808.04	27720
808.182	27709
808.324	27568
808.465	27953
808.607	27972
808.749	27945
808.891	28074
809.033	28204
809.174	27956
809.316	27991
809.458	27964
809.6	27960
809.741	28135
809.883	28226
810.025	28154
810.166	28310
810.308	28226
810.45	28204
810.591	28318
810.733	28093
810.875	27914
811.016	27857
811.158	28063
811.299	28322
811.441	28006
811.582	28055
811.724	28082
811.865	27964
812.007	28010
812.148	28074
812.29	28207
812.431	28093
812.573	28508
812.714	28455
812.855	28535
812.997	28691
813.138	28820
813.279	28645
813.421	28523
813.562	28436
813.703	28455
813.845	28211
813.986	28021
814.127	27728
814.268	27793
814.41	27899
814.551	27751
814.692	27720
814.833	27694
814.974	27876
815.115	27701
815.256	27523
815.397	27614
815.539	27618
815.68	27439
815.821	27462
815.962	27519
816.103	27477
816.244	27272
816.385	27245
816.526	27359
816.666	27150
816.807	26986
816.948	27176
817.089	27108
817.23	27047
817.371	27104
817.512	27089
817.653	26868
817.793	26819
817.934	26933
818.075	27020
818.216	27032
818.356	26914
818.497	26956
818.638	26777
818.778	26727
818.919	26697
819.06	26788
819.2	26929
819.341	27005
819.481	26925
819.622	27222
819.762	27420
819.903	27302
820.043	27226
820.184	27165
820.324	27055
820.465	27180
820.605	27237
820.746	27169
820.886	26986
821.026	27032
821.167	26990
821.307	27237
821.447	26937
821.588	26883
821.728	26902
821.868	26511
822.008	26362
822.149	26514
822.289	26579
822.429	26229
822.569	26191
822.709	26195
822.849	26016
822.99	25932
823.13	25913
823.27	25928
823.41	25814
823.55	25765
823.69	25898
823.83	25799
823.97	25666
824.11	25628
824.25	25457
824.389	25658
824.529	25765
824.669	25776
824.809	25772
824.949	25780
825.089	25734
825.228	25731
825.368	25605
825.508	25552
825.648	25624
825.787	25464
825.927	25552
826.067	25529
826.206	25510
826.346	25544
826.485	25510
826.625	25502
826.765	25670
826.904	25479
827.044	25350
827.183	25175
827.323	25251
827.462	25240
827.601	25274
827.741	25289
827.88	25335
828.02	25148
828.159	25263
828.298	25362
828.437	25335
828.577	25038
828.716	25225
828.855	25103
828.994	24981
829.134	25027
829.273	25038
829.412	24783
829.551	24848
829.69	25042
829.829	24939
829.968	24992
830.107	25008
830.246	25103
830.385	24939
830.524	24745
830.663	24795
830.802	24757
830.941	24582
831.08	24517
831.219	24612
831.357	24703
831.496	24787
831.635	24711
831.774	24464
831.913	24460
832.051	24410
832.19	24399
832.329	24422
832.467	24247
832.606	24220
832.744	24285
832.883	24285
833.022	24228
833.16	24292
833.299	24456
833.437	24445
833.576	24357
833.714	24285
833.852	24300
833.991	24228
834.129	24414
834.267	24346
834.406	24384
834.544	24410
834.682	24224
834.821	24304
834.959	24441
835.097	24220
835.235	24399
835.373	24323
835.511	24296
835.65	24296
835.788	24178
835.926	24049
836.064	23935
836.202	24030
836.34	24125
836.478	24273
836.615	24095
836.753	24110
836.891	24178
837.029	24026
837.167	24106
837.305	23824
837.443	23973
837.58	23992
837.718	24018
837.856	24076
837.993	23923
838.131	23927
838.269	23783
838.406	23912
838.544	23870
838.681	23653
838.819	23558
838.956	23493
839.094	23554
839.231	23471
839.369	23592
839.506	23828
839.643	23726
839.781	23474
839.918	23444
840.055	23444
840.193	23410
840.33	23353
840.467	23391
840.604	23261
840.742	23570
840.879	23261
841.016	23337
841.153	23208
841.29	23585
841.427	23391
841.564	23349
841.701	23501
841.838	23258
841.975	23239
842.112	23261
842.249	23189
842.385	23159
842.522	23330
842.659	23155
842.796	23083
842.933	23147
843.069	22968
843.206	22957
843.343	23231
843.479	23117
843.616	23162
843.752	23003
843.889	23033
844.025	23094
844.162	22892
844.298	23033
844.435	22904
844.571	22889
844.708	22991
844.844	23098
844.98	23086
845.117	23014
845.253	22904
845.389	22782
845.525	22831
845.661	22831
845.798	22580
845.934	22736
846.07	22550
846.206	22675
846.342	22603
846.478	22569
846.614	22386
846.75	22348
846.886	22367
847.022	22584
847.158	22440
847.294	22341
847.429	22375
847.565	22333
847.701	22550
847.837	22055
847.972	22181
848.108	22154
848.244	22246
848.379	22059
848.515	22010
848.65	21915
848.786	22070
848.921	21907
849.057	22036
849.192	22093
849.328	21869
849.463	21873
849.598	21983
849.734	21808
849.869	21671
850.004	21720
850.14	21778
850.275	21713
850.41	21728
850.545	21698
850.68	21736
850.815	21682
850.95	21785
851.085	21918
851.22	21865
851.355	21762
851.49	21717
851.625	21747
851.76	21785
851.895	21701
852.03	21599
852.165	21641
852.299	21823
852.434	21717
852.569	21812
852.703	21686
852.838	21785
852.973	21873
853.107	21755
853.242	21682
853.376	21488
853.511	21447
853.645	21519
853.78	21591
853.914	21599
854.048	21538
854.183	21564
854.317	21500
854.451	21774
854.585	21587
854.72	21454
854.854	21580
854.988	21481
855.122	21564
855.256	21389
855.39	21500
855.524	21610
855.658	21595
855.792	21450
855.926	21644
856.06	21648
856.194	21564
856.327	21553
856.461	21511
856.595	21515
856.729	21504
856.862	21675
856.996	21644
857.13	21568
857.263	21610
857.397	21637
857.53	21519
857.664	21587
857.797	21564
857.931	21656
858.064	21591
858.197	21679
858.331	21549
858.464	21435
858.597	21412
858.731	21507
858.864	21629
858.997	21488
859.13	21359
859.263	21603
859.396	21751
859.529	21466
859.662	21473
859.795	21496
859.928	21523
860.061	21587
860.194	21724
860.327	21762
860.46	21603
860.592	21648
860.725	21709
860.858	21739
860.99	21545
861.123	21416
861.256	21481
861.388	21690
861.521	22238
861.653	21466
861.786	21294
861.918	21351
862.05	21378
862.183	21412
862.315	21519
862.447	21538
862.58	21389
862.712	21279
862.844	21260
862.976	21294
863.108	21374
863.24	21736
863.372	21268
863.504	21348
863.636	21203
863.768	21245
863.9	21222
864.032	21222
864.164	21203
864.296	21222
864.428	21260
864.559	21291
864.691	21348
864.823	21211
864.954	21325
865.086	21199
865.217	21199
865.349	21104
865.48	21108
865.612	21165
865.743	21317
865.875	21222
866.006	21169
866.137	21150
866.269	21180
866.4	21116
866.531	21116
866.662	20994
866.793	21089
866.924	21123
867.055	21138
867.186	21043
867.317	21093
867.448	21013
867.579	21104
867.71	21066
867.841	21051
867.972	21093
868.103	21036
868.233	21150
868.364	21165
868.495	21233
868.625	21272
868.756	21496
868.886	21256
869.017	21211
869.147	21439
869.278	21454
869.408	21260
869.539	21275
869.669	21504
869.799	21355
869.929	21428
870.06	21405
870.19	21637
870.32	21720
870.45	21633
870.58	21637
870.71	21739
870.84	21762
870.97	21747
871.1	21728
871.23	21911
871.36	21892
871.489	21857
871.619	21873
871.749	21873
871.879	21850
872.008	22025
872.138	21945
872.267	21827
872.397	21728
872.526	21701
872.656	21850
872.785	21694
872.915	21793
873.044	22162
873.173	21968
873.303	22017
873.432	22032
873.561	21930
873.69	22029
873.819	21937
873.948	21979
874.077	22032
874.206	21850
874.335	21918
874.464	22025
874.593	22135
874.722	22162
874.851	22291
874.979	22135
875.108	22093
875.237	22090
875.365	22086
875.494	22025
875.623	22246
875.751	22101
875.88	22120
876.008	22325
876.136	22265
876.265	22649
876.393	22687
876.521	22679
876.65	22489
876.778	22584
876.906	22462
877.034	22565
877.162	22512
877.29	22474
877.418	22493
877.546	22508
877.674	22382
877.802	22500
877.93	22493
878.058	22421
878.185	22257
878.313	22470
878.441	22478
878.568	22348
878.696	22382
878.824	22653
878.951	22455
879.079	22577
879.206	22748
879.333	22634
879.461	22554
879.588	22649
879.715	22538
879.842	22687
879.97	22573
880.097	22291
880.224	22318
880.351	22344
880.478	22276
880.605	22299
880.732	22367
880.859	22702
880.986	22428
881.112	22390
881.239	22204
881.366	22093
881.493	21960
881.619	21953
881.746	21934
881.872	21835
881.999	21873
882.125	21846
882.252	21911
882.378	21907
882.505	22017
882.631	21686
882.757	21618
882.883	21622
883.01	21694
883.136	21545
883.262	21447
883.388	21473
883.514	21622
883.64	21603
883.766	21496
883.892	21317
884.018	21397
884.143	21488
884.269	21671
884.395	21310
884.52	21127
884.646	21222
884.772	21131
884.897	21192
885.023	21214
885.148	21386
885.274	21272
885.399	21291
885.524	21256
885.65	21154
885.775	21245
885.9	21230
886.025	21317
886.15	21154
886.275	21135
886.4	21173
886.525	21241
886.65	21146
886.775	21287
886.9	21332
887.025	21481
887.149	21195
887.274	21039
887.399	21074
887.523	20872
887.648	20914
887.773	20948
887.897	21112
888.021	21070
888.146	20872
888.27	21043
888.395	21203
888.519	21036
888.643	21058
888.767	21017
888.891	20864
889.015	20849
889.139	20872
889.263	20800
889.387	20895
889.511	21013
889.635	20971
889.759	20887
889.883	20864
890.006	20804
890.13	20826
890.254	20655
890.377	20853
890.501	20556
890.624	20461
890.748	20522
890.871	20587
890.995	20499
891.118	20339
891.241	20351
891.364	20343
891.488	20408
891.611	20465
891.734	20446
891.857	20412
891.98	20355
892.103	20461
892.226	20404
892.349	20396
892.471	20183
892.594	20332
892.717	20305
892.839	20214
892.962	20210
893.085	20225
893.207	20290
893.33	20176
893.452	20214
893.575	20343
893.697	20202
893.819	20381
893.941	20351
894.064	20442
894.186	20183
894.308	20138
894.43	20366
894.552	20461
894.674	20393
894.796	20225
894.918	20298
895.04	20221
895.161	20377
895.283	20355
895.405	20130
895.526	20290
895.648	20218
895.769	20263
895.891	20332
896.012	20355
896.134	20233
896.255	20256
896.376	20202
896.498	20263
896.619	20286
896.74	20240
896.861	20183
896.982	20537
897.103	20705
897.224	20568
897.345	20393
897.466	20400
897.587	20454
897.708	20590
897.828	20507
897.949	20431
898.07	20400
898.19	20415
898.311	20530
898.431	20473
898.552	20495
898.672	20537
898.792	20526
898.913	20450
899.033	20320
899.153	20240
899.273	20130
899.393	20233
899.513	20263
899.633	20233
899.753	20168
899.873	20176
899.993	20221
900.113	20073
900.232	20142
900.352	19978
900.472	20073
900.591	19921
900.711	20031
900.83	19894
900.95	20046
901.069	20130
901.189	19837
901.308	19616
901.427	19552
901.546	19628
901.665	19628
901.784	19578
901.904	19422
902.023	19312
902.141	19164
902.26	19061
902.379	19221
902.498	19080
902.617	18932
902.735	19072
902.854	19065
902.973	19004
903.091	18848
903.21	18696
903.328	18802
903.446	18661
903.565	18551
903.683	18566
903.801	18376
903.919	18536
904.038	18384
904.156	18266
904.274	18308
904.392	18311
904.51	18289
904.627	18308
904.745	18334
904.863	18369
904.981	18148
905.098	17999
905.216	17980
905.334	17939
905.451	17958
905.569	17999
905.686	18011
905.803	18034
905.921	17767
906.038	17878
906.155	17874
906.272	17695
906.389	17596
906.506	17490
906.623	17554
906.74	17528
906.857	17459
906.974	17387
907.091	17543
907.208	17707
907.324	17558
907.441	17379
907.557	17273
907.674	17220
907.79	17170
907.907	17185
908.023	17284
908.139	17299
908.256	17178
908.372	17178
908.488	17045
908.604	16999
908.72	16995
908.836	17018
908.952	16930
909.068	16900
909.184	17075
909.3	16934
909.415	17029
909.531	16995
909.647	16691
909.762	16664
909.878	16649
909.993	16694
910.108	16675
910.224	16561
910.339	16675
910.454	16580
910.57	16542
910.685	16371
910.8	16641
910.915	16607
911.03	16470
911.145	16265
911.259	16318
911.374	16284
911.489	16185
911.604	16124
911.718	16021
911.833	15968
911.947	15903
912.062	15876
912.176	16006
912.291	15979
912.405	15918
912.519	16219
912.633	16162
912.748	16082
912.862	16013
912.976	15766
913.09	15751
913.204	15766
913.318	15831
913.431	15922
913.545	15823
913.659	15861
913.772	15622
913.886	15629
914	15595
914.113	15637
914.226	15709
914.34	15682
914.453	15530
914.566	15686
914.68	15610
914.793	15355
914.906	15321
915.019	15199
915.132	15077
915.245	15157
915.358	15268
915.47	15218
915.583	15176
915.696	15192
915.809	15275
915.921	15329
916.034	15161
916.146	15112
916.259	15104
916.371	15214
916.483	15169
916.595	15184
916.708	15039
916.82	14990
916.932	14944
917.044	14933
917.156	14948
917.268	14891
917.38	14918
917.491	14777
917.603	14838
917.715	14906
917.826	14963
917.938	14762
918.049	14720
918.161	14819
918.272	14918
918.384	14887
918.495	14739
918.606	14659
918.717	14530
918.828	14689
918.939	14651
919.05	14552
919.161	14541
919.272	14442
919.383	14450
919.494	14632
919.604	14796
919.715	14594
919.826	14495
919.936	14469
920.047	14617
920.157	14522
920.267	14781
920.378	14610
920.488	14465
920.598	14746
920.708	14899
920.818	14712
920.928	14777
921.038	14891
921.148	14819
921.258	14480
921.368	14476
921.477	14347
921.587	14244
921.697	14100
921.806	14355
921.916	14252
922.025	13925
922.134	14046
922.244	13830
922.353	13970
922.462	13826
922.571	13769
922.68	13613
922.789	13571
922.898	13571
923.007	13601
923.116	13689
923.224	13594
923.333	13590
923.442	13415
923.55	13392
923.659	13438
923.767	13544
923.876	13354
923.984	13499
924.092	13384
924.201	13320
924.309	13320
924.417	13308
924.525	13213
924.633	13278
924.741	14001
924.849	13053
924.956	13240
925.064	13145
925.172	12973
925.279	13004
925.387	13050
925.494	12958
925.602	13156
925.709	13084
925.816	12913
925.924	12928
926.031	13050
926.138	12973
926.245	12977
926.352	12886
926.459	13023
926.566	13012
926.673	12875
926.779	12810
926.886	12726
926.993	12627
927.099	12722
927.206	12551
927.312	12479
927.419	12608
927.525	12551
927.631	12593
927.737	12467
927.843	12433
927.95	12315
928.056	12311
928.162	12399
928.267	12414
928.373	12996
928.479	12448
928.585	12277
928.69	12334
928.796	12403
928.901	12258
929.007	12072
929.112	12201
929.218	12209
929.323	12148
929.428	12144
929.533	12186
929.638	12049
929.743	12095
929.848	12182
929.953	12022
930.058	11969
930.163	11745
930.267	11859
930.372	11961
930.477	11745
930.581	12007
930.685	11805
930.79	11688
930.894	11684
930.998	11760
931.103	11805
931.207	11402
931.311	11303
931.415	11303
931.519	11067
931.623	11048
