Data from test_V78500241_1334.txt Node
Date: Fri Mar 25 15:19:08 CST 2022
User: usil
Spectrometer: V785-0024
Trigger mode: 0
Integration Time (sec): 4.000000E-1
Scans to average: 1
Nonlinearity correction enabled: false
Boxcar width: 0
Storing dark spectrum: false
XAxis mode: Wavelengths
Number of Pixels in Spectrum: 1024
>>>>>Begin Spectral Data<<<<<
801.071	28048
801.214	28029
801.356	27583
801.499	27530
801.641	27405
801.783	27363
801.926	27644
802.068	27458
802.211	27386
802.353	27348
802.496	27150
802.638	27211
802.78	27058
802.923	27104
803.065	27024
803.208	27108
803.35	27017
803.492	27249
803.635	27313
803.777	27184
803.919	27378
804.061	27648
804.204	27367
804.346	27241
804.488	27184
804.63	27344
804.773	27211
804.915	27462
805.057	27530
805.199	27378
805.341	27515
805.483	27564
805.626	27511
805.768	27374
805.91	27530
806.052	27557
806.194	27454
806.336	27720
806.478	27553
806.62	27553
806.762	27572
806.904	27736
807.046	28044
807.188	27880
807.33	27930
807.472	27922
807.614	27854
807.756	27941
807.898	27751
808.04	27762
808.182	27641
808.324	27781
808.465	27827
808.607	28093
808.749	28223
808.891	28181
809.033	28306
809.174	28150
809.316	28276
809.458	27994
809.6	28097
809.741	28223
809.883	28253
810.025	28363
810.166	28478
810.308	28440
810.45	28401
810.591	28344
810.733	28219
810.875	28116
811.016	28051
811.158	27994
811.299	28196
811.441	28303
811.582	28303
811.724	28135
811.865	28093
812.007	28192
812.148	28055
812.29	28173
812.431	28249
812.573	28516
812.714	28550
812.855	28542
812.997	28831
813.138	28850
813.279	28710
813.421	28630
813.562	28672
813.703	28497
813.845	28382
813.986	28177
814.127	28025
814.268	27873
814.41	27797
814.551	27922
814.692	27888
814.833	27861
814.974	27892
815.115	27918
815.256	27709
815.397	27724
815.539	27660
815.68	27717
815.821	27496
815.962	27549
816.103	27671
816.244	27545
816.385	27389
816.526	27427
816.666	27283
816.807	27104
816.948	27237
817.089	27306
817.23	27127
817.371	27119
817.512	27112
817.653	27192
817.793	27146
817.934	27100
818.075	27192
818.216	27077
818.356	27138
818.497	27020
818.638	26895
818.778	26933
818.919	26914
819.06	27017
819.2	27116
819.341	27138
819.481	27100
819.622	27279
819.762	27469
819.903	27359
820.043	27317
820.184	27355
820.324	27245
820.465	27321
820.605	27131
820.746	27055
820.886	27233
821.026	27268
821.167	27279
821.307	27351
821.447	27226
821.588	27119
821.728	26925
821.868	26762
822.008	26606
822.149	26693
822.289	26651
822.429	26256
822.569	26339
822.709	26328
822.849	26210
822.99	26214
823.13	26054
823.27	26081
823.41	25978
823.55	25826
823.69	25997
823.83	25951
823.97	25917
824.11	25643
824.25	25738
824.389	25674
824.529	25955
824.669	25772
824.809	25993
824.949	25864
825.089	26031
825.228	25807
825.368	25624
825.508	25540
825.648	25715
825.787	25658
825.927	25670
826.067	25632
826.206	25696
826.346	25616
826.485	25693
826.625	25590
826.765	25731
826.904	25712
827.044	25316
827.183	25377
827.323	25316
827.462	25407
827.601	25304
827.741	25263
827.88	25430
828.02	25247
828.159	25354
828.298	25327
828.437	25365
828.577	25232
828.716	25438
828.855	25324
828.994	25137
829.134	25072
829.273	25034
829.412	25091
829.551	25042
829.69	25061
829.829	25069
829.968	25217
830.107	25095
830.246	25114
830.385	24981
830.524	24916
830.663	24852
830.802	24776
830.941	24544
831.08	24635
831.219	24749
831.357	24703
831.496	24913
831.635	24608
831.774	24502
831.913	24486
832.051	24642
832.19	24414
832.329	24372
832.467	24327
832.606	24281
832.744	24323
832.883	24338
833.022	24292
833.16	24334
833.299	24407
833.437	24342
833.576	24407
833.714	24407
833.852	24422
833.991	24452
834.129	24475
834.267	24433
834.406	24494
834.544	24384
834.682	24445
834.821	24448
834.959	24452
835.097	24270
835.235	24407
835.373	24338
835.511	24441
835.65	24235
835.788	24266
835.926	24213
836.064	24015
836.202	23939
836.34	24205
836.478	24262
836.615	24243
836.753	24266
836.891	24296
837.029	24243
837.167	24186
837.305	24072
837.443	24053
837.58	24106
837.718	24232
837.856	24083
837.993	23954
838.131	24003
838.269	23908
838.406	23942
838.544	23817
838.681	23623
838.819	23775
838.956	23486
839.094	23608
839.231	23623
839.369	23756
839.506	24091
839.643	23714
839.781	23524
839.918	23406
840.055	23638
840.193	23551
840.33	23417
840.467	23524
840.604	23368
840.742	23703
840.879	23364
841.016	23349
841.153	23204
841.29	23627
841.427	23303
841.564	23528
841.701	23463
841.838	23337
841.975	23166
842.112	23471
842.249	23296
842.385	23223
842.522	23395
842.659	23204
842.796	23174
842.933	23265
843.069	23174
843.206	23277
843.343	23250
843.479	23147
843.616	23387
843.752	22869
843.889	23056
844.025	23235
844.162	22980
844.298	23018
844.435	23105
844.571	23056
844.708	23048
844.844	23117
844.98	23159
845.117	22980
845.253	22915
845.389	22691
845.525	22923
845.661	22782
845.798	22710
845.934	22763
846.07	22656
846.206	22668
846.342	22854
846.478	22588
846.614	22599
846.75	22356
846.886	22447
847.022	22622
847.158	22367
847.294	22402
847.429	22489
847.565	22451
847.701	22611
847.837	22249
847.972	22219
848.108	22306
848.244	22284
848.379	22131
848.515	22093
848.65	22093
848.786	21956
848.921	22048
849.057	22154
849.192	22154
849.328	22131
849.463	22067
849.598	22002
849.734	21884
849.869	21915
850.004	21804
850.14	21892
850.275	21842
850.41	21850
850.545	21774
850.68	21720
850.815	21816
850.95	21812
851.085	21998
851.22	21766
851.355	21831
851.49	21728
851.625	21713
851.76	21846
851.895	21732
852.03	21774
852.165	21800
852.299	21880
852.434	21804
852.569	21884
852.703	21785
852.838	21876
852.973	21880
853.107	21937
853.242	21625
853.376	21637
853.511	21580
853.645	21595
853.78	21808
853.914	21614
854.048	21572
854.183	21564
854.317	21713
854.451	21732
854.585	21591
854.72	21530
854.854	21583
854.988	21553
855.122	21538
855.256	21610
855.39	21614
855.524	21641
855.658	21644
855.792	21648
855.926	21698
856.06	21660
856.194	21800
856.327	21603
856.461	21553
856.595	21629
856.729	21663
856.862	21717
856.996	21648
857.13	21682
857.263	21698
857.397	21648
857.53	21679
857.664	21709
857.797	21682
857.931	21861
858.064	21572
858.197	21747
858.331	21576
858.464	21580
858.597	21534
858.731	21568
858.864	21580
858.997	21675
859.13	21667
859.263	21591
859.396	21603
859.529	21603
859.662	21496
859.795	21606
859.928	21504
860.061	21675
860.194	21717
860.327	21625
860.46	21568
860.592	21816
860.725	21713
860.858	21739
860.99	21542
861.123	21561
861.256	21618
861.388	21553
861.521	22257
861.653	21359
861.786	21378
861.918	21355
862.05	21530
862.183	21466
862.315	21450
862.447	21599
862.58	21500
862.712	21363
862.844	21344
862.976	21458
863.108	21378
863.24	21686
863.372	21207
863.504	21348
863.636	21294
863.768	21420
863.9	21412
864.032	21374
864.164	21214
864.296	21420
864.428	21359
864.559	21321
864.691	21412
864.823	21241
864.954	21332
865.086	21332
865.217	21245
865.349	21108
865.48	21237
865.612	21260
865.743	21344
865.875	21241
866.006	21218
866.137	21283
866.269	21325
866.4	21214
866.531	21043
866.662	21043
866.793	21036
866.924	21176
867.055	21165
867.186	21104
867.317	21138
867.448	21013
867.579	21154
867.71	20982
867.841	21001
867.972	21157
868.103	21077
868.233	21055
868.364	21233
868.495	21214
868.625	21397
868.756	21416
868.886	21435
869.017	21230
869.147	21393
869.278	21515
869.408	21351
869.539	21359
869.669	21408
869.799	21374
869.929	21553
870.06	21572
870.19	21644
870.32	21648
870.45	21682
870.58	21736
870.71	21857
870.84	21915
870.97	21857
871.1	21701
871.23	21956
871.36	22010
871.489	21880
871.619	21747
871.749	22059
871.879	21964
872.008	22032
872.138	22067
872.267	21994
872.397	21926
872.526	21751
872.656	21732
872.785	21736
872.915	21869
873.044	22032
873.173	22074
873.303	21934
873.432	21968
873.561	22051
873.69	22032
873.819	21922
873.948	22154
874.077	21987
874.206	21842
874.335	22059
874.464	22017
874.593	22261
874.722	22230
874.851	22287
874.979	22169
875.108	22322
875.237	22215
875.365	22082
875.494	22200
875.623	22131
875.751	22287
875.88	22200
876.008	22363
876.136	22375
876.265	22592
876.393	22653
876.521	22672
876.65	22672
876.778	22538
876.906	22637
877.034	22462
877.162	22577
877.29	22546
877.418	22561
877.546	22569
877.674	22500
877.802	22535
877.93	22538
878.058	22424
878.185	22348
878.313	22596
878.441	22493
878.568	22421
878.696	22428
878.824	22637
878.951	22660
879.079	22694
879.206	22908
879.333	22755
879.461	22588
879.588	22645
879.715	22706
879.842	22744
879.97	22519
880.097	22367
880.224	22398
880.351	22546
880.478	22325
880.605	22310
880.732	22386
880.859	22592
880.986	22375
881.112	22333
881.239	22196
881.366	22181
881.493	22093
881.619	21975
881.746	21934
881.872	21934
881.999	22059
882.125	21766
882.252	22021
882.378	22036
882.505	22059
882.631	21850
882.757	21739
882.883	21679
883.01	21808
883.136	21694
883.262	21359
883.388	21500
883.514	21637
883.64	21724
883.766	21488
883.892	21481
884.018	21477
884.143	21561
884.269	21637
884.395	21378
884.52	21180
884.646	21291
884.772	21348
884.897	21241
885.023	21256
885.148	21363
885.274	21443
885.399	21317
885.524	21291
885.65	21325
885.775	21302
885.9	21302
886.025	21336
886.15	21310
886.275	21142
886.4	21218
886.525	21279
886.65	21077
886.775	21173
886.9	21332
887.025	21431
887.149	21157
887.274	21104
887.399	20986
887.523	21131
887.648	20899
887.773	20963
887.897	21077
888.021	21138
888.146	21017
888.27	21070
888.395	21184
888.519	21154
888.643	20944
888.767	21142
888.891	21058
889.015	20925
889.139	20902
889.263	20937
889.387	20914
889.511	20986
889.635	21013
889.759	20849
889.883	20849
890.006	20891
890.13	20963
890.254	20933
890.377	20800
890.501	20609
890.624	20724
890.748	20621
890.871	20606
890.995	20450
891.118	20465
891.241	20537
891.364	20446
891.488	20533
891.611	20305
891.734	20347
891.857	20473
891.98	20434
892.103	20438
892.226	20393
892.349	20362
892.471	20229
892.594	20457
892.717	20366
892.839	20229
892.962	20347
893.085	20434
893.207	20267
893.33	20275
893.452	20130
893.575	20457
893.697	20336
893.819	20488
893.941	20431
894.064	20457
894.186	20225
894.308	20199
894.43	20377
894.552	20526
894.674	20358
894.796	20221
894.918	20328
895.04	20332
895.161	20412
895.283	20313
895.405	20161
895.526	20237
895.648	20191
895.769	20248
895.891	20301
896.012	20332
896.134	20324
896.255	20244
896.376	20202
896.498	20339
896.619	20476
896.74	20355
896.861	20282
896.982	20552
897.103	20663
897.224	20583
897.345	20476
897.466	20480
897.587	20442
897.708	20587
897.828	20511
897.949	20434
898.07	20240
898.19	20385
898.311	20609
898.431	20530
898.552	20438
898.672	20545
898.792	20530
898.913	20442
899.033	20450
899.153	20309
899.273	20259
899.393	20355
899.513	20332
899.633	20240
899.753	20263
899.873	20244
899.993	20259
900.113	20286
900.232	20237
900.352	20157
900.472	20081
900.591	20031
900.711	20062
900.83	19959
900.95	20073
901.069	20092
901.189	19845
901.308	19765
901.427	19578
901.546	19594
901.665	19651
901.784	19620
901.904	19480
902.023	19460
902.141	19274
902.26	19171
902.379	19198
902.498	19110
902.617	19194
902.735	19206
902.854	19042
902.973	18985
903.091	18726
903.21	18844
903.328	18726
903.446	18696
903.565	18536
903.683	18654
903.801	18410
903.919	18589
904.038	18623
904.156	18452
904.274	18365
904.392	18384
904.51	18407
904.627	18410
904.745	18342
904.863	18304
904.981	18155
905.098	18060
905.216	18026
905.334	18079
905.451	18076
905.569	17988
905.686	18213
905.803	18041
905.921	17840
906.038	17870
906.155	17752
906.272	17665
906.389	17718
906.506	17554
906.623	17592
906.74	17566
906.857	17467
906.974	17425
907.091	17699
907.208	17570
907.324	17581
907.441	17478
907.557	17349
907.674	17246
907.79	17204
907.907	17299
908.023	17318
908.139	17258
908.256	17178
908.372	17303
908.488	17170
908.604	17033
908.72	17029
908.836	17052
908.952	16965
909.068	17170
909.184	17235
909.3	16961
909.415	16980
909.531	16987
909.647	16820
909.762	16668
909.878	16634
909.993	16725
910.108	16744
910.224	16618
910.339	16679
910.454	16508
910.57	16584
910.685	16424
910.8	16782
910.915	16611
911.03	16531
911.145	16299
911.259	16306
911.374	16363
911.489	16306
911.604	16249
911.718	16105
911.833	15979
911.947	15907
912.062	15873
912.176	16002
912.291	16025
912.405	15994
912.519	16242
912.633	16150
912.748	16105
912.862	16006
912.976	15816
913.09	15785
913.204	15857
913.318	15854
913.431	15975
913.545	15949
913.659	15983
913.772	15766
913.886	15762
914	15584
914.113	15663
914.226	15717
914.34	15728
914.453	15526
914.566	15568
914.68	15420
914.793	15462
914.906	15249
915.019	15272
915.132	15230
915.245	15214
915.358	15264
915.47	15287
915.583	15241
915.696	15218
915.809	15378
915.921	15348
916.034	15161
916.146	15173
916.259	15081
916.371	15245
916.483	15169
916.595	15104
916.708	15081
916.82	15112
916.932	15047
917.044	15100
917.156	15062
917.268	14948
917.38	14872
917.491	14906
917.603	14944
917.715	14921
917.826	14921
917.938	14868
918.049	14765
918.161	14876
918.272	14952
918.384	15066
918.495	14861
918.606	14804
918.717	14590
918.828	14788
918.939	14693
919.05	14522
919.161	14678
919.272	14431
919.383	14587
919.494	14655
919.604	14895
919.715	14731
919.826	14511
919.936	14686
920.047	14712
920.157	14625
920.267	14853
920.378	14651
920.488	14549
920.598	14834
920.708	14895
920.818	14777
920.928	14708
921.038	14933
921.148	14933
921.258	14507
921.368	14434
921.477	14434
921.587	14286
921.697	14172
921.806	14320
921.916	14164
922.025	14084
922.134	13993
922.244	14043
922.353	14100
922.462	13913
922.571	13799
922.68	13647
922.789	13563
922.898	13620
923.007	13556
923.116	13727
923.224	13624
923.333	13578
923.442	13506
923.55	13449
923.659	13483
923.767	13586
923.876	13419
923.984	13441
924.092	13426
924.201	13316
924.309	13384
924.417	13331
924.525	13358
924.633	13168
924.741	14164
924.849	13038
924.956	13228
925.064	13088
925.172	13095
925.279	12966
925.387	13122
925.494	13095
925.602	13221
925.709	12989
925.816	12954
925.924	12958
926.031	13084
926.138	12977
926.245	12977
926.352	12867
926.459	12989
926.566	13042
926.673	12798
926.779	12871
926.886	12802
926.993	12635
927.099	12585
927.206	12578
927.312	12521
927.419	12620
927.525	12509
927.631	12707
927.737	12486
927.843	12418
927.95	12365
928.056	12471
928.162	12384
928.267	12528
928.373	13156
928.479	12479
928.585	12300
928.69	12407
928.796	12353
928.901	12300
929.007	12171
929.112	12304
929.218	12270
929.323	12144
929.428	12148
929.533	12247
929.638	11996
929.743	12064
929.848	12175
929.953	12106
930.058	11935
930.163	11901
930.267	11843
930.372	11973
930.477	11798
930.581	12022
930.685	11897
930.79	11688
930.894	11745
930.998	11695
931.103	11794
931.207	11471
931.311	11368
931.415	11337
931.519	11121
931.623	11166
