Data from test_V78500241_2101.txt Node
Date: Fri Mar 25 15:24:29 CST 2022
User: usil
Spectrometer: V785-0024
Trigger mode: 0
Integration Time (sec): 4.000000E-1
Scans to average: 1
Nonlinearity correction enabled: false
Boxcar width: 0
Storing dark spectrum: false
XAxis mode: Wavelengths
Number of Pixels in Spectrum: 1024
>>>>>Begin Spectral Data<<<<<
801.071	27899
801.214	27895
801.356	27580
801.499	27561
801.641	27294
801.783	27325
801.926	27458
802.068	27500
802.211	27450
802.353	27218
802.496	27184
802.638	27203
802.78	27036
802.923	26990
803.065	26990
803.208	27047
803.35	27005
803.492	27154
803.635	27283
803.777	27173
803.919	27306
804.061	27587
804.204	27310
804.346	27382
804.488	27260
804.63	27264
804.773	27264
804.915	27184
805.057	27249
805.199	27154
805.341	27287
805.483	27370
805.626	27355
805.768	27317
805.91	27408
806.052	27485
806.194	27416
806.336	27545
806.478	27363
806.62	27336
806.762	27637
806.904	27648
807.046	27812
807.188	27922
807.33	27949
807.472	27785
807.614	27838
807.756	27720
807.898	27701
808.04	27660
808.182	27656
808.324	27804
808.465	27717
808.607	27941
808.749	28051
808.891	28162
809.033	28306
809.174	28074
809.316	28059
809.458	27949
809.6	27991
809.741	28143
809.883	28242
810.025	28253
810.166	28215
810.308	28424
810.45	28295
810.591	28280
810.733	28124
810.875	27975
811.016	27838
811.158	27945
811.299	28139
811.441	28162
811.582	28181
811.724	27979
811.865	27945
812.007	28025
812.148	28116
812.29	28067
812.431	28105
812.573	28371
812.714	28500
812.855	28519
812.997	28577
813.138	28771
813.279	28615
813.421	28413
813.562	28580
813.703	28337
813.845	28135
813.986	28036
814.127	27816
814.268	27667
814.41	27762
814.551	27675
814.692	27606
814.833	27705
814.974	27728
815.115	27717
815.256	27511
815.397	27583
815.539	27435
815.68	27549
815.821	27519
815.962	27469
816.103	27477
816.244	27504
816.385	27233
816.526	27302
816.666	27039
816.807	26971
816.948	26952
817.089	27108
817.23	27028
817.371	26902
817.512	27081
817.653	27081
817.793	26899
817.934	27005
818.075	27001
818.216	26895
818.356	26952
818.497	26857
818.638	26807
818.778	26701
818.919	26769
819.06	26864
819.2	26853
819.341	26990
819.481	26937
819.622	27081
819.762	27302
819.903	27211
820.043	27302
820.184	27184
820.324	27116
820.465	27039
820.605	27047
820.746	26994
820.886	26986
821.026	27081
821.167	26925
821.307	27199
821.447	27020
821.588	27039
821.728	26765
821.868	26575
822.008	26473
822.149	26514
822.289	26465
822.429	26271
822.569	26138
822.709	26050
822.849	25978
822.99	26130
823.13	26054
823.27	25913
823.41	26050
823.55	25662
823.69	25582
823.83	25681
823.97	25833
824.11	25464
824.25	25529
824.389	25537
824.529	25670
824.669	25563
824.809	25693
824.949	25601
825.089	25540
825.228	25647
825.368	25514
825.508	25430
825.648	25529
825.787	25537
825.927	25578
826.067	25373
826.206	25407
826.346	25426
826.485	25559
826.625	25362
826.765	25563
826.904	25510
827.044	25114
827.183	25194
827.323	25152
827.462	25270
827.601	25285
827.741	25194
827.88	25126
828.02	25080
828.159	25164
828.298	25206
828.437	25198
828.577	25156
828.716	25270
828.855	25107
828.994	24958
829.134	24920
829.273	24989
829.412	24871
829.551	24814
829.69	24738
829.829	25042
829.968	24852
830.107	24856
830.246	24905
830.385	24909
830.524	24905
830.663	24665
830.802	24604
830.941	24509
831.08	24361
831.219	24589
831.357	24540
831.496	24753
831.635	24521
831.774	24296
831.913	24285
832.051	24235
832.19	24266
832.329	24197
832.467	24148
832.606	24251
832.744	24174
832.883	24197
833.022	24110
833.16	24030
833.299	24388
833.437	24289
833.576	24216
833.714	24251
833.852	24266
833.991	24232
834.129	24102
834.267	24243
834.406	24273
834.544	24216
834.682	24213
834.821	24201
834.959	24494
835.097	24220
835.235	24247
835.373	24251
835.511	24106
835.65	24129
835.788	24072
835.926	23942
836.064	23950
836.202	23904
836.34	24076
836.478	24178
836.615	23950
836.753	24098
836.891	24060
837.029	24049
837.167	23939
837.305	24117
837.443	23912
837.58	23847
837.718	24022
837.856	23904
837.993	23771
838.131	23779
838.269	23821
838.406	23805
838.544	23638
838.681	23570
838.819	23459
838.956	23391
839.094	23387
839.231	23467
839.369	23387
839.506	23802
839.643	23566
839.781	23387
839.918	23299
840.055	23395
840.193	23391
840.33	23292
840.467	23387
840.604	23315
840.742	23505
840.879	23113
841.016	23246
841.153	23155
841.29	23341
841.427	23216
841.564	23429
841.701	23284
841.838	23140
841.975	23227
842.112	23147
842.249	23022
842.385	23018
842.522	23155
842.659	23143
842.796	22938
842.933	22995
843.069	23018
843.206	23010
843.343	23094
843.479	23033
843.616	23064
843.752	22889
843.889	22858
844.025	22957
844.162	22721
844.298	22729
844.435	22900
844.571	22630
844.708	22797
844.844	22911
844.98	22927
845.117	22847
845.253	22713
845.389	22782
845.525	22645
845.661	22603
845.798	22493
845.934	22580
846.07	22485
846.206	22557
846.342	22599
846.478	22603
846.614	22371
846.75	22280
846.886	22272
847.022	22447
847.158	22291
847.294	22177
847.429	22348
847.565	22215
847.701	22462
847.837	22017
847.972	21968
848.108	22162
848.244	21945
848.379	21945
848.515	21812
848.65	21797
848.786	21827
848.921	21823
849.057	21956
849.192	21850
849.328	21934
849.463	21911
849.598	21831
849.734	21679
849.869	21660
850.004	21583
850.14	21614
850.275	21610
850.41	21576
850.545	21610
850.68	21564
850.815	21648
850.95	21652
851.085	21823
851.22	21682
851.355	21667
851.49	21641
851.625	21526
851.76	21507
851.895	21405
852.03	21504
852.165	21679
852.299	21644
852.434	21709
852.569	21766
852.703	21709
852.838	21694
852.973	21736
853.107	21739
853.242	21587
853.376	21561
853.511	21313
853.645	21443
853.78	21458
853.914	21382
854.048	21408
854.183	21321
854.317	21416
854.451	21591
854.585	21488
854.72	21378
854.854	21439
854.988	21382
855.122	21416
855.256	21374
855.39	21302
855.524	21317
855.658	21549
855.792	21450
855.926	21469
856.06	21431
856.194	21595
856.327	21260
856.461	21283
856.595	21389
856.729	21408
856.862	21458
856.996	21420
857.13	21515
857.263	21618
857.397	21564
857.53	21454
857.664	21458
857.797	21458
857.931	21534
858.064	21466
858.197	21492
858.331	21458
858.464	21340
858.597	21351
858.731	21511
858.864	21412
858.997	21329
859.13	21428
859.263	21401
859.396	21622
859.529	21374
859.662	21462
859.795	21416
859.928	21382
860.061	21561
860.194	21732
860.327	21382
860.46	21374
860.592	21496
860.725	21572
860.858	21523
860.99	21466
861.123	21370
861.256	21382
861.388	21458
861.521	22051
861.653	21344
861.786	21222
861.918	21222
862.05	21336
862.183	21428
862.315	21351
862.447	21374
862.58	21306
862.712	21173
862.844	21116
862.976	21161
863.108	21237
863.24	21485
863.372	21104
863.504	21184
863.636	21051
863.768	21154
863.9	21093
864.032	21104
864.164	21062
864.296	21142
864.428	21272
864.559	21222
864.691	21207
864.823	21135
864.954	21074
865.086	21077
865.217	21085
865.349	20910
865.48	21051
865.612	20933
865.743	21116
865.875	21089
866.006	20937
866.137	21028
866.269	20967
866.4	21020
866.531	20937
866.662	20921
866.793	20937
866.924	20979
867.055	20982
867.186	20929
867.317	21005
867.448	20735
867.579	20823
867.71	20864
867.841	20880
867.972	20941
868.103	20952
868.233	21062
868.364	21032
868.495	21142
868.625	21173
868.756	21321
868.886	21017
869.017	21230
869.147	21287
869.278	21180
869.408	21176
869.539	21188
869.669	21317
869.799	21237
869.929	21230
870.06	21283
870.19	21549
870.32	21485
870.45	21454
870.58	21633
870.71	21637
870.84	21599
870.97	21561
871.1	21538
871.23	21762
871.36	21785
871.489	21736
871.619	21770
871.749	21781
871.879	21778
872.008	22078
872.138	21816
872.267	21755
872.397	21739
872.526	21698
872.656	21679
872.785	21580
872.915	21812
873.044	21941
873.173	21785
873.303	21934
873.432	21949
873.561	21884
873.69	21797
873.819	21861
873.948	21884
874.077	21785
874.206	21774
874.335	21880
874.464	21964
874.593	22188
874.722	22070
874.851	22017
874.979	21998
875.108	21934
875.237	22032
875.365	21941
875.494	21945
875.623	21972
875.751	21899
875.88	22025
876.008	22200
876.136	22303
876.265	22478
876.393	22512
876.521	22432
876.65	22504
876.778	22519
876.906	22371
877.034	22409
877.162	22538
877.29	22333
877.418	22481
877.546	22497
877.674	22402
877.802	22344
877.93	22413
878.058	22382
878.185	22295
878.313	22306
878.441	22470
878.568	22207
878.696	22284
878.824	22459
878.951	22363
879.079	22565
879.206	22622
879.333	22519
879.461	22474
879.588	22394
879.715	22569
879.842	22729
879.97	22474
880.097	22211
880.224	22291
880.351	22337
880.478	22249
880.605	22124
880.732	22230
880.859	22485
880.986	22299
881.112	22166
881.239	21945
881.366	21827
881.493	21964
881.619	21873
881.746	21873
881.872	21747
881.999	21781
882.125	21694
882.252	21705
882.378	21762
882.505	21793
882.631	21629
882.757	21572
882.883	21542
883.01	21454
883.136	21408
883.262	21374
883.388	21264
883.514	21507
883.64	21496
883.766	21443
883.892	21214
884.018	21252
884.143	21367
884.269	21447
884.395	21081
884.52	21074
884.646	21150
884.772	21020
884.897	20952
885.023	21199
885.148	21378
885.274	21252
885.399	21241
885.524	21062
885.65	21100
885.775	21256
885.9	21142
886.025	21184
886.15	21294
886.275	21077
886.4	20998
886.525	21066
886.65	20906
886.775	21024
886.9	21203
887.025	21264
887.149	21089
887.274	20887
887.399	20921
887.523	20849
887.648	20758
887.773	20754
887.897	20918
888.021	21009
888.146	20731
888.27	20929
888.395	20891
888.519	20811
888.643	20925
888.767	20933
888.891	20796
889.015	20617
889.139	20781
889.263	20625
889.387	20876
889.511	20826
889.635	20800
889.759	20621
889.883	20575
890.006	20682
890.13	20826
890.254	20640
890.377	20594
890.501	20499
890.624	20290
890.748	20511
890.871	20454
890.995	20214
891.118	20180
891.241	20324
891.364	20275
891.488	20427
891.611	20275
891.734	20191
891.857	20328
891.98	20248
892.103	20259
892.226	20263
892.349	20111
892.471	20081
892.594	20164
892.717	20210
892.839	20107
892.962	20259
893.085	20320
893.207	20172
893.33	19959
893.452	20172
893.575	20172
893.697	20103
893.819	20377
893.941	20339
894.064	20233
894.186	20001
894.308	20012
894.43	20199
894.552	20381
894.674	20278
894.796	19963
894.918	20199
895.04	20107
895.161	20195
895.283	20176
895.405	20046
895.526	20065
895.648	20100
895.769	20229
895.891	20172
896.012	20240
896.134	20081
896.255	20286
896.376	20081
896.498	20077
896.619	20210
896.74	20134
896.861	20153
896.982	20465
897.103	20621
897.224	20419
897.345	20476
897.466	20317
897.587	20381
897.708	20518
897.828	20366
897.949	20404
898.07	20142
898.19	20309
898.311	20450
898.431	20298
898.552	20263
898.672	20442
898.792	20556
898.913	20400
899.033	20301
899.153	20206
899.273	20031
899.393	20122
899.513	20164
899.633	20218
899.753	20062
899.873	19997
899.993	20069
900.113	20088
900.232	20142
900.352	20062
900.472	19932
900.591	19887
900.711	19982
900.83	19811
900.95	19963
901.069	19989
901.189	19868
901.308	19578
901.427	19514
901.546	19415
901.665	19457
901.784	19502
901.904	19304
902.023	19301
902.141	19027
902.26	18970
902.379	19057
902.498	19015
902.617	19000
902.735	18947
902.854	18890
902.973	18916
903.091	18768
903.21	18681
903.328	18681
903.446	18563
903.565	18460
903.683	18490
903.801	18369
903.919	18414
904.038	18346
904.156	18338
904.274	18391
904.392	18239
904.51	18148
904.627	18182
904.745	18251
904.863	18232
904.981	18049
905.098	17958
905.216	17912
905.334	17920
905.451	17889
905.569	17866
905.686	17923
905.803	17885
905.921	17737
906.038	17668
906.155	17691
906.272	17573
906.389	17672
906.506	17501
906.623	17486
906.74	17509
906.857	17364
906.974	17379
907.091	17516
907.208	17467
907.324	17490
907.441	17334
907.557	17151
907.674	17155
907.79	17025
907.907	17159
908.023	17189
908.139	17067
908.256	17174
908.372	16991
908.488	17045
908.604	16927
908.72	16984
908.836	16930
908.952	16881
909.068	16946
909.184	16839
909.3	16820
909.415	16889
909.531	16805
909.647	16573
909.762	16596
909.878	16531
909.993	16565
910.108	16459
910.224	16588
910.339	16561
910.454	16497
910.57	16440
910.685	16306
910.8	16649
910.915	16474
911.03	16352
911.145	16215
911.259	16120
911.374	16135
911.489	16063
911.604	16010
911.718	16017
911.833	15945
911.947	15861
912.062	15690
912.176	15842
912.291	15899
912.405	15918
912.519	16067
912.633	16086
912.748	15987
912.862	15884
912.976	15789
913.09	15660
913.204	15701
913.318	15728
913.431	15903
913.545	15736
913.659	15797
913.772	15667
913.886	15564
914	15530
914.113	15595
914.226	15660
914.34	15572
914.453	15431
914.566	15622
914.68	15351
914.793	15389
914.906	15180
915.019	15093
915.132	15013
915.245	15123
915.358	15195
915.47	15100
915.583	15142
915.696	15150
915.809	15268
915.921	15176
916.034	15157
916.146	15036
916.259	15005
916.371	14967
916.483	15032
916.595	15066
916.708	15005
916.82	14956
916.932	14899
917.044	14921
917.156	14895
917.268	14758
917.38	14792
917.491	14701
917.603	14921
917.715	14792
917.826	14849
917.938	14659
918.049	14598
918.161	14777
918.272	14826
918.384	14815
918.495	14788
918.606	14549
918.717	14522
918.828	14610
918.939	14594
919.05	14457
919.161	14587
919.272	14366
919.383	14393
919.494	14541
919.604	14674
919.715	14625
919.826	14389
919.936	14465
920.047	14522
920.157	14480
920.267	14598
920.378	14568
920.488	14457
920.598	14579
920.708	14861
920.818	14697
920.928	14549
921.038	14670
921.148	14765
921.258	14454
921.368	14343
921.477	14199
921.587	14138
921.697	14145
921.806	14278
921.916	14008
922.025	13890
922.134	13917
922.244	13936
922.353	13883
922.462	13734
922.571	13666
922.68	13540
922.789	13544
922.898	13620
923.007	13518
923.116	13563
923.224	13552
923.333	13537
923.442	13422
923.55	13308
923.659	13304
923.767	13434
923.876	13266
923.984	13377
924.092	13297
924.201	13316
924.309	13244
924.417	13324
924.525	13129
924.633	13263
924.741	13982
924.849	13012
924.956	13206
925.064	13053
925.172	12939
925.279	12901
925.387	13038
925.494	12886
925.602	13069
925.709	12928
925.816	12798
925.924	12886
926.031	12951
926.138	12867
926.245	12977
926.352	12730
926.459	12916
926.566	12996
926.673	12840
926.779	12779
926.886	12635
926.993	12665
927.099	12589
927.206	12471
927.312	12513
927.419	12502
927.525	12521
927.631	12502
927.737	12388
927.843	12365
927.95	12167
928.056	12315
928.162	12330
928.267	12376
928.373	13034
928.479	12403
928.585	12171
928.69	12353
928.796	12338
928.901	12190
929.007	11996
929.112	12209
929.218	12152
929.323	12083
929.428	12038
929.533	12190
929.638	12019
929.743	12045
929.848	12057
929.953	11916
930.058	11897
930.163	11741
930.267	11741
930.372	11912
930.477	11646
930.581	11912
930.685	11798
930.79	11573
930.894	11741
930.998	11619
931.103	11672
931.207	11372
931.311	11296
931.415	11220
931.519	10968
931.623	11029
