Data from test_V78500241_3302.txt Node
Date: Fri Mar 25 15:32:51 CST 2022
User: usil
Spectrometer: V785-0024
Trigger mode: 0
Integration Time (sec): 4.000000E-1
Scans to average: 1
Nonlinearity correction enabled: false
Boxcar width: 0
Storing dark spectrum: false
XAxis mode: Wavelengths
Number of Pixels in Spectrum: 1024
>>>>>Begin Spectral Data<<<<<
801.071	26971
801.214	27154
801.356	26617
801.499	26625
801.641	26587
801.783	26495
801.926	26564
802.068	26651
802.211	26419
802.353	26339
802.496	26355
802.638	26336
802.78	26183
802.923	26073
803.065	26016
803.208	26081
803.35	26199
803.492	26259
803.635	26267
803.777	26237
803.919	26313
804.061	26724
804.204	26400
804.346	26358
804.488	26275
804.63	26408
804.773	26103
804.915	26240
805.057	26427
805.199	26389
805.341	26374
805.483	26461
805.626	26374
805.768	26305
805.91	26503
806.052	26393
806.194	26252
806.336	26560
806.478	26495
806.62	26442
806.762	26385
806.904	26606
807.046	26952
807.188	26857
807.33	26773
807.472	26861
807.614	26773
807.756	26952
807.898	26594
808.04	26640
808.182	26602
808.324	26693
808.465	26678
808.607	26826
808.749	27081
808.891	27119
809.033	27116
809.174	27245
809.316	26956
809.458	27058
809.6	26880
809.741	27169
809.883	27100
810.025	27260
810.166	27298
810.308	27203
810.45	27077
810.591	27154
810.733	27112
810.875	26868
811.016	26982
811.158	26876
811.299	27116
811.441	27169
811.582	27230
811.724	27028
811.865	27028
812.007	26914
812.148	26883
812.29	26990
812.431	27116
812.573	27268
812.714	27363
812.855	27511
812.997	27583
813.138	27667
813.279	27618
813.421	27477
813.562	27553
813.703	27264
813.845	27123
813.986	26918
814.127	26701
814.268	26708
814.41	26636
814.551	26686
814.692	26678
814.833	26594
814.974	26587
815.115	26617
815.256	26415
815.397	26480
815.539	26552
815.68	26434
815.821	26237
815.962	26564
816.103	26374
816.244	26206
816.385	26195
816.526	26149
816.666	26016
816.807	25799
816.948	25978
817.089	26027
817.23	25940
817.371	25932
817.512	25856
817.653	25871
817.793	25887
817.934	25833
818.075	25849
818.216	25917
818.356	25807
818.497	25635
818.638	25578
818.778	25772
818.919	25594
819.06	25780
819.2	25925
819.341	25837
819.481	26005
819.622	25955
819.762	26240
819.903	26130
820.043	26157
820.184	26096
820.324	26027
820.465	26031
820.605	26084
820.746	25917
820.886	25879
821.026	25947
821.167	25875
821.307	25982
821.447	25944
821.588	25788
821.728	25590
821.868	25548
822.008	25422
822.149	25445
822.289	25324
822.429	25031
822.569	25027
822.709	24985
822.849	24779
822.99	24901
823.13	24795
823.27	24772
823.41	24684
823.55	24650
823.69	24753
823.83	24730
823.97	24623
824.11	24395
824.25	24414
824.389	24566
824.529	24517
824.669	24403
824.809	24513
824.949	24490
825.089	24589
825.228	24479
825.368	24281
825.508	24262
825.648	24346
825.787	24323
825.927	24429
826.067	24384
826.206	24319
826.346	24399
826.485	24426
826.625	24494
826.765	24502
826.904	24448
827.044	24178
827.183	24068
827.323	24038
827.462	24216
827.601	24155
827.741	24049
827.88	24167
828.02	24018
828.159	24034
828.298	24174
828.437	24155
828.577	24068
828.716	24182
828.855	23965
828.994	23745
829.134	23904
829.273	23836
829.412	23661
829.551	23794
829.69	23687
829.829	23908
829.968	23863
830.107	23805
830.246	23847
830.385	23748
830.524	23718
830.663	23524
830.802	23501
830.941	23421
831.08	23433
831.219	23543
831.357	23436
831.496	23672
831.635	23353
831.774	23280
831.913	23258
832.051	23193
832.19	23258
832.329	23318
832.467	23151
832.606	23060
832.744	23098
832.883	23083
833.022	23098
833.16	23048
833.299	23132
833.437	23109
833.576	23204
833.714	23231
833.852	23223
833.991	23071
834.129	23334
834.267	23242
834.406	23094
834.544	23117
834.682	23022
834.821	23136
834.959	23345
835.097	23067
835.235	23136
835.373	23151
835.511	23102
835.65	23105
835.788	22980
835.926	22968
836.064	22816
836.202	22797
836.34	23067
836.478	23181
836.615	22927
836.753	22995
836.891	23113
837.029	23018
837.167	22930
837.305	22839
837.443	22866
837.58	22854
837.718	23025
837.856	22801
837.993	22843
838.131	22843
838.269	22812
838.406	22744
838.544	22683
838.681	22519
838.819	22466
838.956	22337
839.094	22238
839.231	22306
839.369	22481
839.506	22824
839.643	22592
839.781	22344
839.918	22261
840.055	22333
840.193	22306
840.33	22299
840.467	22341
840.604	22405
840.742	22459
840.879	22063
841.016	22234
841.153	22204
841.29	22436
841.427	22211
841.564	22325
841.701	22344
841.838	22200
841.975	22280
842.112	22230
842.249	22207
842.385	22051
842.522	22173
842.659	22173
842.796	21945
842.933	21987
843.069	21975
843.206	22021
843.343	22200
843.479	22101
843.616	22063
843.752	21743
843.889	21808
844.025	21899
844.162	21850
844.298	21903
844.435	21709
844.571	21759
844.708	21835
844.844	21979
844.98	22002
845.117	21922
845.253	21762
845.389	21656
845.525	21629
845.661	21595
845.798	21492
845.934	21622
846.07	21515
846.206	21481
846.342	21622
846.478	21462
846.614	21374
846.75	21150
846.886	21249
847.022	21336
847.158	21256
847.294	21237
847.429	21252
847.565	21420
847.701	21557
847.837	20994
847.972	21024
848.108	21077
848.244	21047
848.379	20948
848.515	20910
848.65	20899
848.786	20883
848.921	20872
849.057	21009
849.192	21039
849.328	20849
849.463	20845
849.598	20796
849.734	20739
849.869	20697
850.004	20701
850.14	20667
850.275	20731
850.41	20659
850.545	20708
850.68	20590
850.815	20640
850.95	20648
851.085	20842
851.22	20804
851.355	20697
851.49	20731
851.625	20640
851.76	20568
851.895	20602
852.03	20716
852.165	20613
852.299	20727
852.434	20796
852.569	20617
852.703	20697
852.838	20655
852.973	20823
853.107	20701
853.242	20594
853.376	20530
853.511	20450
853.645	20419
853.78	20568
853.914	20431
854.048	20552
854.183	20381
854.317	20575
854.451	20705
854.585	20545
854.72	20583
854.854	20469
854.988	20522
855.122	20419
855.256	20393
855.39	20492
855.524	20533
855.658	20686
855.792	20556
855.926	20541
856.06	20518
856.194	20720
856.327	20377
856.461	20374
856.595	20355
856.729	20442
856.862	20450
856.996	20530
857.13	20469
857.263	20514
857.397	20678
857.53	20427
857.664	20579
857.797	20590
857.931	20575
858.064	20492
858.197	20648
858.331	20495
858.464	20385
858.597	20324
858.731	20560
858.864	20560
858.997	20450
859.13	20461
859.263	20469
859.396	20613
859.529	20412
859.662	20541
859.795	20294
859.928	20400
860.061	20743
860.194	20575
860.327	20461
860.46	20533
860.592	20518
860.725	20511
860.858	20568
860.99	20503
861.123	20400
861.256	20404
861.388	20518
861.521	21013
861.653	20381
861.786	20229
861.918	20259
862.05	20366
862.183	20412
862.315	20526
862.447	20579
862.58	20381
862.712	20187
862.844	20218
862.976	20347
863.108	20396
863.24	20682
863.372	20199
863.504	20115
863.636	20252
863.768	20202
863.9	20271
864.032	20073
864.164	20180
864.296	20145
864.428	20278
864.559	20309
864.691	20176
864.823	20263
864.954	20271
865.086	20195
865.217	20134
865.349	20126
865.48	20077
865.612	20024
865.743	20214
865.875	20035
866.006	20145
866.137	20157
866.269	20134
866.4	20043
866.531	20096
866.662	20126
866.793	20084
866.924	20054
867.055	20142
867.186	20062
867.317	20058
867.448	20012
867.579	20069
867.71	19925
867.841	20035
867.972	19986
868.103	20001
868.233	20069
868.364	20111
868.495	20202
868.625	20271
868.756	20423
868.886	20138
869.017	20263
869.147	20415
869.278	20476
869.408	20317
869.539	20248
869.669	20317
869.799	20385
869.929	20294
870.06	20507
870.19	20575
870.32	20511
870.45	20621
870.58	20629
870.71	20785
870.84	20849
870.97	20678
871.1	20716
871.23	20826
871.36	20910
871.489	20853
871.619	20921
871.749	20929
871.879	20876
872.008	21055
872.138	20849
872.267	20948
872.397	20823
872.526	20644
872.656	20716
872.785	20842
872.915	21055
873.044	20979
873.173	20910
873.303	21043
873.432	21036
873.561	21028
873.69	20948
873.819	20937
873.948	21070
874.077	20925
874.206	20849
874.335	20979
874.464	20975
874.593	21104
874.722	21066
874.851	21165
874.979	21180
875.108	21336
875.237	21131
875.365	21039
875.494	21214
875.623	21291
875.751	21104
875.88	21161
876.008	21310
876.136	21477
876.265	21675
876.393	21637
876.521	21507
876.65	21667
876.778	21568
876.906	21568
877.034	21454
877.162	21538
877.29	21523
877.418	21572
877.546	21504
877.674	21492
877.802	21412
877.93	21466
878.058	21530
878.185	21477
878.313	21439
878.441	21553
878.568	21291
878.696	21450
878.824	21477
878.951	21614
879.079	21698
879.206	21663
879.333	21660
879.461	21496
879.588	21641
879.715	21694
879.842	21774
879.97	21603
880.097	21393
880.224	21428
880.351	21389
880.478	21310
880.605	21351
880.732	21435
880.859	21595
880.986	21435
881.112	21321
881.239	21230
881.366	21070
881.493	21093
881.619	21036
881.746	20979
881.872	20956
881.999	21032
882.125	20834
882.252	20925
882.378	20914
882.505	20971
882.631	20800
882.757	20636
882.883	20842
883.01	20655
883.136	20606
883.262	20450
883.388	20423
883.514	20579
883.64	20655
883.766	20526
883.892	20351
884.018	20530
884.143	20644
884.269	20518
884.395	20278
884.52	20252
884.646	20263
884.772	20138
884.897	20195
885.023	20298
885.148	20362
885.274	20419
885.399	20488
885.524	20214
885.65	20187
885.775	20294
885.9	20320
886.025	20377
886.15	20465
886.275	20191
886.4	20202
886.525	20240
886.65	20278
886.775	20180
886.9	20412
887.025	20473
887.149	20256
887.274	20065
887.399	20027
887.523	20107
887.648	20024
887.773	19986
887.897	20183
888.021	20153
888.146	19932
888.27	20065
888.395	20130
888.519	19967
888.643	20088
888.767	20199
888.891	20020
889.015	19909
889.139	19913
889.263	19883
889.387	19974
889.511	20005
889.635	20035
889.759	19890
889.883	19746
890.006	19940
890.13	20024
890.254	19712
890.377	19845
890.501	19670
890.624	19639
890.748	19685
890.871	19521
890.995	19407
891.118	19529
891.241	19407
891.364	19468
891.488	19586
891.611	19464
891.734	19460
891.857	19514
891.98	19426
892.103	19567
892.226	19529
892.349	19377
892.471	19270
892.594	19369
892.717	19377
892.839	19312
892.962	19430
893.085	19537
893.207	19392
893.33	19297
893.452	19339
893.575	19392
893.697	19316
893.819	19533
893.941	19544
894.064	19468
894.186	19327
894.308	19400
894.43	19601
894.552	19582
894.674	19411
894.796	19301
894.918	19400
895.04	19495
895.161	19556
895.283	19327
895.405	19304
895.526	19331
895.648	19301
895.769	19392
895.891	19396
896.012	19472
896.134	19430
896.255	19346
896.376	19400
896.498	19373
896.619	19514
896.74	19434
896.861	19464
896.982	19814
897.103	19814
897.224	19666
897.345	19651
897.466	19655
897.587	19620
897.708	19677
897.828	19639
897.949	19518
898.07	19514
898.19	19578
898.311	19738
898.431	19510
898.552	19624
898.672	19662
898.792	19727
898.913	19635
899.033	19472
899.153	19491
899.273	19335
899.393	19403
899.513	19430
899.633	19358
899.753	19430
899.873	19297
899.993	19514
900.113	19335
900.232	19369
900.352	19320
900.472	19129
900.591	19133
900.711	19190
900.83	19084
900.95	19221
901.069	19316
901.189	19133
901.308	18817
901.427	18734
901.546	18814
901.665	18665
901.784	18795
901.904	18665
902.023	18456
902.141	18479
902.26	18334
902.379	18437
902.498	18296
902.617	18224
902.735	18285
902.854	18254
902.973	18232
903.091	18057
903.21	17961
903.328	17942
903.446	17840
903.565	17764
903.683	17745
903.801	17592
903.919	17767
904.038	17783
904.156	17493
904.274	17554
904.392	17452
904.51	17474
904.627	17642
904.745	17600
904.863	17551
904.981	17444
905.098	17227
905.216	17159
905.334	17261
905.451	17208
905.569	17170
905.686	17250
905.803	17231
905.921	17025
906.038	17067
906.155	17094
906.272	16896
906.389	16927
906.506	16763
906.623	16774
906.74	16725
906.857	16615
906.974	16683
907.091	16793
907.208	16946
907.324	16733
907.441	16618
907.557	16440
907.674	16523
907.79	16424
907.907	16405
908.023	16508
908.139	16531
908.256	16478
908.372	16291
908.488	16306
908.604	16322
908.72	16188
908.836	16238
908.952	16196
909.068	16268
909.184	16207
909.3	16173
909.415	16200
909.531	16207
909.647	15941
909.762	15835
909.878	15922
909.993	15915
910.108	15953
910.224	16010
910.339	15953
910.454	15774
910.57	15778
910.685	15713
910.8	15903
910.915	15873
911.03	15667
911.145	15576
911.259	15584
911.374	15534
911.489	15500
911.604	15393
911.718	15256
911.833	15329
911.947	15161
912.062	15199
912.176	15268
912.291	15389
912.405	15348
912.519	15580
912.633	15416
912.748	15230
912.862	15321
912.976	15195
913.09	15032
913.204	15127
913.318	15119
913.431	15127
913.545	15154
913.659	15165
913.772	15062
913.886	15020
914	14876
914.113	15039
914.226	14944
914.34	14956
914.453	14777
914.566	15032
914.68	14811
914.793	14746
914.906	14587
915.019	14533
915.132	14469
915.245	14469
915.358	14598
915.47	14442
915.583	14575
915.696	14594
915.809	14693
915.921	14602
916.034	14469
916.146	14461
916.259	14358
916.371	14541
916.483	14503
916.595	14389
916.708	14377
916.82	14385
916.932	14320
917.044	14339
917.156	14320
917.268	14248
917.38	14271
917.491	14183
917.603	14381
917.715	14259
917.826	14290
917.938	14043
918.049	14088
918.161	14103
918.272	14343
918.384	14362
918.495	14195
918.606	13967
918.717	13986
918.828	14046
918.939	13928
919.05	13913
919.161	13970
919.272	13727
919.383	13814
919.494	14024
919.604	14145
919.715	13989
919.826	13799
919.936	13902
920.047	14054
920.157	14039
920.267	14187
920.378	14088
920.488	13871
920.598	14259
920.708	14328
920.818	14096
920.928	14145
921.038	14275
921.148	14187
921.258	13913
921.368	13845
921.477	13734
921.587	13685
921.697	13651
921.806	13769
921.916	13540
922.025	13495
922.134	13403
922.244	13263
922.353	13388
922.462	13247
922.571	13133
922.68	13012
922.789	12996
922.898	12943
923.007	12966
923.116	13076
923.224	13023
923.333	12928
923.442	12886
923.55	12802
923.659	12905
923.767	12894
923.876	12814
923.984	12894
924.092	12734
924.201	12791
924.309	12707
924.417	12745
924.525	12654
924.633	12681
924.741	13590
924.849	12483
924.956	12559
925.064	12506
925.172	12330
925.279	12429
925.387	12544
925.494	12551
925.602	12582
925.709	12437
925.816	12372
925.924	12437
926.031	12521
926.138	12407
926.245	12544
926.352	12315
926.459	12494
926.566	12445
926.673	12330
926.779	12190
926.886	12197
926.993	12144
927.099	12030
927.206	12019
927.312	11980
927.419	12076
927.525	12053
927.631	12087
927.737	11927
927.843	11912
927.95	11760
928.056	11923
928.162	11946
928.267	11942
928.373	12509
928.479	12053
928.585	11680
928.69	11832
928.796	11882
928.901	11756
929.007	11615
929.112	11798
929.218	11619
929.323	11680
929.428	11649
929.533	11817
929.638	11532
929.743	11600
929.848	11600
929.953	11604
930.058	11486
930.163	11334
930.267	11303
930.372	11520
930.477	11337
930.581	11535
930.685	11372
930.79	11318
930.894	11261
930.998	11197
931.103	11326
931.207	10987
931.311	10881
931.415	10873
931.519	10774
931.623	10596
