Data from test_V78500241_1426.txt Node
Date: Fri Mar 25 15:19:47 CST 2022
User: usil
Spectrometer: V785-0024
Trigger mode: 0
Integration Time (sec): 4.000000E-1
Scans to average: 1
Nonlinearity correction enabled: false
Boxcar width: 0
Storing dark spectrum: false
XAxis mode: Wavelengths
Number of Pixels in Spectrum: 1024
>>>>>Begin Spectral Data<<<<<
801.071	27918
801.214	28128
801.356	27800
801.499	27545
801.641	27583
801.783	27534
801.926	27515
802.068	27675
802.211	27542
802.353	27386
802.496	27405
802.638	27279
802.78	27169
802.923	27051
803.065	27127
803.208	27256
803.35	27100
803.492	27374
803.635	27412
803.777	27389
803.919	27427
804.061	27739
804.204	27473
804.346	27378
804.488	27310
804.63	27370
804.773	27283
804.915	27378
805.057	27477
805.199	27393
805.341	27557
805.483	27614
805.626	27367
805.768	27469
805.91	27515
806.052	27477
806.194	27416
806.336	27629
806.478	27580
806.62	27610
806.762	27648
806.904	27827
807.046	28040
807.188	28025
807.33	27911
807.472	27812
807.614	28017
807.756	28070
807.898	27797
808.04	27766
808.182	27819
808.324	27968
808.465	27785
808.607	28112
808.749	28150
808.891	28348
809.033	28268
809.174	28363
809.316	28147
809.458	28109
809.6	28181
809.741	28337
809.883	28344
810.025	28580
810.166	28565
810.308	28694
810.45	28276
810.591	28390
810.733	28223
810.875	28067
811.016	28116
811.158	27922
811.299	28177
811.441	28409
811.582	28337
811.724	28280
811.865	28070
812.007	28207
812.148	28299
812.29	28223
812.431	28451
812.573	28561
812.714	28713
812.855	28774
812.997	28976
813.138	28908
813.279	28999
813.421	28744
813.562	28706
813.703	28550
813.845	28500
813.986	28059
814.127	28078
814.268	27888
814.41	28029
814.551	27895
814.692	27987
814.833	27930
814.974	27835
815.115	27937
815.256	27751
815.397	27778
815.539	27717
815.68	27781
815.821	27614
815.962	27766
816.103	27728
816.244	27663
816.385	27515
816.526	27469
816.666	27405
816.807	27241
816.948	27348
817.089	27336
817.23	27199
817.371	27188
817.512	27180
817.653	27272
817.793	27218
817.934	27203
818.075	27214
818.216	27294
818.356	27230
818.497	27066
818.638	27005
818.778	26826
818.919	26891
819.06	27024
819.2	27176
819.341	27165
819.481	27260
819.622	27405
819.762	27405
819.903	27534
820.043	27408
820.184	27344
820.324	27142
820.465	27321
820.605	27294
820.746	27291
820.886	27218
821.026	27222
821.167	27161
821.307	27283
821.447	27188
821.588	27093
821.728	26937
821.868	26834
822.008	26625
822.149	26705
822.289	26621
822.429	26374
822.569	26259
822.709	26457
822.849	26195
822.99	26107
823.13	25966
823.27	26195
823.41	26027
823.55	25944
823.69	26020
823.83	26046
823.97	25887
824.11	25833
824.25	25689
824.389	25727
824.529	25811
824.669	25852
824.809	25997
824.949	25913
825.089	25883
825.228	25780
825.368	25685
825.508	25685
825.648	25708
825.787	25738
825.927	25696
826.067	25651
826.206	25620
826.346	25723
826.485	25799
826.625	25635
826.765	25906
826.904	25567
827.044	25529
827.183	25495
827.323	25324
827.462	25476
827.601	25411
827.741	25415
827.88	25403
828.02	25270
828.159	25274
828.298	25377
828.437	25354
828.577	25388
828.716	25529
828.855	25392
828.994	25038
829.134	25118
829.273	25168
829.412	25015
829.551	25065
829.69	25179
829.829	25099
829.968	25095
830.107	25046
830.246	25133
830.385	25057
830.524	24992
830.663	24905
830.802	24707
830.941	24677
831.08	24642
831.219	24741
831.357	24654
831.496	24909
831.635	24696
831.774	24582
831.913	24517
832.051	24528
832.19	24578
832.329	24486
832.467	24456
832.606	24243
832.744	24315
832.883	24300
833.022	24384
833.16	24384
833.299	24357
833.437	24365
833.576	24479
833.714	24422
833.852	24403
833.991	24418
834.129	24353
834.267	24475
834.406	24513
834.544	24437
834.682	24448
834.821	24422
834.959	24593
835.097	24338
835.235	24532
835.373	24464
835.511	24281
835.65	24144
835.788	24251
835.926	24110
836.064	24159
836.202	24155
836.34	24216
836.478	24296
836.615	24254
836.753	24323
836.891	24277
837.029	24167
837.167	24049
837.305	24079
837.443	24117
837.58	23984
837.718	24197
837.856	24110
837.993	24087
838.131	24079
838.269	23809
838.406	23916
838.544	23885
838.681	23760
838.819	23638
838.956	23490
839.094	23592
839.231	23463
839.369	23638
839.506	23847
839.643	23779
839.781	23421
839.918	23463
840.055	23547
840.193	23505
840.33	23433
840.467	23497
840.604	23551
840.742	23729
840.879	23269
841.016	23341
841.153	23337
841.29	23505
841.427	23402
841.564	23429
841.701	23531
841.838	23410
841.975	23280
842.112	23326
842.249	23242
842.385	23197
842.522	23463
842.659	23273
842.796	23250
842.933	23242
843.069	23246
843.206	23227
843.343	23254
843.479	23227
843.616	23143
843.752	22949
843.889	23014
844.025	23090
844.162	22980
844.298	23193
844.435	22987
844.571	22877
844.708	23086
844.844	23048
844.98	23018
845.117	23048
845.253	22881
845.389	22786
845.525	22896
845.661	22805
845.798	22706
845.934	22790
846.07	22649
846.206	22713
846.342	22805
846.478	22592
846.614	22561
846.75	22512
846.886	22405
847.022	22531
847.158	22428
847.294	22531
847.429	22398
847.565	22478
847.701	22801
847.837	22177
847.972	22188
848.108	22268
848.244	22215
848.379	22226
848.515	22048
848.65	22010
848.786	22013
848.921	22105
849.057	22090
849.192	22082
849.328	22013
849.463	21998
849.598	21934
849.734	21854
849.869	21861
850.004	21762
850.14	21762
850.275	21804
850.41	21747
850.545	21743
850.68	21838
850.815	21785
850.95	21797
851.085	21937
851.22	21987
851.355	21873
851.49	21827
851.625	21785
851.76	21751
851.895	21755
852.03	21724
852.165	21724
852.299	21861
852.434	21895
852.569	21774
852.703	21743
852.838	21751
852.973	21945
853.107	21808
853.242	21583
853.376	21648
853.511	21526
853.645	21572
853.78	21698
853.914	21641
854.048	21618
854.183	21587
854.317	21603
854.451	21846
854.585	21675
854.72	21629
854.854	21675
854.988	21591
855.122	21660
855.256	21466
855.39	21599
855.524	21622
855.658	21709
855.792	21606
855.926	21656
856.06	21603
856.194	21637
856.327	21542
856.461	21542
856.595	21542
856.729	21610
856.862	21732
856.996	21618
857.13	21686
857.263	21526
857.397	21656
857.53	21557
857.664	21614
857.797	21610
857.931	21713
858.064	21553
858.197	21713
858.331	21675
858.464	21595
858.597	21557
858.731	21530
858.864	21545
858.997	21519
859.13	21622
859.263	21622
859.396	21671
859.529	21545
859.662	21641
859.795	21473
859.928	21713
860.061	21778
860.194	21717
860.327	21720
860.46	21500
860.592	21686
860.725	21739
860.858	21671
860.99	21523
861.123	21420
861.256	21496
861.388	21682
861.521	22158
861.653	21477
861.786	21306
861.918	21542
862.05	21526
862.183	21553
862.315	21519
862.447	21618
862.58	21393
862.712	21332
862.844	21306
862.976	21454
863.108	21275
863.24	21698
863.372	21275
863.504	21313
863.636	21260
863.768	21329
863.9	21359
864.032	21287
864.164	21256
864.296	21359
864.428	21389
864.559	21355
864.691	21397
864.823	21298
864.954	21256
865.086	21317
865.217	21116
865.349	21055
865.48	21161
865.612	21077
865.743	21348
865.875	21241
866.006	21100
866.137	21230
866.269	21119
866.4	21233
866.531	21085
866.662	21055
866.793	21123
866.924	21127
867.055	21108
867.186	21112
867.317	21085
867.448	21062
867.579	21096
867.71	21005
867.841	20929
867.972	21199
868.103	21119
868.233	21001
868.364	21089
868.495	21188
868.625	21268
868.756	21469
868.886	21435
869.017	21344
869.147	21416
869.278	21530
869.408	21291
869.539	21260
869.669	21443
869.799	21469
869.929	21526
870.06	21397
870.19	21610
870.32	21686
870.45	21720
870.58	21686
870.71	21797
870.84	21804
870.97	21732
871.1	21835
871.23	21838
871.36	21945
871.489	21926
871.619	21819
871.749	21842
871.879	21991
872.008	22078
872.138	21945
872.267	21998
872.397	21930
872.526	21823
872.656	21797
872.785	21968
872.915	21888
873.044	22143
873.173	21968
873.303	22097
873.432	22063
873.561	22090
873.69	22109
873.819	21998
873.948	22082
874.077	22112
874.206	21926
874.335	21930
874.464	22074
874.593	22196
874.722	22185
874.851	22314
874.979	22295
875.108	22322
875.237	22238
875.365	22177
875.494	22139
875.623	22154
875.751	22196
875.88	22356
876.008	22284
876.136	22504
876.265	22615
876.393	22683
876.521	22740
876.65	22782
876.778	22557
876.906	22478
877.034	22573
877.162	22531
877.29	22493
877.418	22577
877.546	22500
877.674	22554
877.802	22607
877.93	22554
878.058	22588
878.185	22447
878.313	22550
878.441	22523
878.568	22440
878.696	22577
878.824	22512
878.951	22668
879.079	22725
879.206	22793
879.333	22771
879.461	22592
879.588	22626
879.715	22717
879.842	22934
879.97	22702
880.097	22379
880.224	22443
880.351	22417
880.478	22451
880.605	22386
880.732	22478
880.859	22527
880.986	22455
881.112	22322
881.239	22276
881.366	22204
881.493	22086
881.619	21926
881.746	22010
881.872	22070
881.999	21945
882.125	21880
882.252	21937
882.378	21888
882.505	22101
882.631	21739
882.757	21614
882.883	21736
883.01	21603
883.136	21564
883.262	21549
883.388	21488
883.514	21698
883.64	21671
883.766	21458
883.892	21454
884.018	21496
884.143	21595
884.269	21644
884.395	21439
884.52	21291
884.646	21252
884.772	21283
884.897	21127
885.023	21294
885.148	21313
885.274	21378
885.399	21397
885.524	21279
885.65	21344
885.775	21428
885.9	21218
886.025	21344
886.15	21355
886.275	21291
886.4	21188
886.525	21249
886.65	21283
886.775	21161
886.9	21294
887.025	21447
887.149	21260
887.274	21074
887.399	21093
887.523	21150
887.648	20921
887.773	21081
887.897	21039
888.021	21123
888.146	20975
888.27	21294
888.395	21055
888.519	21039
888.643	21028
888.767	21127
888.891	20979
889.015	20891
889.139	20883
889.263	20960
889.387	21020
889.511	21123
889.635	20994
889.759	20785
889.883	20895
890.006	20891
890.13	21001
890.254	20762
890.377	20765
890.501	20682
890.624	20530
890.748	20587
890.871	20450
890.995	20473
891.118	20317
891.241	20457
891.364	20434
891.488	20499
891.611	20495
891.734	20408
891.857	20396
891.98	20328
892.103	20438
892.226	20389
892.349	20415
892.471	20305
892.594	20233
892.717	20446
892.839	20278
892.962	20415
893.085	20343
893.207	20267
893.33	20210
893.452	20210
893.575	20313
893.697	20187
893.819	20465
893.941	20556
894.064	20454
894.186	20301
894.308	20229
894.43	20332
894.552	20400
894.674	20408
894.796	20278
894.918	20347
895.04	20309
895.161	20400
895.283	20381
895.405	20313
895.526	20278
895.648	20275
895.769	20347
895.891	20244
896.012	20438
896.134	20351
896.255	20355
896.376	20240
896.498	20324
896.619	20305
896.74	20290
896.861	20404
896.982	20682
897.103	20792
897.224	20583
897.345	20488
897.466	20450
897.587	20499
897.708	20609
897.828	20438
897.949	20400
898.07	20408
898.19	20488
898.311	20549
898.431	20488
898.552	20511
898.672	20587
898.792	20689
898.913	20609
899.033	20431
899.153	20324
899.273	20286
899.393	20290
899.513	20191
899.633	20313
899.753	20252
899.873	20077
899.993	20355
900.113	20157
900.232	20309
900.352	20210
900.472	20237
900.591	20020
900.711	20054
900.83	20020
900.95	20183
901.069	20183
901.189	20065
901.308	19803
901.427	19590
901.546	19605
901.665	19681
901.784	19700
901.904	19499
902.023	19327
902.141	19247
902.26	19190
902.379	19316
902.498	19164
902.617	19133
902.735	19103
902.854	19179
902.973	19183
903.091	18924
903.21	18867
903.328	18882
903.446	18642
903.565	18711
903.683	18776
903.801	18555
903.919	18578
904.038	18460
904.156	18448
904.274	18509
904.392	18433
904.51	18357
904.627	18403
904.745	18410
904.863	18388
904.981	18220
905.098	18144
905.216	18136
905.334	18030
905.451	18087
905.569	18102
905.686	18091
905.803	17999
905.921	17805
906.038	17901
906.155	17866
906.272	17756
906.389	17752
906.506	17524
906.623	17566
906.74	17608
906.857	17436
906.974	17528
907.091	17596
907.208	17760
907.324	17608
907.441	17554
907.557	17353
907.674	17311
907.79	17330
907.907	17231
908.023	17345
908.139	17318
908.256	17162
908.372	17216
908.488	17166
908.604	17143
908.72	17029
908.836	17098
908.952	16972
909.068	16991
909.184	17094
909.3	16953
909.415	17094
909.531	17037
909.647	16755
909.762	16706
909.878	16725
909.993	16748
910.108	16615
910.224	16611
910.339	16653
910.454	16558
910.57	16470
910.685	16443
910.8	16706
910.915	16630
911.03	16462
911.145	16352
911.259	16413
911.374	16314
911.489	16253
911.604	16166
911.718	16032
911.833	15960
911.947	15918
912.062	15865
912.176	15937
912.291	16006
912.405	16025
912.519	16135
912.633	16109
912.748	16078
912.862	16021
912.976	15861
913.09	15713
913.204	15778
913.318	15831
913.431	15857
913.545	15869
913.659	15930
913.772	15789
913.886	15660
914	15610
914.113	15717
914.226	15770
914.34	15686
914.453	15538
914.566	15694
914.68	15504
914.793	15488
914.906	15332
915.019	15378
915.132	15222
915.245	15298
915.358	15325
915.47	15268
915.583	15329
915.696	15287
915.809	15317
915.921	15405
916.034	15294
916.146	15192
916.259	15097
916.371	15184
916.483	15180
916.595	15047
916.708	15112
916.82	15089
916.932	15161
917.044	15089
917.156	15043
917.268	14990
917.38	15032
917.491	14933
917.603	14921
917.715	14975
917.826	15047
917.938	14925
918.049	14739
918.161	14853
918.272	15036
918.384	14963
918.495	14941
918.606	14724
918.717	14556
918.828	14876
918.939	14686
919.05	14518
919.161	14621
919.272	14476
919.383	14598
919.494	14792
919.604	14811
919.715	14629
919.826	14587
919.936	14545
920.047	14777
920.157	14594
920.267	14769
920.378	14674
920.488	14651
920.598	14773
920.708	14883
920.818	14796
920.928	14727
921.038	14941
921.148	14823
921.258	14549
921.368	14400
921.477	14427
921.587	14431
921.697	14195
921.806	14427
921.916	14339
922.025	14092
922.134	14035
922.244	13967
922.353	14115
922.462	13921
922.571	13795
922.68	13719
922.789	13647
922.898	13700
923.007	13556
923.116	13727
923.224	13655
923.333	13616
923.442	13422
923.55	13491
923.659	13449
923.767	13578
923.876	13430
923.984	13472
924.092	13415
924.201	13411
924.309	13411
924.417	13434
924.525	13304
924.633	13301
924.741	14100
924.849	13206
924.956	13263
925.064	13129
925.172	13008
925.279	12977
925.387	13072
925.494	13042
925.602	13171
925.709	13160
925.816	13015
925.924	12958
926.031	13072
926.138	12856
926.245	13061
926.352	12920
926.459	13031
926.566	13023
926.673	12920
926.779	12802
926.886	12696
926.993	12585
927.099	12700
927.206	12566
927.312	12608
927.419	12677
927.525	12627
927.631	12544
927.737	12475
927.843	12509
927.95	12399
928.056	12407
928.162	12517
928.267	12441
928.373	13072
928.479	12525
928.585	12304
928.69	12410
928.796	12391
928.901	12414
929.007	12114
929.112	12258
929.218	12251
929.323	12159
929.428	12087
929.533	12273
929.638	12117
929.743	12098
929.848	12235
929.953	12106
930.058	12007
930.163	11920
930.267	11847
930.372	11961
930.477	11798
930.581	12133
930.685	11984
930.79	11771
930.894	11794
930.998	11710
931.103	11824
931.207	11486
931.311	11398
931.415	11212
931.519	11102
931.623	11155
