Data from test_V78500241_3176.txt Node
Date: Fri Mar 25 15:31:58 CST 2022
User: usil
Spectrometer: V785-0024
Trigger mode: 0
Integration Time (sec): 4.000000E-1
Scans to average: 1
Nonlinearity correction enabled: false
Boxcar width: 0
Storing dark spectrum: false
XAxis mode: Wavelengths
Number of Pixels in Spectrum: 1024
>>>>>Begin Spectral Data<<<<<
801.071	27161
801.214	27055
801.356	26815
801.499	26826
801.641	26758
801.783	26530
801.926	26796
802.068	26625
802.211	26552
802.353	26499
802.496	26377
802.638	26404
802.78	26347
802.923	26229
803.065	26111
803.208	26244
803.35	26290
803.492	26431
803.635	26408
803.777	26358
803.919	26495
804.061	26769
804.204	26522
804.346	26511
804.488	26313
804.63	26492
804.773	26385
804.915	26575
805.057	26465
805.199	26473
805.341	26419
805.483	26629
805.626	26659
805.768	26427
805.91	26594
806.052	26629
806.194	26533
806.336	26701
806.478	26537
806.62	26606
806.762	26785
806.904	26785
807.046	27043
807.188	26986
807.33	26971
807.472	26906
807.614	26918
807.756	27020
807.898	26864
808.04	26678
808.182	26826
808.324	26906
808.465	26830
808.607	27017
808.749	27150
808.891	27310
809.033	27466
809.174	27112
809.316	27226
809.458	27085
809.6	27104
809.741	27351
809.883	27283
810.025	27507
810.166	27393
810.308	27408
810.45	27298
810.591	27332
810.733	27188
810.875	27131
811.016	27013
811.158	27127
811.299	27195
811.441	27245
811.582	27207
811.724	27180
811.865	27020
812.007	27100
812.148	27192
812.29	27131
812.431	27237
812.573	27614
812.714	27405
812.855	27644
812.997	27606
813.138	27846
813.279	27789
813.421	27633
813.562	27538
813.703	27420
813.845	27363
813.986	27043
814.127	26948
814.268	26853
814.41	26705
814.551	26769
814.692	26819
814.833	26712
814.974	26743
815.115	26883
815.256	26613
815.397	26655
815.539	26689
815.68	26682
815.821	26518
815.962	26686
816.103	26625
816.244	26381
816.385	26271
816.526	26343
816.666	26092
816.807	26043
816.948	26134
817.089	25997
817.23	26081
817.371	26024
817.512	25978
817.653	26024
817.793	25970
817.934	26046
818.075	26046
818.216	26161
818.356	26031
818.497	25909
818.638	25803
818.778	25753
818.919	25837
819.06	25917
819.2	25947
819.341	26107
819.481	25989
819.622	26240
819.762	26374
819.903	26263
820.043	26233
820.184	26058
820.324	26248
820.465	26305
820.605	26218
820.746	26122
820.886	25997
821.026	26016
821.167	25993
821.307	26210
821.447	26092
821.588	25955
821.728	25795
821.868	25662
822.008	25464
822.149	25567
822.289	25460
822.429	25251
822.569	25270
822.709	25183
822.849	25091
822.99	25133
823.13	25027
823.27	24954
823.41	24886
823.55	24749
823.69	24901
823.83	24817
823.97	24760
824.11	24483
824.25	24551
824.389	24692
824.529	24760
824.669	24749
824.809	24848
824.949	24642
825.089	24844
825.228	24661
825.368	24475
825.508	24513
825.648	24589
825.787	24517
825.927	24639
826.067	24509
826.206	24414
826.346	24574
826.485	24536
826.625	24612
826.765	24604
826.904	24585
827.044	24376
827.183	24407
827.323	24133
827.462	24281
827.601	24224
827.741	24133
827.88	24232
828.02	24098
828.159	24273
828.298	24270
828.437	24228
828.577	24194
828.716	24270
828.855	24098
828.994	23931
829.134	23840
829.273	23920
829.412	23874
829.551	23931
829.69	23897
829.829	23828
829.968	24026
830.107	23996
830.246	23973
830.385	23889
830.524	23779
830.663	23726
830.802	23783
830.941	23547
831.08	23490
831.219	23623
831.357	23573
831.496	23920
831.635	23509
831.774	23474
831.913	23326
832.051	23414
832.19	23429
832.329	23512
832.467	23292
832.606	23315
832.744	23212
832.883	23124
833.022	23204
833.16	23178
833.299	23250
833.437	23170
833.576	23208
833.714	23261
833.852	23440
833.991	23269
834.129	23364
834.267	23341
834.406	23356
834.544	23292
834.682	23273
834.821	23341
834.959	23478
835.097	23258
835.235	23292
835.373	23383
835.511	23296
835.65	23197
835.788	23113
835.926	22987
836.064	23018
836.202	23010
836.34	23151
836.478	23140
836.615	23185
836.753	23178
836.891	23254
837.029	23239
837.167	23143
837.305	22965
837.443	23064
837.58	23105
837.718	23048
837.856	23113
837.993	22949
838.131	22923
838.269	22892
838.406	22938
838.544	22778
838.681	22767
838.819	22592
838.956	22462
839.094	22455
839.231	22596
839.369	22702
839.506	22820
839.643	22698
839.781	22386
839.918	22333
840.055	22390
840.193	22527
840.33	22344
840.467	22413
840.604	22390
840.742	22778
840.879	22230
841.016	22371
841.153	22394
841.29	22447
841.427	22485
841.564	22386
841.701	22348
841.838	22390
841.975	22257
842.112	22363
842.249	22226
842.385	22196
842.522	22466
842.659	22284
842.796	22162
842.933	22128
843.069	22162
843.206	21937
843.343	22215
843.479	22147
843.616	22295
843.752	22002
843.889	21899
844.025	22093
844.162	21835
844.298	22158
844.435	21911
844.571	21895
844.708	22013
844.844	22082
844.98	21987
845.117	22055
845.253	21804
845.389	21774
845.525	21827
845.661	21797
845.798	21568
845.934	21770
846.07	21637
846.206	21671
846.342	21819
846.478	21622
846.614	21469
846.75	21431
846.886	21428
847.022	21473
847.158	21462
847.294	21492
847.429	21553
847.565	21294
847.701	21717
847.837	21184
847.972	21112
848.108	21218
848.244	21321
848.379	20899
848.515	21005
848.65	20849
848.786	21055
848.921	20963
849.057	21184
849.192	21085
849.328	21043
849.463	20910
849.598	20914
849.734	20998
849.869	20929
850.004	20739
850.14	20834
850.275	20674
850.41	20629
850.545	20716
850.68	20735
850.815	20807
850.95	20762
851.085	21013
851.22	20880
851.355	20842
851.49	20750
851.625	20724
851.76	20716
851.895	20735
852.03	20629
852.165	20887
852.299	20804
852.434	20883
852.569	20655
852.703	20979
852.838	20648
852.973	20880
853.107	20952
853.242	20823
853.376	20701
853.511	20488
853.645	20473
853.78	20773
853.914	20667
854.048	20583
854.183	20476
854.317	20545
854.451	20769
854.585	20655
854.72	20583
854.854	20701
854.988	20408
855.122	20670
855.256	20393
855.39	20701
855.524	20594
855.658	20705
855.792	20708
855.926	20670
856.06	20590
856.194	20678
856.327	20541
856.461	20575
856.595	20499
856.729	20590
856.862	20712
856.996	20552
857.13	20670
857.263	20705
857.397	20686
857.53	20590
857.664	20651
857.797	20674
857.931	20636
858.064	20587
858.197	20697
858.331	20575
858.464	20492
858.597	20450
858.731	20480
858.864	20697
858.997	20602
859.13	20617
859.263	20499
859.396	20693
859.529	20537
859.662	20625
859.795	20469
859.928	20526
860.061	20743
860.194	20731
860.327	20693
860.46	20518
860.592	20697
860.725	20773
860.858	20777
860.99	20526
861.123	20469
861.256	20609
861.388	20632
861.521	21195
861.653	20434
861.786	20313
861.918	20404
862.05	20503
862.183	20499
862.315	20621
862.447	20724
862.58	20541
862.712	20469
862.844	20278
862.976	20495
863.108	20461
863.24	20735
863.372	20252
863.504	20381
863.636	20328
863.768	20393
863.9	20412
864.032	20275
864.164	20309
864.296	20385
864.428	20415
864.559	20385
864.691	20400
864.823	20366
864.954	20301
865.086	20366
865.217	20347
865.349	20164
865.48	20336
865.612	20225
865.743	20358
865.875	20191
866.006	20206
866.137	20195
866.269	20259
866.4	20142
866.531	20199
866.662	20172
866.793	20161
866.924	20180
867.055	20301
867.186	20202
867.317	20119
867.448	20046
867.579	20134
867.71	20077
867.841	20027
867.972	20164
868.103	20191
868.233	20142
868.364	20218
868.495	20339
868.625	20366
868.756	20461
868.886	20240
869.017	20488
869.147	20442
869.278	20492
869.408	20461
869.539	20385
869.669	20571
869.799	20526
869.929	20514
870.06	20526
870.19	20880
870.32	20712
870.45	20693
870.58	20769
870.71	20872
870.84	20971
870.97	20861
871.1	20876
871.23	20948
871.36	21043
871.489	20849
871.619	20967
871.749	21028
871.879	21112
872.008	21218
872.138	21017
872.267	21051
872.397	20914
872.526	20754
872.656	20872
872.785	20864
872.915	21138
873.044	21017
873.173	21043
873.303	21017
873.432	21104
873.561	21104
873.69	21165
873.819	21039
873.948	21142
874.077	21036
874.206	20937
874.335	21058
874.464	21077
874.593	21272
874.722	21252
874.851	21310
874.979	21256
875.108	21370
875.237	21256
875.365	21268
875.494	21241
875.623	21401
875.751	21325
875.88	21355
876.008	21511
876.136	21606
876.265	21622
876.393	21892
876.521	21713
876.65	21759
876.778	21705
876.906	21606
877.034	21682
877.162	21610
877.29	21595
877.418	21690
877.546	21637
877.674	21736
877.802	21633
877.93	21637
878.058	21477
878.185	21530
878.313	21561
878.441	21633
878.568	21523
878.696	21690
878.824	21625
878.951	21648
879.079	21774
879.206	21819
879.333	21831
879.461	21641
879.588	21804
879.715	21903
879.842	21934
879.97	21778
880.097	21439
880.224	21374
880.351	21568
880.478	21492
880.605	21504
880.732	21450
880.859	21614
880.986	21408
881.112	21340
881.239	21348
881.366	21142
881.493	21142
881.619	21032
881.746	21100
881.872	21169
881.999	21017
882.125	20937
882.252	21043
882.378	21020
882.505	21150
882.631	20960
882.757	20792
882.883	20891
883.01	20674
883.136	20644
883.262	20727
883.388	20579
883.514	20781
883.64	20819
883.766	20648
883.892	20648
884.018	20518
884.143	20720
884.269	20697
884.395	20492
884.52	20423
884.646	20351
884.772	20408
884.897	20431
885.023	20404
885.148	20389
885.274	20556
885.399	20492
885.524	20389
885.65	20488
885.775	20526
885.9	20465
886.025	20526
886.15	20522
886.275	20358
886.4	20195
886.525	20271
886.65	20252
886.775	20324
886.9	20461
887.025	20625
887.149	20442
887.274	20100
887.399	20202
887.523	20202
887.648	20073
887.773	20054
887.897	20210
888.021	20282
888.146	20084
888.27	20237
888.395	20259
888.519	20328
888.643	20259
888.767	20199
888.891	20073
889.015	20012
889.139	19921
889.263	19986
889.387	20157
889.511	20168
889.635	20183
889.759	19936
889.883	19986
890.006	19944
890.13	20046
890.254	19925
890.377	19909
890.501	19689
890.624	19643
890.748	19788
890.871	19784
890.995	19605
891.118	19449
891.241	19567
891.364	19407
891.488	19765
891.611	19537
891.734	19655
891.857	19563
891.98	19666
892.103	19594
892.226	19605
892.349	19510
892.471	19388
892.594	19457
892.717	19590
892.839	19419
892.962	19457
893.085	19480
893.207	19476
893.33	19362
893.452	19343
893.575	19491
893.697	19499
893.819	19594
893.941	19746
894.064	19582
894.186	19563
894.308	19346
894.43	19544
894.552	19723
894.674	19601
894.796	19468
894.918	19525
895.04	19460
895.161	19605
895.283	19445
895.405	19377
895.526	19438
895.648	19430
895.769	19499
895.891	19514
896.012	19609
896.134	19506
896.255	19552
896.376	19441
896.498	19540
896.619	19552
896.74	19460
896.861	19464
896.982	19913
897.103	19902
897.224	19849
897.345	19753
897.466	19734
897.587	19723
897.708	19894
897.828	19719
897.949	19670
898.07	19552
898.19	19727
898.311	19864
898.431	19689
898.552	19738
898.672	19734
898.792	19849
898.913	19791
899.033	19670
899.153	19457
899.273	19377
899.393	19525
899.513	19540
899.633	19499
899.753	19506
899.873	19396
899.993	19521
900.113	19343
900.232	19567
900.352	19312
900.472	19339
900.591	19320
900.711	19346
900.83	19251
900.95	19343
901.069	19419
901.189	19289
901.308	18871
901.427	18829
901.546	18795
901.665	18856
901.784	18882
901.904	18570
902.023	18593
902.141	18513
902.26	18369
902.379	18456
902.498	18376
902.617	18285
902.735	18403
902.854	18239
902.973	18273
903.091	18072
903.21	18003
903.328	17950
903.446	18030
903.565	17821
903.683	17923
903.801	17859
903.919	17828
904.038	17786
904.156	17589
904.274	17714
904.392	17661
904.51	17630
904.627	17589
904.745	17623
904.863	17672
904.981	17566
905.098	17277
905.216	17417
905.334	17299
905.451	17303
905.569	17269
905.686	17250
905.803	17337
905.921	17136
906.038	17189
906.155	17181
906.272	17071
906.389	17045
906.506	16923
906.623	16862
906.74	16805
906.857	16820
906.974	16710
907.091	16828
907.208	16968
907.324	16911
907.441	16683
907.557	16588
907.674	16561
907.79	16573
907.907	16436
908.023	16500
908.139	16489
908.256	16550
908.372	16512
908.488	16481
908.604	16325
908.72	16257
908.836	16344
908.952	16306
909.068	16402
909.184	16287
909.3	16268
909.415	16238
909.531	16287
909.647	15979
909.762	15937
909.878	16032
909.993	16021
910.108	16071
910.224	15964
910.339	16013
910.454	15949
910.57	15789
910.685	15690
910.8	16067
910.915	16021
911.03	15854
911.145	15663
911.259	15507
911.374	15610
911.489	15504
911.604	15534
911.718	15367
911.833	15428
911.947	15313
912.062	15154
912.176	15408
912.291	15306
912.405	15374
912.519	15545
912.633	15568
912.748	15412
912.862	15386
912.976	15230
913.09	15131
913.204	15169
913.318	15165
913.431	15195
913.545	15256
913.659	15135
913.772	15157
913.886	15028
914	14929
914.113	15077
914.226	15180
914.34	15066
914.453	14895
914.566	15013
914.68	14910
914.793	14868
914.906	14716
915.019	14602
915.132	14632
915.245	14640
915.358	14621
915.47	14564
915.583	14571
915.696	14610
915.809	14743
915.921	14739
916.034	14579
916.146	14541
916.259	14423
916.371	14590
916.483	14606
916.595	14431
916.708	14511
916.82	14377
916.932	14385
917.044	14419
917.156	14484
917.268	14324
917.38	14374
917.491	14336
917.603	14282
917.715	14370
917.826	14328
917.938	14210
918.049	14195
918.161	14252
918.272	14324
918.384	14320
918.495	14240
918.606	14126
918.717	13944
918.828	14020
918.939	14161
919.05	13997
919.161	14027
919.272	13814
919.383	13928
919.494	14130
919.604	14191
919.715	13959
919.826	14031
919.936	14035
920.047	14046
920.157	14012
920.267	14233
920.378	14008
920.488	14008
920.598	14123
920.708	14385
920.818	14195
920.928	14073
921.038	14290
921.148	14199
921.258	13993
921.368	13837
921.477	13788
921.587	13738
921.697	13658
921.806	13772
921.916	13582
922.025	13506
922.134	13487
922.244	13381
922.353	13483
922.462	13320
922.571	13255
922.68	13110
922.789	13065
922.898	13080
923.007	13031
923.116	13053
923.224	13171
923.333	13080
923.442	12954
923.55	12837
923.659	12837
923.767	12985
923.876	12882
923.984	12939
924.092	12745
924.201	12753
924.309	12833
924.417	12863
924.525	12749
924.633	12745
924.741	13769
924.849	12612
924.956	12722
925.064	12544
925.172	12517
925.279	12509
925.387	12513
925.494	12494
925.602	12650
925.709	12460
925.816	12395
925.924	12460
926.031	12403
926.138	12467
926.245	12536
926.352	12395
926.459	12479
926.566	12547
926.673	12388
926.779	12311
926.886	12243
926.993	12190
927.099	12079
927.206	12155
927.312	12049
927.419	12163
927.525	12129
927.631	12117
927.737	11980
927.843	11874
927.95	11809
928.056	11851
928.162	11901
928.267	12007
928.373	12566
928.479	12026
928.585	11813
928.69	11920
928.796	11916
928.901	11729
929.007	11619
929.112	11779
929.218	11695
929.323	11695
929.428	11653
929.533	11802
929.638	11619
929.743	11623
929.848	11714
929.953	11596
930.058	11516
930.163	11417
930.267	11383
930.372	11509
930.477	11337
930.581	11482
930.685	11421
930.79	11299
930.894	11258
930.998	11254
931.103	11277
931.207	10968
931.311	10949
931.415	10786
931.519	10565
931.623	10611
