Data from test_V78500241_2495.txt Node
Date: Fri Mar 25 15:27:13 CST 2022
User: usil
Spectrometer: V785-0024
Trigger mode: 0
Integration Time (sec): 4.000000E-1
Scans to average: 1
Nonlinearity correction enabled: false
Boxcar width: 0
Storing dark spectrum: false
XAxis mode: Wavelengths
Number of Pixels in Spectrum: 1024
>>>>>Begin Spectral Data<<<<<
801.071	27176
801.214	27207
801.356	26902
801.499	26815
801.641	26853
801.783	26872
801.926	26712
802.068	26731
802.211	26842
802.353	26571
802.496	26438
802.638	26355
802.78	26248
802.923	26298
803.065	26210
803.208	26202
803.35	26351
803.492	26495
803.635	26644
803.777	26381
803.919	26598
804.061	26727
804.204	26613
804.346	26636
804.488	26450
804.63	26507
804.773	26537
804.915	26442
805.057	26598
805.199	26473
805.341	26587
805.483	26621
805.626	26560
805.768	26461
805.91	26663
806.052	26590
806.194	26568
806.336	26674
806.478	26701
806.62	26598
806.762	26781
806.904	26834
807.046	27055
807.188	27043
807.33	27100
807.472	27123
807.614	26807
807.756	27017
807.898	26807
808.04	26750
808.182	26754
808.324	26819
808.465	26952
808.607	26998
808.749	27233
808.891	27340
809.033	27283
809.174	27348
809.316	27119
809.458	27195
809.6	27100
809.741	27336
809.883	27427
810.025	27435
810.166	27553
810.308	27481
810.45	27340
810.591	27367
810.733	27169
810.875	27218
811.016	27043
811.158	27165
811.299	27336
811.441	27393
811.582	27458
811.724	27275
811.865	27100
812.007	27131
812.148	27157
812.29	27199
812.431	27420
812.573	27416
812.714	27576
812.855	27793
812.997	27956
813.138	27941
813.279	27797
813.421	27770
813.562	27610
813.703	27420
813.845	27291
813.986	27001
814.127	27096
814.268	26758
814.41	26899
814.551	26819
814.692	26937
814.833	26895
814.974	26861
815.115	26998
815.256	26785
815.397	26697
815.539	26781
815.68	26697
815.821	26621
815.962	26617
816.103	26514
816.244	26549
816.385	26495
816.526	26400
816.666	26278
816.807	26119
816.948	26103
817.089	26168
817.23	26092
817.371	26126
817.512	26122
817.653	26107
817.793	26111
817.934	26065
818.075	26115
818.216	26107
818.356	26024
818.497	25936
818.638	25902
818.778	25936
818.919	25936
819.06	25894
819.2	26035
819.341	26168
819.481	26358
819.622	26237
819.762	26450
819.903	26419
820.043	26271
820.184	26294
820.324	26138
820.465	26332
820.605	26370
820.746	26046
820.886	26012
821.026	26206
821.167	26145
821.307	26176
821.447	26084
821.588	25986
821.728	25917
821.868	25586
822.008	25597
822.149	25609
822.289	25609
822.429	25324
822.569	25335
822.709	25327
822.849	25141
822.99	25160
823.13	25103
823.27	25019
823.41	24943
823.55	24722
823.69	25015
823.83	24817
823.97	24760
824.11	24795
824.25	24700
824.389	24665
824.529	24787
824.669	24715
824.809	24958
824.949	24779
825.089	24669
825.228	24749
825.368	24521
825.508	24536
825.648	24650
825.787	24722
825.927	24798
826.067	24479
826.206	24593
826.346	24608
826.485	24654
826.625	24650
826.765	24604
826.904	24734
827.044	24270
827.183	24418
827.323	24342
827.462	24334
827.601	24342
827.741	24285
827.88	24315
828.02	24220
828.159	24239
828.298	24338
828.437	24273
828.577	24228
828.716	24410
828.855	24216
828.994	24034
829.134	24041
829.273	24182
829.412	24018
829.551	24083
829.69	24011
829.829	23954
829.968	24228
830.107	24114
830.246	24079
830.385	23916
830.524	23992
830.663	23901
830.802	23828
830.941	23646
831.08	23619
831.219	23809
831.357	23703
831.496	23805
831.635	23642
831.774	23478
831.913	23520
832.051	23455
832.19	23421
832.329	23448
832.467	23383
832.606	23273
832.744	23299
832.883	23337
833.022	23334
833.16	23265
833.299	23379
833.437	23360
833.576	23417
833.714	23471
833.852	23516
833.991	23395
834.129	23414
834.267	23524
834.406	23444
834.544	23356
834.682	23387
834.821	23471
834.959	23554
835.097	23265
835.235	23459
835.373	23372
835.511	23337
835.65	23372
835.788	23231
835.926	23113
836.064	23064
836.202	23121
836.34	23277
836.478	23337
836.615	23250
836.753	23113
836.891	23303
837.029	23265
837.167	23098
837.305	23128
837.443	23166
837.58	23006
837.718	23136
837.856	23159
837.993	23094
838.131	23155
838.269	23010
838.406	23067
838.544	22771
838.681	22672
838.819	22824
838.956	22554
839.094	22561
839.231	22630
839.369	22694
839.506	22934
839.643	22927
839.781	22573
839.918	22497
840.055	22508
840.193	22451
840.33	22481
840.467	22573
840.604	22634
840.742	22847
840.879	22443
841.016	22394
841.153	22462
841.29	22573
841.427	22447
841.564	22630
841.701	22478
841.838	22538
841.975	22352
842.112	22421
842.249	22451
842.385	22451
842.522	22527
842.659	22325
842.796	22253
842.933	22162
843.069	22333
843.206	22143
843.343	22325
843.479	22284
843.616	22207
843.752	22029
843.889	22158
844.025	22219
844.162	22044
844.298	22162
844.435	22116
844.571	21880
844.708	22002
844.844	22166
844.98	22109
845.117	22063
845.253	21994
845.389	21880
845.525	21934
845.661	21759
845.798	21781
845.934	21770
846.07	21766
846.206	21739
846.342	21991
846.478	21694
846.614	21583
846.75	21428
846.886	21466
847.022	21644
847.158	21542
847.294	21397
847.429	21652
847.565	21351
847.701	21755
847.837	21218
847.972	21218
848.108	21264
848.244	21382
848.379	21180
848.515	21157
848.65	21138
848.786	21047
848.921	21055
849.057	21230
849.192	21169
849.328	21112
849.463	21039
849.598	20986
849.734	21096
849.869	21123
850.004	20853
850.14	20960
850.275	20765
850.41	20838
850.545	20845
850.68	20804
850.815	20895
850.95	20743
851.085	21047
851.22	21017
851.355	20872
851.49	20918
851.625	20811
851.76	20811
851.895	20830
852.03	20781
852.165	20956
852.299	20971
852.434	20960
852.569	20853
852.703	20815
852.838	20872
852.973	20990
853.107	21024
853.242	20921
853.376	20701
853.511	20412
853.645	20629
853.78	20807
853.914	20773
854.048	20625
854.183	20670
854.317	20625
854.451	20819
854.585	20765
854.72	20552
854.854	20769
854.988	20746
855.122	20663
855.256	20533
855.39	20693
855.524	20731
855.658	20724
855.792	20708
855.926	20800
856.06	20727
856.194	20777
856.327	20705
856.461	20632
856.595	20602
856.729	20705
856.862	20754
856.996	20720
857.13	20773
857.263	20724
857.397	20796
857.53	20735
857.664	20762
857.797	20762
857.931	20842
858.064	20682
858.197	20853
858.331	20651
858.464	20613
858.597	20552
858.731	20644
858.864	20765
858.997	20674
859.13	20796
859.263	20670
859.396	20708
859.529	20598
859.662	20556
859.795	20659
859.928	20708
860.061	20842
860.194	20906
860.327	20804
860.46	20667
860.592	20712
860.725	20853
860.858	20838
860.99	20705
861.123	20777
861.256	20663
861.388	20739
861.521	21313
861.653	20648
861.786	20469
861.918	20609
862.05	20579
862.183	20735
862.315	20594
862.447	20743
862.58	20522
862.712	20438
862.844	20385
862.976	20625
863.108	20514
863.24	20891
863.372	20431
863.504	20484
863.636	20347
863.768	20594
863.9	20328
864.032	20267
864.164	20332
864.296	20370
864.428	20507
864.559	20533
864.691	20480
864.823	20552
864.954	20286
865.086	20377
865.217	20294
865.349	20294
865.48	20358
865.612	20339
865.743	20465
865.875	20309
866.006	20218
866.137	20317
866.269	20317
866.4	20195
866.531	20324
866.662	20191
866.793	20244
866.924	20248
867.055	20218
867.186	20145
867.317	20149
867.448	20180
867.579	20214
867.71	20191
867.841	20195
867.972	20294
868.103	20187
868.233	20263
868.364	20202
868.495	20374
868.625	20484
868.756	20488
868.886	20298
869.017	20514
869.147	20495
869.278	20590
869.408	20419
869.539	20522
869.669	20686
869.799	20632
869.929	20503
870.06	20469
870.19	20883
870.32	20895
870.45	20918
870.58	20948
870.71	21058
870.84	21039
870.97	20895
871.1	20891
871.23	20994
871.36	21055
871.489	21036
871.619	21089
871.749	21195
871.879	21077
872.008	21180
872.138	21039
872.267	21062
872.397	20998
872.526	21017
872.656	20941
872.785	20899
872.915	21222
873.044	21127
873.173	21081
873.303	21062
873.432	21188
873.561	21146
873.69	21142
873.819	21184
873.948	21226
874.077	21093
874.206	21093
874.335	21085
874.464	21169
874.593	21268
874.722	21332
874.851	21458
874.979	21363
875.108	21389
875.237	21317
875.365	21237
875.494	21245
875.623	21458
875.751	21424
875.88	21420
876.008	21485
876.136	21553
876.265	21774
876.393	21983
876.521	21751
876.65	21785
876.778	21793
876.906	21641
877.034	21583
877.162	21720
877.29	21698
877.418	21789
877.546	21705
877.674	21641
877.802	21736
877.93	21675
878.058	21759
878.185	21637
878.313	21736
878.441	21690
878.568	21511
878.696	21557
878.824	21663
878.951	21747
879.079	21854
879.206	21972
879.333	21755
879.461	21747
879.588	21838
879.715	21831
879.842	21975
879.97	21724
880.097	21511
880.224	21500
880.351	21549
880.478	21587
880.605	21481
880.732	21454
880.859	21705
880.986	21454
881.112	21564
881.239	21492
881.366	21359
881.493	21184
881.619	21184
881.746	21058
881.872	21138
881.999	21116
882.125	21119
882.252	21142
882.378	21116
882.505	21260
882.631	20998
882.757	20853
882.883	20842
883.01	20864
883.136	20777
883.262	20682
883.388	20701
883.514	20872
883.64	20963
883.766	20823
883.892	20632
884.018	20632
884.143	20883
884.269	20777
884.395	20549
884.52	20419
884.646	20480
884.772	20454
884.897	20332
885.023	20454
885.148	20594
885.274	20530
885.399	20537
885.524	20473
885.65	20469
885.775	20602
885.9	20427
886.025	20590
886.15	20663
886.275	20476
886.4	20355
886.525	20488
886.65	20415
886.775	20393
886.9	20655
887.025	20602
887.149	20434
887.274	20301
887.399	20347
887.523	20214
887.648	20145
887.773	20046
887.897	20347
888.021	20168
888.146	20229
888.27	20385
888.395	20332
888.519	20206
888.643	20271
888.767	20431
888.891	20149
889.015	20096
889.139	20096
889.263	20020
889.387	20077
889.511	20317
889.635	20084
889.759	19925
889.883	20130
890.006	20024
890.13	20256
890.254	20077
890.377	20111
890.501	19913
890.624	19776
890.748	19841
890.871	19727
890.995	19567
891.118	19670
891.241	19597
891.364	19495
891.488	19719
891.611	19616
891.734	19677
891.857	19727
891.98	19670
892.103	19613
892.226	19620
892.349	19571
892.471	19468
892.594	19632
892.717	19639
892.839	19510
892.962	19506
893.085	19578
893.207	19628
893.33	19514
893.452	19468
893.575	19578
893.697	19453
893.819	19670
893.941	19655
894.064	19575
894.186	19438
894.308	19468
894.43	19601
894.552	19651
894.674	19559
894.796	19571
894.918	19502
895.04	19521
895.161	19563
895.283	19449
895.405	19514
895.526	19559
895.648	19533
895.769	19491
895.891	19575
896.012	19712
896.134	19689
896.255	19449
896.376	19518
896.498	19590
896.619	19590
896.74	19727
896.861	19597
896.982	19788
897.103	19906
897.224	19776
897.345	19860
897.466	19746
897.587	19830
897.708	19894
897.828	19845
897.949	19658
898.07	19757
898.19	19742
898.311	19696
898.431	19662
898.552	19674
898.672	19822
898.792	19909
898.913	19757
899.033	19696
899.153	19635
899.273	19472
899.393	19582
899.513	19651
899.633	19506
899.753	19548
899.873	19441
899.993	19609
900.113	19453
900.232	19514
900.352	19472
900.472	19304
900.591	19217
900.711	19430
900.83	19324
900.95	19335
901.069	19396
901.189	19274
901.308	19050
901.427	18951
901.546	19038
901.665	18909
901.784	18905
901.904	18821
902.023	18616
902.141	18486
902.26	18346
902.379	18585
902.498	18410
902.617	18395
902.735	18437
902.854	18399
902.973	18346
903.091	18114
903.21	18087
903.328	18125
903.446	18034
903.565	17927
903.683	17965
903.801	17710
903.919	17965
904.038	17855
904.156	17710
904.274	17672
904.392	17687
904.51	17710
904.627	17684
904.745	17668
904.863	17798
904.981	17547
905.098	17429
905.216	17452
905.334	17433
905.451	17379
905.569	17330
905.686	17402
905.803	17349
905.921	17136
906.038	17360
906.155	17265
906.272	16976
906.389	17193
906.506	16923
906.623	16934
906.74	16809
906.857	16801
906.974	16763
907.091	16915
907.208	17018
907.324	16987
907.441	16767
907.557	16668
907.674	16687
907.79	16611
907.907	16653
908.023	16694
908.139	16569
908.256	16531
908.372	16546
908.488	16542
908.604	16409
908.72	16310
908.836	16352
908.952	16337
909.068	16440
909.184	16474
909.3	16367
909.415	16386
909.531	16375
909.647	16177
909.762	16048
909.878	16032
909.993	16128
910.108	16071
910.224	16074
910.339	16082
910.454	15937
910.57	15911
910.685	15789
910.8	16074
910.915	16040
911.03	15869
911.145	15743
911.259	15694
911.374	15576
911.489	15663
911.604	15591
911.718	15344
911.833	15515
911.947	15428
912.062	15408
912.176	15481
912.291	15469
912.405	15580
912.519	15618
912.633	15698
912.748	15405
912.862	15389
912.976	15268
913.09	15165
913.204	15199
913.318	15272
913.431	15344
913.545	15275
913.659	15355
913.772	15203
913.886	15020
914	15097
914.113	15218
914.226	15256
914.34	15116
914.453	14925
914.566	15222
914.68	14868
914.793	14891
914.906	14807
915.019	14587
915.132	14613
915.245	14686
915.358	14659
915.47	14712
915.583	14758
915.696	14686
915.809	14739
915.921	14872
916.034	14606
916.146	14522
916.259	14522
916.371	14651
916.483	14594
916.595	14518
916.708	14549
916.82	14541
916.932	14492
917.044	14469
917.156	14473
917.268	14294
917.38	14457
917.491	14336
917.603	14362
917.715	14362
917.826	14473
917.938	14168
918.049	14096
918.161	14294
918.272	14366
918.384	14396
918.495	14244
918.606	14126
918.717	14027
918.828	14115
918.939	14081
919.05	14039
919.161	14081
919.272	13852
919.383	13978
919.494	14126
919.604	14298
919.715	14202
919.826	13974
919.936	14031
920.047	14020
920.157	14050
920.267	14320
920.378	14050
920.488	13940
920.598	14332
920.708	14309
920.818	14149
920.928	14191
921.038	14301
921.148	14278
921.258	13993
921.368	14016
921.477	13860
921.587	13742
921.697	13681
921.806	13818
921.916	13731
922.025	13483
922.134	13518
922.244	13430
922.353	13571
922.462	13331
922.571	13324
922.68	13114
922.789	13126
922.898	13175
923.007	13084
923.116	13099
923.224	13088
923.333	13057
923.442	12973
923.55	13046
923.659	13027
923.767	13031
923.876	12909
923.984	12996
924.092	12871
924.201	12871
924.309	12882
924.417	12951
924.525	12802
924.633	12825
924.741	13769
924.849	12612
924.956	12677
925.064	12593
925.172	12467
925.279	12540
925.387	12544
925.494	12578
925.602	12669
925.709	12635
925.816	12467
925.924	12460
926.031	12612
926.138	12460
926.245	12490
926.352	12372
926.459	12506
926.566	12582
926.673	12426
926.779	12361
926.886	12300
926.993	12182
927.099	12163
927.206	12064
927.312	12102
927.419	12152
927.525	12125
927.631	12121
927.737	12060
927.843	12026
927.95	11874
928.056	12003
928.162	12007
928.267	11923
928.373	12585
928.479	12091
928.585	11775
928.69	11965
928.796	11969
928.901	11767
929.007	11745
929.112	11817
929.218	11767
929.323	11710
929.428	11688
929.533	11901
929.638	11619
929.743	11714
929.848	11733
929.953	11649
930.058	11589
930.163	11307
930.267	11512
930.372	11581
930.477	11395
930.581	11589
930.685	11482
930.79	11303
930.894	11189
930.998	11353
931.103	11406
931.207	10968
931.311	10976
931.415	10911
931.519	10714
931.623	10675
