Data from test_V78500241_3412.txt Node
Date: Fri Mar 25 15:33:37 CST 2022
User: usil
Spectrometer: V785-0024
Trigger mode: 0
Integration Time (sec): 4.000000E-1
Scans to average: 1
Nonlinearity correction enabled: false
Boxcar width: 0
Storing dark spectrum: false
XAxis mode: Wavelengths
Number of Pixels in Spectrum: 1024
>>>>>Begin Spectral Data<<<<<
801.071	27397
801.214	27214
801.356	27032
801.499	26956
801.641	26891
801.783	26864
801.926	26800
802.068	26785
802.211	26678
802.353	26613
802.496	26465
802.638	26503
802.78	26442
802.923	26309
803.065	26187
803.208	26366
803.35	26537
803.492	26511
803.635	26705
803.777	26545
803.919	26568
804.061	26906
804.204	26670
804.346	26507
804.488	26632
804.63	26431
804.773	26488
804.915	26621
805.057	26815
805.199	26587
805.341	26720
805.483	26712
805.626	26640
805.768	26765
805.91	26697
806.052	26697
806.194	26655
806.336	26785
806.478	26792
806.62	26590
806.762	26804
806.904	27036
807.046	27218
807.188	27062
807.33	27135
807.472	27062
807.614	26982
807.756	26979
807.898	27062
808.04	26948
808.182	26868
808.324	26982
808.465	26925
808.607	27287
808.749	27214
808.891	27386
809.033	27439
809.174	27336
809.316	27214
809.458	27154
809.6	27256
809.741	27249
809.883	27291
810.025	27572
810.166	27557
810.308	27507
810.45	27534
810.591	27435
810.733	27363
810.875	27386
811.016	27268
811.158	27154
811.299	27329
811.441	27481
811.582	27389
811.724	27256
811.865	27241
812.007	27424
812.148	27279
812.29	27386
812.431	27458
812.573	27576
812.714	27728
812.855	27789
812.997	27907
813.138	27960
813.279	27808
813.421	27800
813.562	27717
813.703	27690
813.845	27553
813.986	27207
814.127	27070
814.268	27028
814.41	27036
814.551	26910
814.692	27077
814.833	26815
814.974	26986
815.115	26864
815.256	26845
815.397	26765
815.539	26773
815.68	26705
815.821	26716
815.962	26849
816.103	26632
816.244	26549
816.385	26442
816.526	26438
816.666	26282
816.807	26180
816.948	26328
817.089	26244
817.23	26290
817.371	26218
817.512	26336
817.653	26221
817.793	26115
817.934	26233
818.075	26404
818.216	26332
818.356	26122
818.497	26107
818.638	25947
818.778	25940
818.919	25814
819.06	25963
819.2	26157
819.341	26153
819.481	26294
819.622	26317
819.762	26480
819.903	26453
820.043	26339
820.184	26389
820.324	26366
820.465	26362
820.605	26168
820.746	26286
820.886	26054
821.026	26389
821.167	26180
821.307	26400
821.447	26233
821.588	26054
821.728	25925
821.868	25814
822.008	25693
822.149	25689
822.289	25750
822.429	25449
822.569	25445
822.709	25255
822.849	25221
822.99	25244
823.13	25118
823.27	25194
823.41	25069
823.55	24890
823.69	25091
823.83	25103
823.97	24981
824.11	24741
824.25	24806
824.389	24878
824.529	24882
824.669	24882
824.809	24935
824.949	24856
825.089	24924
825.228	24939
825.368	24631
825.508	24741
825.648	24711
825.787	24719
825.927	24859
826.067	24738
826.206	24844
826.346	24711
826.485	24802
826.625	24791
826.765	24833
826.904	24783
827.044	24597
827.183	24486
827.323	24422
827.462	24566
827.601	24437
827.741	24403
827.88	24494
828.02	24422
828.159	24338
828.298	24399
828.437	24479
828.577	24384
828.716	24498
828.855	24456
828.994	24068
829.134	24007
829.273	24026
829.412	24034
829.551	24098
829.69	24098
829.829	24239
829.968	24159
830.107	24254
830.246	24155
830.385	24110
830.524	24182
830.663	24015
830.802	23874
830.941	23836
831.08	23718
831.219	23733
831.357	23901
831.496	23996
831.635	23836
831.774	23638
831.913	23524
832.051	23554
832.19	23581
832.329	23440
832.467	23448
832.606	23531
832.744	23292
832.883	23402
833.022	23459
833.16	23395
833.299	23490
833.437	23490
833.576	23474
833.714	23585
833.852	23497
833.991	23558
834.129	23623
834.267	23570
834.406	23539
834.544	23566
834.682	23501
834.821	23516
834.959	23638
835.097	23421
835.235	23391
835.373	23589
835.511	23478
835.65	23448
835.788	23299
835.926	23239
836.064	23212
836.202	23060
836.34	23387
836.478	23406
836.615	23395
836.753	23341
836.891	23341
837.029	23395
837.167	23398
837.305	23307
837.443	23246
837.58	23254
837.718	23121
837.856	23280
837.993	23094
838.131	23193
838.269	23204
838.406	23185
838.544	23071
838.681	22850
838.819	22873
838.956	22691
839.094	22653
839.231	22824
839.369	23022
839.506	23143
839.643	22877
839.781	22755
839.918	22660
840.055	22733
840.193	22694
840.33	22596
840.467	22637
840.604	22740
840.742	22866
840.879	22455
841.016	22592
841.153	22481
841.29	22611
841.427	22641
841.564	22687
841.701	22588
841.838	22500
841.975	22565
842.112	22527
842.249	22527
842.385	22318
842.522	22649
842.659	22436
842.796	22466
842.933	22421
843.069	22310
843.206	22348
843.343	22443
843.479	22451
843.616	22303
843.752	22238
843.889	22181
844.025	22398
844.162	22173
844.298	22386
844.435	22242
844.571	22177
844.708	22173
844.844	22318
844.98	22363
845.117	22154
845.253	22143
845.389	22101
845.525	22059
845.661	21964
845.798	21846
845.934	21884
846.07	21911
846.206	21934
846.342	21987
846.478	21808
846.614	21694
846.75	21568
846.886	21656
847.022	21743
847.158	21732
847.294	21671
847.429	21644
847.565	21720
847.701	21895
847.837	21344
847.972	21329
848.108	21428
848.244	21458
848.379	21344
848.515	21336
848.65	21260
848.786	21211
848.921	21275
849.057	21264
849.192	21313
849.328	21237
849.463	21298
849.598	21298
849.734	21157
849.869	21089
850.004	20937
850.14	21024
850.275	21180
850.41	20975
850.545	20937
850.68	20948
850.815	20906
850.95	20994
851.085	21184
851.22	21055
851.355	20967
851.49	20967
851.625	20853
851.76	20918
851.895	20918
852.03	20868
852.165	21051
852.299	20963
852.434	21058
852.569	20819
852.703	20967
852.838	21089
852.973	21237
853.107	21116
853.242	20952
853.376	20826
853.511	20758
853.645	20769
853.78	20982
853.914	20883
854.048	20811
854.183	20773
854.317	20811
854.451	20929
854.585	20842
854.72	20804
854.854	20937
854.988	20773
855.122	20807
855.256	20739
855.39	20727
855.524	20937
855.658	20967
855.792	20815
855.926	20815
856.06	20899
856.194	20887
856.327	20765
856.461	20716
856.595	20739
856.729	20762
856.862	20902
856.996	20880
857.13	20887
857.263	20902
857.397	20826
857.53	20762
857.664	20937
857.797	20842
857.931	20986
858.064	20883
858.197	20967
858.331	20838
858.464	20807
858.597	20815
858.731	20773
858.864	20781
858.997	20754
859.13	20941
859.263	20769
859.396	20834
859.529	20819
859.662	20868
859.795	20807
859.928	20899
860.061	20826
860.194	21024
860.327	20864
860.46	20739
860.592	21020
860.725	21013
860.858	20872
860.99	20849
861.123	20693
861.256	20773
861.388	20727
861.521	21549
861.653	20701
861.786	20648
861.918	20606
862.05	20712
862.183	20773
862.315	20735
862.447	20819
862.58	20762
862.712	20499
862.844	20347
862.976	20583
863.108	20724
863.24	20944
863.372	20400
863.504	20564
863.636	20480
863.768	20480
863.9	20530
864.032	20457
864.164	20450
864.296	20579
864.428	20667
864.559	20686
864.691	20587
864.823	20552
864.954	20522
865.086	20473
865.217	20503
865.349	20442
865.48	20457
865.612	20457
865.743	20682
865.875	20492
866.006	20385
866.137	20511
866.269	20507
866.4	20393
866.531	20454
866.662	20275
866.793	20313
866.924	20320
867.055	20305
867.186	20423
867.317	20377
867.448	20240
867.579	20381
867.71	20263
867.841	20339
867.972	20465
868.103	20374
868.233	20408
868.364	20366
868.495	20526
868.625	20613
868.756	20632
868.886	20495
869.017	20651
869.147	20720
869.278	20758
869.408	20655
869.539	20560
869.669	20693
869.799	20590
869.929	20724
870.06	20720
870.19	20883
870.32	20921
870.45	21017
870.58	21036
870.71	21192
870.84	21047
870.97	21089
871.1	20998
871.23	21180
871.36	21218
871.489	21154
871.619	21142
871.749	21233
871.879	21233
872.008	21405
872.138	21237
872.267	21123
872.397	21062
872.526	21207
872.656	21089
872.785	21074
872.915	21283
873.044	21367
873.173	21161
873.303	21302
873.432	21256
873.561	21355
873.69	21268
873.819	21188
873.948	21283
874.077	21237
874.206	21237
874.335	21199
874.464	21283
874.593	21504
874.722	21416
874.851	21545
874.979	21443
875.108	21549
875.237	21515
875.365	21348
875.494	21424
875.623	21557
875.751	21477
875.88	21450
876.008	21682
876.136	21755
876.265	21949
876.393	21991
876.521	21895
876.65	22051
876.778	22006
876.906	21800
877.034	21797
877.162	21911
877.29	21743
877.418	21979
877.546	21964
877.674	21907
877.802	21972
877.93	21808
878.058	21808
878.185	21686
878.313	21819
878.441	21816
878.568	21778
878.696	21720
878.824	21717
878.951	21930
879.079	22021
879.206	22086
879.333	21949
879.461	21964
879.588	21888
879.715	21979
879.842	22105
879.97	21994
880.097	21641
880.224	21709
880.351	21698
880.478	21652
880.605	21675
880.732	21545
880.859	21926
880.986	21648
881.112	21663
881.239	21549
881.366	21443
881.493	21272
881.619	21287
881.746	21268
881.872	21298
881.999	21317
882.125	21043
882.252	21272
882.378	21363
882.505	21386
882.631	21150
882.757	20891
882.883	21055
883.01	20971
883.136	20937
883.262	20998
883.388	20773
883.514	20864
883.64	20899
883.766	20762
883.892	20758
884.018	20819
884.143	20785
884.269	20952
884.395	20617
884.52	20583
884.646	20682
884.772	20537
884.897	20552
885.023	20724
885.148	20640
885.274	20853
885.399	20739
885.524	20674
885.65	20602
885.775	20564
885.9	20564
886.025	20705
886.15	20765
886.275	20488
886.4	20663
886.525	20640
886.65	20575
886.775	20602
886.9	20689
887.025	20762
887.149	20545
887.274	20484
887.399	20271
887.523	20355
887.648	20301
887.773	20252
887.897	20427
888.021	20541
888.146	20248
888.27	20442
888.395	20423
888.519	20400
888.643	20278
888.767	20385
888.891	20404
889.015	20081
889.139	20286
889.263	20244
889.387	20210
889.511	20259
889.635	20233
889.759	20115
889.883	20221
890.006	20225
890.13	20256
890.254	20100
890.377	20035
890.501	19928
890.624	19917
890.748	20005
890.871	20016
890.995	19750
891.118	19712
891.241	19712
891.364	19719
891.488	19928
891.611	19674
891.734	19807
891.857	19784
891.98	19655
892.103	19799
892.226	19708
892.349	19715
892.471	19518
892.594	19628
892.717	19780
892.839	19662
892.962	19597
893.085	19772
893.207	19624
893.33	19590
893.452	19666
893.575	19696
893.697	19647
893.819	19719
893.941	19769
894.064	19769
894.186	19723
894.308	19457
894.43	19807
894.552	19833
894.674	19704
894.796	19605
894.918	19651
895.04	19693
895.161	19643
895.283	19609
895.405	19624
895.526	19677
895.648	19715
895.769	19594
895.891	19833
896.012	19685
896.134	19700
896.255	19723
896.376	19750
896.498	19685
896.619	19677
896.74	19719
896.861	19704
896.982	19989
897.103	20134
897.224	19947
897.345	19879
897.466	19750
897.587	19902
897.708	19997
897.828	19970
897.949	19849
898.07	19658
898.19	19731
898.311	19978
898.431	19951
898.552	19784
898.672	19974
898.792	19940
898.913	19906
899.033	19700
899.153	19712
899.273	19571
899.393	19620
899.513	19597
899.633	19601
899.753	19719
899.873	19575
899.993	19609
900.113	19666
900.232	19647
900.352	19597
900.472	19445
900.591	19407
900.711	19571
900.83	19369
900.95	19483
901.069	19502
901.189	19304
901.308	19118
901.427	19038
901.546	19110
901.665	19023
901.784	19015
901.904	18882
902.023	18711
902.141	18563
902.26	18578
902.379	18555
902.498	18593
902.617	18380
902.735	18563
902.854	18517
902.973	18445
903.091	18292
903.21	18201
903.328	18304
903.446	18148
903.565	17999
903.683	17958
903.801	17904
903.919	17889
904.038	17977
904.156	17912
904.274	17813
904.392	17885
904.51	17729
904.627	17764
904.745	17798
904.863	17897
904.981	17532
905.098	17505
905.216	17566
905.334	17482
905.451	17509
905.569	17360
905.686	17501
905.803	17478
905.921	17284
906.038	17296
906.155	17349
906.272	17064
906.389	17109
906.506	17048
906.623	17075
906.74	17102
906.857	16805
906.974	16873
907.091	16965
907.208	17064
907.324	17067
907.441	16892
907.557	16809
907.674	16801
907.79	16706
907.907	16622
908.023	16805
908.139	16869
908.256	16683
908.372	16645
908.488	16615
908.604	16531
908.72	16523
908.836	16512
908.952	16531
909.068	16512
909.184	16485
909.3	16478
909.415	16535
909.531	16390
909.647	16341
909.762	16253
909.878	16105
909.993	16128
910.108	16036
910.224	16040
910.339	16128
910.454	15998
910.57	15960
910.685	15781
910.8	16207
910.915	16131
911.03	15983
911.145	15789
911.259	15679
911.374	15793
911.489	15606
911.604	15648
911.718	15545
911.833	15450
911.947	15447
912.062	15344
912.176	15443
912.291	15496
912.405	15526
912.519	15644
912.633	15542
912.748	15568
912.862	15553
912.976	15317
913.09	15195
913.204	15313
913.318	15237
913.431	15500
913.545	15374
913.659	15447
913.772	15275
913.886	15195
914	15154
914.113	15252
914.226	15222
914.34	15173
914.453	15051
914.566	15146
914.68	15097
914.793	15013
914.906	14800
915.019	14788
915.132	14731
915.245	14701
915.358	14701
915.47	14857
915.583	14724
915.696	14785
915.809	14906
915.921	14857
916.034	14735
916.146	14602
916.259	14708
916.371	14693
916.483	14712
916.595	14617
916.708	14651
916.82	14610
916.932	14564
917.044	14450
917.156	14476
917.268	14374
917.38	14431
917.491	14412
917.603	14442
917.715	14446
917.826	14499
917.938	14438
918.049	14286
918.161	14434
918.272	14514
918.384	14556
918.495	14393
918.606	14164
918.717	14145
918.828	14157
918.939	14248
919.05	14081
919.161	14164
919.272	13974
919.383	14043
919.494	14202
919.604	14351
919.715	14229
919.826	14081
919.936	14130
920.047	14267
920.157	14195
920.267	14294
920.378	14149
920.488	14065
920.598	14431
920.708	14514
920.818	14183
920.928	14286
921.038	14396
921.148	14412
921.258	14142
921.368	13967
921.477	13925
921.587	13856
921.697	13791
921.806	13837
921.916	13677
922.025	13655
922.134	13556
922.244	13518
922.353	13575
922.462	13518
922.571	13388
922.68	13266
922.789	13183
922.898	13213
923.007	13187
923.116	13175
923.224	13247
923.333	13164
923.442	13000
923.55	13065
923.659	12966
923.767	13038
923.876	12928
923.984	13114
924.092	12840
924.201	12958
924.309	12894
924.417	13042
924.525	12897
924.633	12837
924.741	13902
924.849	12662
924.956	12810
925.064	12715
925.172	12566
925.279	12696
925.387	12662
925.494	12726
925.602	12764
925.709	12741
925.816	12566
925.924	12593
926.031	12692
926.138	12551
926.245	12669
926.352	12426
926.459	12688
926.566	12658
926.673	12559
926.779	12369
926.886	12391
926.993	12311
927.099	12251
927.206	12167
927.312	12148
927.419	12273
927.525	12148
927.631	12186
927.737	12079
927.843	12068
927.95	12015
928.056	12019
928.162	12007
928.267	12030
928.373	12612
928.479	12110
928.585	11783
928.69	11950
928.796	11999
928.901	11874
929.007	11775
929.112	11813
929.218	11748
929.323	11802
929.428	11733
929.533	11961
929.638	11699
929.743	11775
929.848	11794
929.953	11672
930.058	11589
930.163	11402
930.267	11520
930.372	11676
930.477	11440
930.581	11630
930.685	11543
930.79	11322
930.894	11410
930.998	11356
931.103	11474
931.207	11178
931.311	10980
931.415	10999
931.519	10809
931.623	10801
