Data from test_V78500241_575.txt Node
Date: Fri Mar 25 15:13:51 CST 2022
User: usil
Spectrometer: V785-0024
Trigger mode: 0
Integration Time (sec): 4.000000E-1
Scans to average: 1
Nonlinearity correction enabled: false
Boxcar width: 0
Storing dark spectrum: false
XAxis mode: Wavelengths
Number of Pixels in Spectrum: 1024
>>>>>Begin Spectral Data<<<<<
801.071	27416
801.214	27477
801.356	27165
801.499	27123
801.641	27047
801.783	26906
801.926	26994
802.068	26880
802.211	26800
802.353	26895
802.496	26590
802.638	26644
802.78	26644
802.923	26655
803.065	26530
803.208	26625
803.35	26667
803.492	26769
803.635	26613
803.777	26602
803.919	26773
804.061	27036
804.204	26754
804.346	26560
804.488	26716
804.63	26674
804.773	26693
804.915	26872
805.057	26754
805.199	26754
805.341	26956
805.483	26937
805.626	26902
805.768	26842
805.91	26826
806.052	26883
806.194	26739
806.336	27036
806.478	26960
806.62	26823
806.762	26971
806.904	27157
807.046	27401
807.188	27222
807.33	27344
807.472	27329
807.614	27188
807.756	27351
807.898	27169
808.04	27180
808.182	27135
808.324	27211
808.465	27104
808.607	27252
808.749	27485
808.891	27504
809.033	27671
809.174	27610
809.316	27629
809.458	27542
809.6	27561
809.741	27603
809.883	27641
810.025	27842
810.166	27766
810.308	27701
810.45	27717
810.591	27690
810.733	27530
810.875	27519
811.016	27382
811.158	27256
811.299	27568
811.441	27660
811.582	27603
811.724	27530
811.865	27511
812.007	27523
812.148	27671
812.29	27500
812.431	27819
812.573	27934
812.714	27937
812.855	28082
812.997	28093
813.138	28428
813.279	28249
813.421	28211
813.562	28082
813.703	27876
813.845	27842
813.986	27424
814.127	27332
814.268	27348
814.41	27340
814.551	27195
814.692	27157
814.833	27138
814.974	27142
815.115	27275
815.256	27154
815.397	27165
815.539	27165
815.68	27032
815.821	26975
815.962	27024
816.103	26876
816.244	26921
816.385	26880
816.526	26834
816.666	26598
816.807	26404
816.948	26568
817.089	26609
817.23	26526
817.371	26579
817.512	26499
817.653	26381
817.793	26431
817.934	26541
818.075	26518
818.216	26453
818.356	26518
818.497	26385
818.638	26218
818.778	26153
818.919	26263
819.06	26244
819.2	26396
819.341	26495
819.481	26568
819.622	26514
819.762	26689
819.903	26727
820.043	26629
820.184	26712
820.324	26495
820.465	26640
820.605	26484
820.746	26568
820.886	26492
821.026	26537
821.167	26450
821.307	26648
821.447	26560
821.588	26377
821.728	26168
821.868	26130
822.008	25902
822.149	25989
822.289	25921
822.429	25525
822.569	25590
822.709	25666
822.849	25350
822.99	25453
823.13	25346
823.27	25388
823.41	25145
823.55	25236
823.69	25244
823.83	25301
823.97	25213
824.11	25057
824.25	25095
824.389	25114
824.529	25194
824.669	25183
824.809	25270
824.949	25206
825.089	25088
825.228	24939
825.368	24973
825.508	24970
825.648	24981
825.787	24989
825.927	25027
826.067	25019
826.206	24947
826.346	24913
826.485	25012
826.625	24977
826.765	25175
826.904	25057
827.044	24901
827.183	24711
827.323	24726
827.462	24776
827.601	24654
827.741	24665
827.88	24673
828.02	24642
828.159	24688
828.298	24681
828.437	24681
828.577	24681
828.716	24829
828.855	24555
828.994	24384
829.134	24490
829.273	24380
829.412	24433
829.551	24418
829.69	24281
829.829	24479
829.968	24372
830.107	24452
830.246	24384
830.385	24247
830.524	24171
830.663	24209
830.802	24110
830.941	23988
831.08	23996
831.219	23969
831.357	24022
831.496	24296
831.635	23996
831.774	23961
831.913	23882
832.051	23802
832.19	23760
832.329	23737
832.467	23665
832.606	23585
832.744	23558
832.883	23657
833.022	23592
833.16	23878
833.299	23722
833.437	23779
833.576	23805
833.714	23775
833.852	23710
833.991	23916
834.129	23923
834.267	23646
834.406	23809
834.544	23821
834.682	23756
834.821	23741
834.959	23923
835.097	23680
835.235	23870
835.373	23775
835.511	23718
835.65	23474
835.788	23600
835.926	23467
836.064	23326
836.202	23379
836.34	23573
836.478	23619
836.615	23630
836.753	23619
836.891	23676
837.029	23623
837.167	23531
837.305	23566
837.443	23402
837.58	23459
837.718	23547
837.856	23368
837.993	23322
838.131	23360
838.269	23223
838.406	23303
838.544	23277
838.681	23223
838.819	22946
838.956	22854
839.094	22801
839.231	22991
839.369	23143
839.506	23284
839.643	23155
839.781	22953
839.918	22858
840.055	22900
840.193	22930
840.33	22889
840.467	22892
840.604	22866
840.742	23178
840.879	22812
841.016	22869
841.153	22805
841.29	22820
841.427	22679
841.564	22736
841.701	22763
841.838	22824
841.975	22767
842.112	22580
842.249	22687
842.385	22474
842.522	22740
842.659	22641
842.796	22702
842.933	22584
843.069	22538
843.206	22557
843.343	22713
843.479	22664
843.616	22557
843.752	22421
843.889	22508
844.025	22421
844.162	22341
844.298	22459
844.435	22325
844.571	22234
844.708	22428
844.844	22599
844.98	22508
845.117	22398
845.253	22447
845.389	22226
845.525	22226
845.661	22143
845.798	22067
845.934	22143
846.07	22124
846.206	22135
846.342	22303
846.478	21983
846.614	21812
846.75	21865
846.886	21861
847.022	21888
847.158	21880
847.294	21892
847.429	21850
847.565	21842
847.701	21994
847.837	21648
847.972	21519
848.108	21663
848.244	21568
848.379	21561
848.515	21469
848.65	21351
848.786	21233
848.921	21408
849.057	21507
849.192	21462
849.328	21397
849.463	21416
849.598	21458
849.734	21184
849.869	21317
850.004	21241
850.14	21241
850.275	21230
850.41	21176
850.545	21104
850.68	21096
850.815	21230
850.95	21135
851.085	21367
851.22	21283
851.355	21146
851.49	21127
851.625	21184
851.76	21028
851.895	21119
852.03	21047
852.165	21161
852.299	21184
852.434	21378
852.569	21313
852.703	21192
852.838	21241
852.973	21302
853.107	21321
853.242	21108
853.376	21043
853.511	20986
853.645	20880
853.78	21157
853.914	21028
854.048	20956
854.183	21013
854.317	21112
854.451	21230
854.585	21039
854.72	20967
854.854	21081
854.988	21024
855.122	20845
855.256	20861
855.39	21051
855.524	21157
855.658	21051
855.792	21100
855.926	21112
856.06	21074
856.194	21169
856.327	21077
856.461	20986
856.595	20944
856.729	21001
856.862	21009
856.996	21173
857.13	21077
857.263	21081
857.397	20967
857.53	20933
857.664	20872
857.797	21077
857.931	21055
858.064	21020
858.197	21184
858.331	21104
858.464	20880
858.597	20963
858.731	20944
858.864	21024
858.997	20910
859.13	21077
859.263	21089
859.396	20990
859.529	21039
859.662	20929
859.795	20933
859.928	21017
860.061	21024
860.194	21081
860.327	21123
860.46	20910
860.592	21009
860.725	21154
860.858	21138
860.99	21017
861.123	20914
861.256	20982
861.388	21043
861.521	21861
861.653	20788
861.786	20868
861.918	20769
862.05	20910
862.183	20864
862.315	20921
862.447	20982
862.58	20921
862.712	20602
862.844	20777
862.976	20819
863.108	20872
863.24	21135
863.372	20552
863.504	20830
863.636	20739
863.768	20773
863.9	20781
864.032	20629
864.164	20731
864.296	20800
864.428	20910
864.559	20800
864.691	20872
864.823	20834
864.954	20663
865.086	20765
865.217	20693
865.349	20659
865.48	20625
865.612	20644
865.743	20792
865.875	20682
866.006	20602
866.137	20613
866.269	20579
866.4	20602
866.531	20507
866.662	20431
866.793	20476
866.924	20609
867.055	20579
867.186	20511
867.317	20602
867.448	20450
867.579	20526
867.71	20568
867.841	20518
867.972	20602
868.103	20575
868.233	20689
868.364	20583
868.495	20579
868.625	20800
868.756	20804
868.886	20785
869.017	20853
869.147	20902
869.278	20845
869.408	20823
869.539	20735
869.669	20910
869.799	20883
869.929	21028
870.06	20952
870.19	21066
870.32	21074
870.45	21116
870.58	21188
870.71	21348
870.84	21321
870.97	21214
871.1	21104
871.23	21363
871.36	21344
871.489	21279
871.619	21428
871.749	21363
871.879	21389
872.008	21530
872.138	21332
872.267	21363
872.397	21313
872.526	21230
872.656	21116
872.785	21199
872.915	21344
873.044	21530
873.173	21466
873.303	21447
873.432	21340
873.561	21523
873.69	21405
873.819	21412
873.948	21500
874.077	21530
874.206	21420
874.335	21473
874.464	21580
874.593	21545
874.722	21660
874.851	21732
874.979	21759
875.108	21717
875.237	21648
875.365	21580
875.494	21656
875.623	21648
875.751	21530
875.88	21576
876.008	21732
876.136	21819
876.265	22112
876.393	22116
876.521	22139
876.65	22147
876.778	22044
876.906	21915
877.034	21998
877.162	22021
877.29	21876
877.418	21953
877.546	22032
877.674	21987
877.802	21895
877.93	22044
878.058	21983
878.185	21808
878.313	21994
878.441	21968
878.568	21918
878.696	21926
878.824	21975
878.951	22101
879.079	22200
879.206	22295
879.333	22196
879.461	21987
879.588	22074
879.715	22067
879.842	22234
879.97	22021
880.097	21800
880.224	21842
880.351	21816
880.478	21838
880.605	21774
880.732	21861
880.859	21911
880.986	21819
881.112	21876
881.239	21686
881.366	21610
881.493	21450
881.619	21401
881.746	21557
881.872	21367
881.999	21378
882.125	21344
882.252	21469
882.378	21370
882.505	21523
882.631	21272
882.757	21032
882.883	21222
883.01	21173
883.136	21138
883.262	20979
883.388	20906
883.514	21123
883.64	21142
883.766	21017
883.892	20902
884.018	20807
884.143	21119
884.269	21077
884.395	20830
884.52	20819
884.646	20769
884.772	20724
884.897	20625
885.023	20689
885.148	20887
885.274	20921
885.399	20762
885.524	20765
885.65	20705
885.775	20773
885.9	20629
886.025	20815
886.15	20762
886.275	20655
886.4	20575
886.525	20800
886.65	20689
886.775	20575
886.9	20830
887.025	20887
887.149	20785
887.274	20499
887.399	20571
887.523	20644
887.648	20450
887.773	20377
887.897	20583
888.021	20609
888.146	20427
888.27	20724
888.395	20621
888.519	20602
888.643	20530
888.767	20590
888.891	20484
889.015	20328
889.139	20355
889.263	20199
889.387	20400
889.511	20492
889.635	20408
889.759	20305
889.883	20320
890.006	20339
890.13	20267
890.254	20221
890.377	20168
890.501	20088
890.624	20119
890.748	20107
890.871	19967
890.995	19887
891.118	19849
891.241	20024
891.364	19913
891.488	19940
891.611	19932
891.734	19830
891.857	19871
891.98	19860
892.103	19909
892.226	19986
892.349	19932
892.471	19628
892.594	19776
892.717	19860
892.839	19742
892.962	19761
893.085	19902
893.207	19776
893.33	19609
893.452	19662
893.575	19932
893.697	19818
893.819	19902
893.941	19963
894.064	19940
894.186	19727
894.308	19616
894.43	19928
894.552	20001
894.674	19932
894.796	19731
894.918	19883
895.04	19776
895.161	19712
895.283	19925
895.405	19776
895.526	19837
895.648	19795
895.769	19902
895.891	19788
896.012	19909
896.134	19849
896.255	19856
896.376	19845
896.498	19803
896.619	19856
896.74	19830
896.861	19738
896.982	20122
897.103	20206
897.224	20020
897.345	20081
897.466	20100
897.587	20157
897.708	20054
897.828	19986
897.949	19967
898.07	19837
898.19	20008
898.311	20100
898.431	19970
898.552	20054
898.672	19921
898.792	20256
898.913	20119
899.033	19928
899.153	19837
899.273	19818
899.393	19727
899.513	19822
899.633	19830
899.753	19746
899.873	19772
899.993	19845
900.113	19708
900.232	19693
900.352	19753
900.472	19655
900.591	19590
900.711	19529
900.83	19628
900.95	19628
901.069	19639
901.189	19449
901.308	19316
901.427	19091
901.546	19266
901.665	19206
901.784	19129
901.904	18977
902.023	18943
902.141	18730
902.26	18760
902.379	18734
902.498	18639
902.617	18669
902.735	18677
902.854	18502
902.973	18631
903.091	18369
903.21	18399
903.328	18342
903.446	18292
903.565	18319
903.683	18254
903.801	18011
903.919	18026
904.038	18163
904.156	17885
904.274	18015
904.392	17847
904.51	17893
904.627	17817
904.745	17916
904.863	17988
904.981	17722
905.098	17554
905.216	17718
905.334	17718
905.451	17668
905.569	17608
905.686	17642
905.803	17452
905.921	17471
906.038	17551
906.155	17455
906.272	17318
906.389	17284
906.506	17162
906.623	17136
906.74	17159
906.857	17086
906.974	17041
907.091	17185
907.208	17197
907.324	17220
907.441	17090
907.557	16908
907.674	16793
907.79	16885
907.907	16862
908.023	16839
908.139	16885
908.256	16778
908.372	16736
908.488	16729
908.604	16653
908.72	16512
908.836	16531
908.952	16485
909.068	16611
909.184	16634
909.3	16554
909.415	16535
909.531	16558
909.647	16318
909.762	16375
909.878	16325
909.993	16344
910.108	16284
910.224	16352
910.339	16219
910.454	16162
910.57	16078
910.685	15899
910.8	16280
910.915	16143
911.03	16116
911.145	15899
911.259	15960
911.374	15884
911.489	15869
911.604	15816
911.718	15610
911.833	15614
911.947	15492
912.062	15515
912.176	15591
912.291	15549
912.405	15633
912.519	15838
912.633	15823
912.748	15698
912.862	15625
912.976	15504
913.09	15340
913.204	15416
913.318	15355
913.431	15504
913.545	15568
913.659	15534
913.772	15370
913.886	15344
914	15260
914.113	15363
914.226	15294
914.34	15310
914.453	15173
914.566	15283
914.68	15127
914.793	15116
914.906	14918
915.019	14982
915.132	14842
915.245	14933
915.358	14880
915.47	14906
915.583	14826
915.696	14902
915.809	15013
915.921	14906
916.034	14823
916.146	14838
916.259	14777
916.371	14838
916.483	14739
916.595	14735
916.708	14765
916.82	14731
916.932	14541
917.044	14621
917.156	14610
917.268	14522
917.38	14507
917.491	14526
917.603	14484
917.715	14590
917.826	14606
917.938	14400
918.049	14271
918.161	14454
918.272	14750
918.384	14625
918.495	14438
918.606	14408
918.717	14275
918.828	14374
918.939	14286
919.05	14233
919.161	14233
919.272	14088
919.383	14153
919.494	14355
919.604	14492
919.715	14317
919.826	14252
919.936	14202
920.047	14256
920.157	14317
920.267	14457
920.378	14263
920.488	14202
920.598	14431
920.708	14587
920.818	14336
920.928	14309
921.038	14522
921.148	14434
921.258	14168
921.368	14012
921.477	14088
921.587	14024
921.697	13955
921.806	14020
921.916	13795
922.025	13693
922.134	13677
922.244	13548
922.353	13651
922.462	13582
922.571	13430
922.68	13377
922.789	13289
922.898	13278
923.007	13244
923.116	13270
923.224	13327
923.333	13190
923.442	13152
923.55	13023
923.659	13156
923.767	13118
923.876	13091
923.984	13145
924.092	12966
924.201	13023
924.309	13038
924.417	13034
924.525	13015
924.633	12897
924.741	13860
924.849	12821
924.956	12973
925.064	12768
925.172	12662
925.279	12696
925.387	12833
925.494	12688
925.602	12795
925.709	12787
925.816	12650
925.924	12696
926.031	12711
926.138	12627
926.245	12650
926.352	12582
926.459	12719
926.566	12779
926.673	12646
926.779	12483
926.886	12399
926.993	12311
927.099	12391
927.206	12289
927.312	12247
927.419	12277
927.525	12323
927.631	12384
927.737	12273
927.843	12205
927.95	11950
928.056	12136
928.162	12091
928.267	12114
928.373	12768
928.479	12216
928.585	11980
928.69	12175
928.796	12148
928.901	12015
929.007	11847
929.112	12041
929.218	11958
929.323	11889
929.428	11950
929.533	11996
929.638	11790
929.743	11847
929.848	11847
929.953	11783
930.058	11729
930.163	11532
930.267	11570
930.372	11699
930.477	11547
930.581	11741
930.685	11634
930.79	11467
930.894	11444
930.998	11376
931.103	11444
931.207	11193
931.311	11109
931.415	11064
931.519	10900
931.623	10771
