Data from test_V78500241_2860.txt Node
Date: Fri Mar 25 15:29:46 CST 2022
User: usil
Spectrometer: V785-0024
Trigger mode: 0
Integration Time (sec): 4.000000E-1
Scans to average: 1
Nonlinearity correction enabled: false
Boxcar width: 0
Storing dark spectrum: false
XAxis mode: Wavelengths
Number of Pixels in Spectrum: 1024
>>>>>Begin Spectral Data<<<<<
801.071	27287
801.214	27020
801.356	26982
801.499	26716
801.641	26606
801.783	26754
801.926	26731
802.068	26648
802.211	26644
802.353	26423
802.496	26374
802.638	26393
802.78	26355
802.923	26275
803.065	26229
803.208	26324
803.35	26267
803.492	26480
803.635	26492
803.777	26324
803.919	26446
804.061	26785
804.204	26579
804.346	26427
804.488	26492
804.63	26453
804.773	26393
804.915	26598
805.057	26663
805.199	26434
805.341	26594
805.483	26621
805.626	26609
805.768	26541
805.91	26629
806.052	26549
806.194	26495
806.336	26796
806.478	26613
806.62	26526
806.762	26629
806.904	26880
807.046	27104
807.188	27001
807.33	27058
807.472	27013
807.614	26982
807.756	27005
807.898	26804
808.04	26819
808.182	26830
808.324	26800
808.465	26918
808.607	27058
808.749	27108
808.891	27249
809.033	27279
809.174	27100
809.316	27154
809.458	27142
809.6	27051
809.741	27367
809.883	27325
810.025	27447
810.166	27530
810.308	27405
810.45	27336
810.591	27420
810.733	27306
810.875	27207
811.016	27066
811.158	27131
811.299	27332
811.441	27401
811.582	27370
811.724	27264
811.865	27294
812.007	27036
812.148	27135
812.29	27161
812.431	27435
812.573	27450
812.714	27507
812.855	27656
812.997	27895
813.138	27854
813.279	27888
813.421	27618
813.562	27564
813.703	27530
813.845	27435
813.986	27013
814.127	26975
814.268	26762
814.41	26807
814.551	26754
814.692	26971
814.833	26811
814.974	26724
815.115	26785
815.256	26693
815.397	26800
815.539	26670
815.68	26552
815.821	26503
815.962	26693
816.103	26659
816.244	26568
816.385	26438
816.526	26358
816.666	26138
816.807	26088
816.948	26168
817.089	26195
817.23	26183
817.371	26020
817.512	26092
817.653	26164
817.793	26065
817.934	26096
818.075	26111
818.216	26100
818.356	25917
818.497	25978
818.638	25776
818.778	25913
818.919	25704
819.06	25902
819.2	25925
819.341	26107
819.481	26039
819.622	26267
819.762	26351
819.903	26336
820.043	26324
820.184	26183
820.324	26168
820.465	26161
820.605	26016
820.746	26263
820.886	25986
821.026	26130
821.167	26225
821.307	26103
821.447	26164
821.588	26062
821.728	25807
821.868	25784
822.008	25525
822.149	25586
822.289	25578
822.429	25247
822.569	25308
822.709	25232
822.849	25046
822.99	25076
823.13	25190
823.27	24958
823.41	24985
823.55	24707
823.69	24821
823.83	24814
823.97	24738
824.11	24578
824.25	24597
824.389	24661
824.529	24722
824.669	24616
824.809	24757
824.949	24764
825.089	24741
825.228	24738
825.368	24608
825.508	24498
825.648	24528
825.787	24677
825.927	24650
826.067	24551
826.206	24589
826.346	24627
826.485	24555
826.625	24593
826.765	24620
826.904	24574
827.044	24334
827.183	24289
827.323	24171
827.462	24262
827.601	24247
827.741	24289
827.88	24292
828.02	24110
828.159	24350
828.298	24148
828.437	24311
828.577	24273
828.716	24319
828.855	24133
828.994	23984
829.134	23954
829.273	23935
829.412	23950
829.551	23832
829.69	23824
829.829	23897
829.968	24064
830.107	23999
830.246	23916
830.385	23870
830.524	23893
830.663	23760
830.802	23676
830.941	23570
831.08	23501
831.219	23619
831.357	23573
831.496	23908
831.635	23402
831.774	23467
831.913	23376
832.051	23368
832.19	23334
832.329	23269
832.467	23299
832.606	23128
832.744	23159
832.883	23136
833.022	23143
833.16	23250
833.299	23261
833.437	23220
833.576	23273
833.714	23326
833.852	23307
833.991	23261
834.129	23364
834.267	23410
834.406	23170
834.544	23239
834.682	23197
834.821	23330
834.959	23516
835.097	23231
835.235	23197
835.373	23265
835.511	23204
835.65	23029
835.788	23094
835.926	22995
836.064	22904
836.202	23090
836.34	23071
836.478	23197
836.615	23056
836.753	22968
836.891	23197
837.029	23124
837.167	23044
837.305	22949
837.443	22980
837.58	22847
837.718	23083
837.856	23056
837.993	22930
838.131	22999
838.269	22752
838.406	22900
838.544	22828
838.681	22478
838.819	22485
838.956	22481
839.094	22386
839.231	22466
839.369	22493
839.506	22721
839.643	22596
839.781	22516
839.918	22371
840.055	22402
840.193	22428
840.33	22337
840.467	22443
840.604	22432
840.742	22603
840.879	22253
841.016	22207
841.153	22272
841.29	22440
841.427	22386
841.564	22344
841.701	22314
841.838	22268
841.975	22230
842.112	22337
842.249	22204
842.385	22120
842.522	22261
842.659	22287
842.796	22063
842.933	22044
843.069	22086
843.206	22154
843.343	22291
843.479	22036
843.616	22169
843.752	21888
843.889	21808
844.025	22017
844.162	21854
844.298	21953
844.435	21857
844.571	21751
844.708	21876
844.844	22090
844.98	21991
845.117	21911
845.253	21785
845.389	21679
845.525	21747
845.661	21755
845.798	21618
845.934	21660
846.07	21637
846.206	21739
846.342	21819
846.478	21515
846.614	21332
846.75	21268
846.886	21313
847.022	21412
847.158	21378
847.294	21359
847.429	21382
847.565	21397
847.701	21622
847.837	21096
847.972	20956
848.108	21272
848.244	21123
848.379	20906
848.515	21043
848.65	20906
848.786	21028
848.921	20979
849.057	21066
849.192	20956
849.328	21028
849.463	20948
849.598	20899
849.734	20914
849.869	20758
850.004	20785
850.14	20819
850.275	20800
850.41	20602
850.545	20598
850.68	20712
850.815	20750
850.95	20564
851.085	20880
851.22	20762
851.355	20769
851.49	20625
851.625	20697
851.76	20693
851.895	20670
852.03	20762
852.165	20629
852.299	20777
852.434	20800
852.569	20724
852.703	20701
852.838	20849
852.973	20815
853.107	20682
853.242	20541
853.376	20522
853.511	20366
853.645	20366
853.78	20678
853.914	20549
854.048	20552
854.183	20499
854.317	20556
854.451	20754
854.585	20564
854.72	20469
854.854	20689
854.988	20495
855.122	20522
855.256	20454
855.39	20530
855.524	20587
855.658	20457
855.792	20511
855.926	20568
856.06	20632
856.194	20568
856.327	20473
856.461	20473
856.595	20492
856.729	20461
856.862	20549
856.996	20507
857.13	20720
857.263	20636
857.397	20693
857.53	20469
857.664	20594
857.797	20663
857.931	20682
858.064	20621
858.197	20701
858.331	20484
858.464	20480
858.597	20427
858.731	20404
858.864	20511
858.997	20434
859.13	20575
859.263	20568
859.396	20480
859.529	20552
859.662	20492
859.795	20579
859.928	20568
860.061	20754
860.194	20781
860.327	20640
860.46	20549
860.592	20621
860.725	20609
860.858	20659
860.99	20522
861.123	20552
861.256	20469
861.388	20621
861.521	21051
861.653	20503
861.786	20332
861.918	20389
862.05	20381
862.183	20438
862.315	20427
862.447	20579
862.58	20454
862.712	20298
862.844	20294
862.976	20320
863.108	20351
863.24	20735
863.372	20164
863.504	20119
863.636	20252
863.768	20412
863.9	20195
864.032	20286
864.164	20145
864.296	20328
864.428	20332
864.559	20290
864.691	20267
864.823	20275
864.954	20275
865.086	20286
865.217	20164
865.349	20187
865.48	20107
865.612	20111
865.743	20259
865.875	20180
866.006	20081
866.137	20218
866.269	20115
866.4	20149
866.531	20012
866.662	19944
866.793	20119
866.924	20073
867.055	20111
867.186	20100
867.317	19928
867.448	19944
867.579	20031
867.71	19967
867.841	20065
867.972	20043
868.103	20107
868.233	20107
868.364	20069
868.495	20142
868.625	20313
868.756	20294
868.886	20317
869.017	20355
869.147	20419
869.278	20465
869.408	20301
869.539	20313
869.669	20355
869.799	20328
869.929	20434
870.06	20419
870.19	20693
870.32	20609
870.45	20629
870.58	20724
870.71	20819
870.84	20910
870.97	20625
871.1	20743
871.23	20765
871.36	20887
871.489	20758
871.619	20956
871.749	21039
871.879	21032
872.008	20876
872.138	21005
872.267	20868
872.397	20807
872.526	20811
872.656	20796
872.785	20727
872.915	21020
873.044	21066
873.173	20925
873.303	21013
873.432	21070
873.561	21005
873.69	21009
873.819	20998
873.948	21047
874.077	20963
874.206	20933
874.335	21001
874.464	21036
874.593	21214
874.722	21195
874.851	21230
874.979	21249
875.108	21233
875.237	21176
875.365	21154
875.494	21203
875.623	21264
875.751	21161
875.88	21199
876.008	21389
876.136	21344
876.265	21656
876.393	21755
876.521	21690
876.65	21709
876.778	21595
876.906	21587
877.034	21633
877.162	21614
877.29	21538
877.418	21580
877.546	21599
877.674	21599
877.802	21663
877.93	21435
878.058	21473
878.185	21439
878.313	21477
878.441	21519
878.568	21435
878.696	21454
878.824	21618
878.951	21641
879.079	21728
879.206	21922
879.333	21641
879.461	21572
879.588	21625
879.715	21778
879.842	21827
879.97	21568
880.097	21393
880.224	21329
880.351	21447
880.478	21447
880.605	21405
880.732	21351
880.859	21595
880.986	21439
881.112	21351
881.239	21283
881.366	21180
881.493	20990
881.619	21032
881.746	21100
881.872	20921
881.999	20956
882.125	20956
882.252	21013
882.378	20952
882.505	21017
882.631	20845
882.757	20674
882.883	20804
883.01	20568
883.136	20663
883.262	20530
883.388	20461
883.514	20750
883.64	20693
883.766	20549
883.892	20282
884.018	20476
884.143	20648
884.269	20674
884.395	20278
884.52	20393
884.646	20324
884.772	20187
884.897	20233
885.023	20332
885.148	20507
885.274	20476
885.399	20438
885.524	20442
885.65	20202
885.775	20176
885.9	20199
886.025	20454
886.15	20362
886.275	20225
886.4	20065
886.525	20298
886.65	20233
886.775	20301
886.9	20332
887.025	20492
887.149	20248
887.274	20073
887.399	20115
887.523	20073
887.648	19970
887.773	19993
887.897	20161
888.021	20073
888.146	20046
888.27	20221
888.395	20271
888.519	20149
888.643	20020
888.767	20199
888.891	19970
889.015	19879
889.139	19955
889.263	19868
889.387	20008
889.511	20142
889.635	19879
889.759	19906
889.883	19791
890.006	19917
890.13	20043
890.254	19750
890.377	19864
890.501	19635
890.624	19563
890.748	19708
890.871	19548
890.995	19457
891.118	19426
891.241	19426
891.364	19343
891.488	19518
891.611	19400
891.734	19483
891.857	19495
891.98	19582
892.103	19529
892.226	19571
892.349	19460
892.471	19343
892.594	19384
892.717	19464
892.839	19316
892.962	19350
893.085	19426
893.207	19403
893.33	19324
893.452	19346
893.575	19480
893.697	19480
893.819	19510
893.941	19643
894.064	19571
894.186	19400
894.308	19324
894.43	19430
894.552	19552
894.674	19499
894.796	19304
894.918	19441
895.04	19377
895.161	19445
895.283	19521
895.405	19392
895.526	19381
895.648	19381
895.769	19460
895.891	19438
896.012	19567
896.134	19464
896.255	19533
896.376	19301
896.498	19362
896.619	19575
896.74	19468
896.861	19453
896.982	19807
897.103	19826
897.224	19685
897.345	19624
897.466	19575
897.587	19662
897.708	19795
897.828	19689
897.949	19632
898.07	19403
898.19	19655
898.311	19651
898.431	19552
898.552	19742
898.672	19784
898.792	19681
898.913	19635
899.033	19506
899.153	19476
899.273	19331
899.393	19434
899.513	19335
899.633	19464
899.753	19472
899.873	19304
899.993	19521
900.113	19445
900.232	19392
900.352	19476
900.472	19232
900.591	19095
900.711	19301
900.83	19148
900.95	19206
901.069	19251
901.189	19107
901.308	18875
901.427	18787
901.546	18833
901.665	18783
901.784	18875
901.904	18639
902.023	18528
902.141	18342
902.26	18391
902.379	18437
902.498	18327
902.617	18353
902.735	18304
902.854	18296
902.973	18186
903.091	17999
903.21	17912
903.328	18026
903.446	17798
903.565	17855
903.683	17790
903.801	17733
903.919	17764
904.038	17783
904.156	17604
904.274	17562
904.392	17528
904.51	17554
904.627	17554
904.745	17570
904.863	17554
904.981	17322
905.098	17242
905.216	17277
905.334	17303
905.451	17280
905.569	17311
905.686	17166
905.803	17170
905.921	17048
906.038	17166
906.155	16972
906.272	16949
906.389	16881
906.506	16793
906.623	16763
906.74	16809
906.857	16679
906.974	16618
907.091	16892
907.208	16968
907.324	16896
907.441	16763
907.557	16500
907.674	16561
907.79	16565
907.907	16489
908.023	16653
908.139	16538
908.256	16428
908.372	16337
908.488	16314
908.604	16295
908.72	16276
908.836	16173
908.952	16204
909.068	16352
909.184	16382
909.3	16223
909.415	16246
909.531	16139
909.647	16002
909.762	15979
909.878	16044
909.993	15949
910.108	15895
910.224	15956
910.339	15941
910.454	15804
910.57	15785
910.685	15656
910.8	16051
910.915	15983
911.03	15838
911.145	15644
911.259	15473
911.374	15561
911.489	15439
911.604	15428
911.718	15393
911.833	15325
911.947	15275
912.062	15154
912.176	15294
912.291	15401
912.405	15344
912.519	15507
912.633	15557
912.748	15363
912.862	15268
912.976	15093
913.09	15017
913.204	14963
913.318	15074
913.431	15230
913.545	15260
913.659	15226
913.772	15077
913.886	15005
914	14941
914.113	15009
914.226	15047
914.34	15024
914.453	14864
914.566	14998
914.68	14746
914.793	14811
914.906	14590
915.019	14556
915.132	14545
915.245	14511
915.358	14606
915.47	14552
915.583	14549
915.696	14583
915.809	14716
915.921	14746
916.034	14560
916.146	14484
916.259	14415
916.371	14526
916.483	14545
916.595	14374
916.708	14442
916.82	14396
916.932	14298
917.044	14396
917.156	14427
917.268	14183
917.38	14252
917.491	14103
917.603	14206
917.715	14324
917.826	14282
917.938	14180
918.049	14001
918.161	14153
918.272	14317
918.384	14240
918.495	14161
918.606	13932
918.717	14008
918.828	14020
918.939	14050
919.05	13932
919.161	13982
919.272	13753
919.383	13860
919.494	14054
919.604	14218
919.715	13951
919.826	13803
919.936	13913
920.047	14001
920.157	14016
920.267	14092
920.378	13997
920.488	13913
920.598	14111
920.708	14199
920.818	14077
920.928	14073
921.038	14172
921.148	14301
921.258	13902
921.368	13841
921.477	13765
921.587	13655
921.697	13559
921.806	13674
921.916	13616
922.025	13460
922.134	13472
922.244	13331
922.353	13407
922.462	13228
922.571	13171
922.68	13076
922.789	13065
922.898	13015
923.007	12920
923.116	13057
923.224	13050
923.333	13076
923.442	12913
923.55	12859
923.659	12848
923.767	12916
923.876	12875
923.984	12787
924.092	12821
924.201	12730
924.309	12833
924.417	12776
924.525	12684
924.633	12639
924.741	13590
924.849	12536
924.956	12719
925.064	12525
925.172	12441
925.279	12418
925.387	12437
925.494	12471
925.602	12563
925.709	12460
925.816	12350
925.924	12319
926.031	12475
926.138	12407
926.245	12483
926.352	12323
926.459	12490
926.566	12448
926.673	12281
926.779	12224
926.886	12224
926.993	12091
927.099	12159
927.206	12034
927.312	11999
927.419	12019
927.525	11996
927.631	12136
927.737	11954
927.843	11942
927.95	11813
928.056	11950
928.162	11836
928.267	11996
928.373	12525
928.479	11954
928.585	11786
928.69	11908
928.796	11851
928.901	11748
929.007	11661
929.112	11771
929.218	11733
929.323	11634
929.428	11611
929.533	11695
929.638	11551
929.743	11577
929.848	11741
929.953	11558
930.058	11490
930.163	11258
930.267	11318
930.372	11516
930.477	11193
930.581	11589
930.685	11299
930.79	11216
930.894	11231
930.998	11216
931.103	11341
931.207	10999
931.311	10908
931.415	10828
931.519	10653
931.623	10641
