Data from test_V78500241_2533.txt Node
Date: Fri Mar 25 15:27:29 CST 2022
User: usil
Spectrometer: V785-0024
Trigger mode: 0
Integration Time (sec): 4.000000E-1
Scans to average: 1
Nonlinearity correction enabled: false
Boxcar width: 0
Storing dark spectrum: false
XAxis mode: Wavelengths
Number of Pixels in Spectrum: 1024
>>>>>Begin Spectral Data<<<<<
801.071	27131
801.214	27074
801.356	26921
801.499	26716
801.641	26617
801.783	26727
801.926	26758
802.068	26606
802.211	26587
802.353	26560
802.496	26480
802.638	26408
802.78	26393
802.923	26210
803.065	26256
803.208	26138
803.35	26320
803.492	26396
803.635	26522
803.777	26442
803.919	26438
804.061	26849
804.204	26568
804.346	26495
804.488	26400
804.63	26415
804.773	26343
804.915	26412
805.057	26511
805.199	26396
805.341	26480
805.483	26492
805.626	26670
805.768	26571
805.91	26636
806.052	26663
806.194	26552
806.336	26640
806.478	26613
806.62	26629
806.762	26640
806.904	26895
807.046	27039
807.188	26956
807.33	27013
807.472	27146
807.614	27001
807.756	27074
807.898	26853
808.04	26632
808.182	26735
808.324	26807
808.465	26902
808.607	26986
808.749	27157
808.891	27298
809.033	27294
809.174	27230
809.316	27093
809.458	27043
809.6	27173
809.741	27351
809.883	27458
810.025	27408
810.166	27397
810.308	27450
810.45	27359
810.591	27374
810.733	27302
810.875	27173
811.016	27135
811.158	27032
811.299	27294
811.441	27458
811.582	27329
811.724	27310
811.865	27207
812.007	27085
812.148	27119
812.29	27268
812.431	27412
812.573	27511
812.714	27622
812.855	27610
812.997	27797
813.138	27968
813.279	27781
813.421	27652
813.562	27568
813.703	27351
813.845	27306
813.986	27135
814.127	26929
814.268	26819
814.41	26823
814.551	26906
814.692	26940
814.833	26705
814.974	26804
815.115	26815
815.256	26720
815.397	26777
815.539	26781
815.68	26564
815.821	26663
815.962	26788
816.103	26701
816.244	26511
816.385	26370
816.526	26450
816.666	26187
816.807	26168
816.948	26130
817.089	26229
817.23	26107
817.371	26149
817.512	26005
817.653	26020
817.793	26039
817.934	25978
818.075	26103
818.216	26122
818.356	26107
818.497	25791
818.638	25890
818.778	25731
818.919	25909
819.06	25811
819.2	25974
819.341	26142
819.481	26142
819.622	26271
819.762	26347
819.903	26347
820.043	26263
820.184	26142
820.324	26115
820.465	26256
820.605	26172
820.746	26111
820.886	25974
821.026	26092
821.167	26142
821.307	26305
821.447	26202
821.588	26031
821.728	25925
821.868	25719
822.008	25677
822.149	25571
822.289	25373
822.429	25369
822.569	25266
822.709	25293
822.849	25126
822.99	25110
823.13	25031
823.27	25053
823.41	24882
823.55	24856
823.69	24844
823.83	24905
823.97	24787
824.11	24741
824.25	24582
824.389	24608
824.529	24779
824.669	24681
824.809	24719
824.949	24791
825.089	24681
825.228	24741
825.368	24730
825.508	24570
825.648	24566
825.787	24707
825.927	24551
826.067	24498
826.206	24566
826.346	24566
826.485	24642
826.625	24673
826.765	24776
826.904	24601
827.044	24384
827.183	24372
827.323	24254
827.462	24391
827.601	24315
827.741	24209
827.88	24281
828.02	24098
828.159	24228
828.298	24323
828.437	24308
828.577	24254
828.716	24399
828.855	24182
828.994	24148
829.134	23996
829.273	24060
829.412	24106
829.551	23859
829.69	23893
829.829	24049
829.968	24053
830.107	24003
830.246	24068
830.385	23916
830.524	23920
830.663	23805
830.802	23779
830.941	23520
831.08	23570
831.219	23680
831.357	23691
831.496	24018
831.635	23665
831.774	23471
831.913	23414
832.051	23429
832.19	23402
832.329	23433
832.467	23269
832.606	23284
832.744	23227
832.883	23353
833.022	23265
833.16	23193
833.299	23364
833.437	23318
833.576	23372
833.714	23410
833.852	23387
833.991	23444
834.129	23524
834.267	23341
834.406	23360
834.544	23311
834.682	23330
834.821	23330
834.959	23516
835.097	23330
835.235	23345
835.373	23414
835.511	23337
835.65	23265
835.788	23383
835.926	23185
836.064	23071
836.202	23132
836.34	23220
836.478	23277
836.615	23197
836.753	23254
836.891	23345
837.029	23250
837.167	23200
837.305	23143
837.443	23155
837.58	22881
837.718	23105
837.856	22942
837.993	23086
838.131	23014
838.269	22763
838.406	23003
838.544	22862
838.681	22786
838.819	22797
838.956	22508
839.094	22618
839.231	22577
839.369	22919
839.506	22965
839.643	22892
839.781	22508
839.918	22573
840.055	22542
840.193	22573
840.33	22428
840.467	22580
840.604	22573
840.742	22793
840.879	22424
841.016	22565
841.153	22489
841.29	22698
841.427	22527
841.564	22417
841.701	22455
841.838	22485
841.975	22466
842.112	22428
842.249	22398
842.385	22325
842.522	22519
842.659	22409
842.796	22284
842.933	22249
843.069	22303
843.206	22116
843.343	22318
843.479	22226
843.616	22257
843.752	22044
843.889	22032
844.025	22120
844.162	21918
844.298	22150
844.435	22074
844.571	22048
844.708	22017
844.844	22158
844.98	22150
845.117	22101
845.253	22010
845.389	21789
845.525	21960
845.661	22032
845.798	21857
845.934	21854
846.07	21644
846.206	21819
846.342	21831
846.478	21797
846.614	21591
846.75	21344
846.886	21450
847.022	21515
847.158	21580
847.294	21583
847.429	21568
847.565	21412
847.701	21641
847.837	21203
847.972	21252
848.108	21408
848.244	21325
848.379	21161
848.515	21055
848.65	21108
848.786	21070
848.921	21085
849.057	21135
849.192	21100
849.328	21192
849.463	21009
849.598	21077
849.734	21051
849.869	21005
850.004	20861
850.14	20902
850.275	20876
850.41	20678
850.545	20826
850.68	20788
850.815	21009
850.95	20910
851.085	21032
851.22	21017
851.355	20838
851.49	20880
851.625	20857
851.76	20914
851.895	20811
852.03	20781
852.165	20910
852.299	20967
852.434	20941
852.569	20834
852.703	20826
852.838	20914
852.973	20990
853.107	20975
853.242	20914
853.376	20731
853.511	20609
853.645	20590
853.78	20823
853.914	20686
854.048	20762
854.183	20735
854.317	20682
854.451	20876
854.585	20735
854.72	20678
854.854	20967
854.988	20587
855.122	20682
855.256	20598
855.39	20636
855.524	20693
855.658	20781
855.792	20583
855.926	20640
856.06	20689
856.194	20876
856.327	20674
856.461	20590
856.595	20636
856.729	20590
856.862	20754
856.996	20777
857.13	20781
857.263	20769
857.397	20853
857.53	20705
857.664	20667
857.797	20758
857.931	20868
858.064	20701
858.197	20785
858.331	20746
858.464	20552
858.597	20621
858.731	20648
858.864	20693
858.997	20670
859.13	20796
859.263	20735
859.396	20804
859.529	20674
859.662	20564
859.795	20674
859.928	20636
860.061	20868
860.194	20807
860.327	20644
860.46	20606
860.592	20864
860.725	20876
860.858	20826
860.99	20693
861.123	20598
861.256	20807
861.388	20743
861.521	21515
861.653	20579
861.786	20499
861.918	20545
862.05	20571
862.183	20640
862.315	20594
862.447	20746
862.58	20568
862.712	20522
862.844	20336
862.976	20488
863.108	20518
863.24	20941
863.372	20320
863.504	20393
863.636	20488
863.768	20465
863.9	20530
864.032	20278
864.164	20374
864.296	20377
864.428	20473
864.559	20507
864.691	20545
864.823	20434
864.954	20427
865.086	20355
865.217	20332
865.349	20221
865.48	20271
865.612	20389
865.743	20438
865.875	20298
866.006	20336
866.137	20434
866.269	20309
866.4	20248
866.531	20256
866.662	20149
866.793	20168
866.924	20191
867.055	20259
867.186	20275
867.317	20202
867.448	20138
867.579	20298
867.71	20225
867.841	20164
867.972	20221
868.103	20298
868.233	20347
868.364	20183
868.495	20412
868.625	20522
868.756	20625
868.886	20358
869.017	20579
869.147	20583
869.278	20552
869.408	20541
869.539	20518
869.669	20583
869.799	20655
869.929	20708
870.06	20697
870.19	20781
870.32	20823
870.45	20849
870.58	20853
870.71	21058
870.84	21020
870.97	20910
871.1	20929
871.23	21039
871.36	21093
871.489	21020
871.619	21062
871.749	21123
871.879	21127
872.008	21207
872.138	21096
872.267	21062
872.397	21017
872.526	20971
872.656	20918
872.785	20853
872.915	21112
873.044	21214
873.173	21142
873.303	21180
873.432	21135
873.561	21241
873.69	21108
873.819	21058
873.948	21230
874.077	21131
874.206	21013
874.335	21119
874.464	21370
874.593	21321
874.722	21329
874.851	21359
874.979	21439
875.108	21351
875.237	21302
875.365	21195
875.494	21188
875.623	21378
875.751	21348
875.88	21386
876.008	21313
876.136	21466
876.265	21884
876.393	21899
876.521	21797
876.65	21720
876.778	21690
876.906	21812
877.034	21759
877.162	21690
877.29	21690
877.418	21663
877.546	21603
877.674	21728
877.802	21663
877.93	21682
878.058	21682
878.185	21583
878.313	21709
878.441	21648
878.568	21583
878.696	21572
878.824	21816
878.951	21694
879.079	21884
879.206	21915
879.333	21876
879.461	21660
879.588	21762
879.715	21789
879.842	21926
879.97	21739
880.097	21572
880.224	21580
880.351	21656
880.478	21458
880.605	21545
880.732	21496
880.859	21709
880.986	21568
881.112	21538
881.239	21382
881.366	21233
881.493	21245
881.619	21116
881.746	21100
881.872	21112
881.999	21081
882.125	21096
882.252	21039
882.378	21150
882.505	21249
882.631	20933
882.757	20765
882.883	20925
883.01	20800
883.136	20769
883.262	20804
883.388	20636
883.514	20815
883.64	20967
883.766	20663
883.892	20545
884.018	20644
884.143	20823
884.269	20838
884.395	20632
884.52	20629
884.646	20438
884.772	20442
884.897	20446
885.023	20396
885.148	20541
885.274	20613
885.399	20533
885.524	20522
885.65	20492
885.775	20568
885.9	20389
886.025	20537
886.15	20488
886.275	20492
886.4	20427
886.525	20461
886.65	20366
886.775	20457
886.9	20674
887.025	20663
887.149	20400
887.274	20377
887.399	20259
887.523	20157
887.648	20202
887.773	20130
887.897	20298
888.021	20286
888.146	20278
888.27	20294
888.395	20358
888.519	20225
888.643	20343
888.767	20320
888.891	20103
889.015	20115
889.139	20107
889.263	20050
889.387	20069
889.511	20244
889.635	20191
889.759	20153
889.883	19913
890.006	20138
890.13	20199
890.254	20035
890.377	20024
890.501	19906
890.624	19818
890.748	19879
890.871	19723
890.995	19590
891.118	19605
891.241	19571
891.364	19727
891.488	19772
891.611	19647
891.734	19712
891.857	19719
891.98	19639
892.103	19685
892.226	19689
892.349	19666
892.471	19480
892.594	19628
892.717	19620
892.839	19567
892.962	19537
893.085	19670
893.207	19537
893.33	19491
893.452	19575
893.575	19639
893.697	19597
893.819	19795
893.941	19734
894.064	19639
894.186	19510
894.308	19476
894.43	19495
894.552	19700
894.674	19666
894.796	19556
894.918	19468
895.04	19632
895.161	19647
895.283	19651
895.405	19514
895.526	19658
895.648	19537
895.769	19597
895.891	19559
896.012	19647
896.134	19556
896.255	19472
896.376	19594
896.498	19487
896.619	19643
896.74	19594
896.861	19594
896.982	19909
897.103	20069
897.224	19951
897.345	19811
897.466	19674
897.587	19833
897.708	19833
897.828	19791
897.949	19753
898.07	19567
898.19	19643
898.311	19826
898.431	19750
898.552	19742
898.672	19883
898.792	19849
898.913	19704
899.033	19769
899.153	19597
899.273	19510
899.393	19514
899.513	19518
899.633	19540
899.753	19567
899.873	19457
899.993	19571
900.113	19472
900.232	19419
900.352	19430
900.472	19396
900.591	19377
900.711	19369
900.83	19335
900.95	19430
901.069	19449
901.189	19213
901.308	19088
901.427	18863
901.546	18943
901.665	18875
901.784	18810
901.904	18844
902.023	18700
902.141	18544
902.26	18486
902.379	18555
902.498	18365
902.617	18464
902.735	18506
902.854	18490
902.973	18372
903.091	18167
903.21	18178
903.328	18057
903.446	18003
903.565	17980
903.683	17946
903.801	17790
903.919	17802
904.038	17798
904.156	17596
904.274	17866
904.392	17623
904.51	17627
904.627	17703
904.745	17623
904.863	17627
904.981	17604
905.098	17372
905.216	17364
905.334	17417
905.451	17414
905.569	17280
905.686	17425
905.803	17307
905.921	17105
906.038	17318
906.155	17185
906.272	17132
906.389	17200
906.506	16892
906.623	16949
906.74	16927
906.857	16805
906.974	16942
907.091	16908
907.208	16991
907.324	16915
907.441	16778
907.557	16637
907.674	16580
907.79	16565
907.907	16565
908.023	16729
908.139	16615
908.256	16508
908.372	16493
908.488	16500
908.604	16322
908.72	16360
908.836	16394
908.952	16291
909.068	16318
909.184	16470
909.3	16291
909.415	16371
909.531	16333
909.647	16051
909.762	16097
909.878	16169
909.993	16051
910.108	16044
910.224	15968
910.339	16044
910.454	15949
910.57	15819
910.685	15789
910.8	16147
910.915	16006
911.03	15873
911.145	15705
911.259	15686
911.374	15709
911.489	15610
911.604	15603
911.718	15420
911.833	15412
911.947	15424
912.062	15397
912.176	15424
912.291	15606
912.405	15519
912.519	15633
912.633	15553
912.748	15542
912.862	15473
912.976	15222
913.09	15146
913.204	15112
913.318	15260
913.431	15313
913.545	15310
913.659	15363
913.772	15188
913.886	15097
914	15062
914.113	15203
914.226	15180
914.34	15112
914.453	14952
914.566	15077
914.68	14967
914.793	14887
914.906	14693
915.019	14739
915.132	14697
915.245	14636
915.358	14712
915.47	14644
915.583	14636
915.696	14651
915.809	14743
915.921	14891
916.034	14670
916.146	14533
916.259	14522
916.371	14667
916.483	14629
916.595	14438
916.708	14488
916.82	14457
916.932	14446
917.044	14389
917.156	14480
917.268	14328
917.38	14381
917.491	14286
917.603	14240
917.715	14415
917.826	14431
917.938	14298
918.049	14191
918.161	14275
918.272	14499
918.384	14492
918.495	14336
918.606	14096
918.717	14046
918.828	14096
918.939	14168
919.05	14081
919.161	14092
919.272	13795
919.383	13989
919.494	14073
919.604	14298
919.715	14100
919.826	13944
919.936	14043
920.047	14180
920.157	14123
920.267	14206
920.378	14191
920.488	14050
920.598	14256
920.708	14377
920.818	14210
920.928	14225
921.038	14381
921.148	14271
921.258	14062
921.368	13925
921.477	13826
921.587	13822
921.697	13689
921.806	13723
921.916	13776
922.025	13480
922.134	13567
922.244	13487
922.353	13495
922.462	13346
922.571	13324
922.68	13236
922.789	13050
922.898	13122
923.007	13046
923.116	13069
923.224	13107
923.333	13053
923.442	12970
923.55	12954
923.659	12993
923.767	13023
923.876	12924
923.984	12920
924.092	12802
924.201	12894
924.309	12863
924.417	12954
924.525	12798
924.633	12764
924.741	13807
924.849	12650
924.956	12688
925.064	12585
925.172	12532
925.279	12513
925.387	12585
925.494	12536
925.602	12692
925.709	12517
925.816	12490
925.924	12479
926.031	12635
926.138	12479
926.245	12585
926.352	12338
926.459	12589
926.566	12604
926.673	12509
926.779	12315
926.886	12323
926.993	12155
927.099	12136
927.206	12136
927.312	12095
927.419	12114
927.525	12220
927.631	12133
927.737	11961
927.843	12030
927.95	11828
928.056	11992
928.162	11942
928.267	11996
928.373	12662
928.479	12022
928.585	11821
928.69	11996
928.796	12079
928.901	11870
929.007	11653
929.112	11836
929.218	11889
929.323	11790
929.428	11688
929.533	11866
929.638	11783
929.743	11676
929.848	11680
929.953	11653
930.058	11600
930.163	11482
930.267	11414
930.372	11512
930.477	11448
930.581	11611
930.685	11520
930.79	11307
930.894	11296
930.998	11299
931.103	11478
931.207	11147
931.311	11060
931.415	10953
931.519	10771
931.623	10782
