Data from test_V78500241_167.txt Node
Date: Fri Mar 25 15:11:01 CST 2022
User: usil
Spectrometer: V785-0024
Trigger mode: 0
Integration Time (sec): 4.000000E-1
Scans to average: 1
Nonlinearity correction enabled: false
Boxcar width: 0
Storing dark spectrum: false
XAxis mode: Wavelengths
Number of Pixels in Spectrum: 1024
>>>>>Begin Spectral Data<<<<<
801.071	27934
801.214	27861
801.356	27667
801.499	27504
801.641	27340
801.783	27450
801.926	27332
802.068	27279
802.211	27302
802.353	27192
802.496	27119
802.638	27135
802.78	26979
802.923	26982
803.065	26872
803.208	26838
803.35	26979
803.492	27142
803.635	27089
803.777	27009
803.919	27154
804.061	27382
804.204	27146
804.346	26899
804.488	26929
804.63	26952
804.773	26967
804.915	27085
805.057	27275
805.199	26986
805.341	27024
805.483	27051
805.626	27112
805.768	26963
805.91	27108
806.052	27245
806.194	27173
806.336	27302
806.478	27157
806.62	27180
806.762	27222
806.904	27374
807.046	27572
807.188	27644
807.33	27447
807.472	27454
807.614	27477
807.756	27549
807.898	27370
808.04	27302
808.182	27291
808.324	27264
808.465	27283
808.607	27431
808.749	27682
808.891	27831
809.033	27983
809.174	27739
809.316	27496
809.458	27713
809.6	27785
809.741	27720
809.883	27728
810.025	27903
810.166	27922
810.308	27838
810.45	27857
810.591	27743
810.733	27648
810.875	27610
811.016	27545
811.158	27606
811.299	27720
811.441	27701
811.582	27667
811.724	27663
811.865	27481
812.007	27511
812.148	27667
812.29	27595
812.431	27808
812.573	27827
812.714	28070
812.855	27964
812.997	28280
813.138	28306
813.279	28276
813.421	28036
813.562	27983
813.703	27892
813.845	27880
813.986	27416
814.127	27325
814.268	27268
814.41	27336
814.551	27146
814.692	27359
814.833	27093
814.974	27203
815.115	27138
815.256	26979
815.397	27127
815.539	27005
815.68	26975
815.821	26986
815.962	26963
816.103	26902
816.244	26857
816.385	26746
816.526	26750
816.666	26537
816.807	26412
816.948	26609
817.089	26537
817.23	26381
817.371	26381
817.512	26503
817.653	26434
817.793	26393
817.934	26381
818.075	26476
818.216	26400
818.356	26366
818.497	26088
818.638	26100
818.778	26081
818.919	26126
819.06	26157
819.2	26263
819.341	26339
819.481	26396
819.622	26408
819.762	26564
819.903	26541
820.043	26488
820.184	26537
820.324	26415
820.465	26522
820.605	26423
820.746	26263
820.886	26305
821.026	26461
821.167	26362
821.307	26473
821.447	26240
821.588	26233
821.728	26031
821.868	25811
822.008	25856
822.149	25780
822.289	25814
822.429	25487
822.569	25567
822.709	25655
822.849	25240
822.99	25133
823.13	25225
823.27	25244
823.41	25046
823.55	24897
823.69	25088
823.83	25072
823.97	25076
824.11	24897
824.25	24939
824.389	24863
824.529	24996
824.669	24878
824.809	24848
824.949	25012
825.089	24916
825.228	24875
825.368	24620
825.508	24692
825.648	24681
825.787	24760
825.927	24760
826.067	24620
826.206	24601
826.346	24661
826.485	24650
826.625	24661
826.765	24642
826.904	24700
827.044	24410
827.183	24490
827.323	24342
827.462	24262
827.601	24330
827.741	24346
827.88	24350
828.02	24201
828.159	24323
828.298	24403
828.437	24407
828.577	24311
828.716	24452
828.855	24311
828.994	24091
829.134	24125
829.273	23984
829.412	24087
829.551	24007
829.69	24030
829.829	24045
829.968	24034
830.107	24079
830.246	23999
830.385	24011
830.524	23912
830.663	23756
830.802	23775
830.941	23726
831.08	23596
831.219	23634
831.357	23737
831.496	23707
831.635	23554
831.774	23539
831.913	23516
832.051	23356
832.19	23398
832.329	23425
832.467	23280
832.606	23292
832.744	23246
832.883	23193
833.022	23246
833.16	23200
833.299	23471
833.437	23337
833.576	23170
833.714	23341
833.852	23330
833.991	23307
834.129	23353
834.267	23425
834.406	23299
834.544	23387
834.682	23223
834.821	23246
834.959	23471
835.097	23273
835.235	23277
835.373	23353
835.511	23284
835.65	23094
835.788	23204
835.926	23071
836.064	22949
836.202	22908
836.34	23136
836.478	23132
836.615	23071
836.753	23200
836.891	23140
837.029	23105
837.167	23048
837.305	23037
837.443	23018
837.58	22953
837.718	23075
837.856	22976
837.993	22843
838.131	22976
838.269	22816
838.406	22831
838.544	22839
838.681	22584
838.819	22584
838.956	22356
839.094	22462
839.231	22405
839.369	22603
839.506	22782
839.643	22683
839.781	22508
839.918	22356
840.055	22424
840.193	22493
840.33	22371
840.467	22329
840.604	22367
840.742	22481
840.879	22166
841.016	22253
841.153	22249
841.29	22398
841.427	22291
841.564	22257
841.701	22268
841.838	22234
841.975	22253
842.112	22226
842.249	22131
842.385	21987
842.522	22265
842.659	22082
842.796	22082
842.933	22059
843.069	22048
843.206	22032
843.343	22070
843.479	22078
843.616	21998
843.752	21759
843.889	21918
844.025	21854
844.162	21739
844.298	21937
844.435	21781
844.571	21671
844.708	21755
844.844	21884
844.98	21941
845.117	21880
845.253	21682
845.389	21641
845.525	21663
845.661	21629
845.798	21519
845.934	21648
846.07	21519
846.206	21542
846.342	21595
846.478	21500
846.614	21233
846.75	21294
846.886	21291
847.022	21416
847.158	21363
847.294	21256
847.429	21260
847.565	21287
847.701	21488
847.837	21024
847.972	20952
848.108	21108
848.244	20944
848.379	20872
848.515	20933
848.65	20769
848.786	20823
848.921	20944
849.057	20876
849.192	20891
849.328	20781
849.463	20796
849.598	20823
849.734	20735
849.869	20750
850.004	20606
850.14	20625
850.275	20640
850.41	20598
850.545	20511
850.68	20492
850.815	20488
850.95	20461
851.085	20727
851.22	20708
851.355	20473
851.49	20518
851.625	20412
851.76	20461
851.895	20488
852.03	20457
852.165	20541
852.299	20537
852.434	20651
852.569	20667
852.703	20640
852.838	20560
852.973	20678
853.107	20655
853.242	20480
853.376	20271
853.511	20271
853.645	20298
853.78	20579
853.914	20351
854.048	20381
854.183	20351
854.317	20366
854.451	20465
854.585	20404
854.72	20408
854.854	20503
854.988	20294
855.122	20423
855.256	20191
855.39	20286
855.524	20423
855.658	20400
855.792	20438
855.926	20446
856.06	20408
856.194	20313
856.327	20324
856.461	20286
856.595	20301
856.729	20332
856.862	20431
856.996	20393
857.13	20427
857.263	20457
857.397	20328
857.53	20317
857.664	20389
857.797	20434
857.931	20488
858.064	20309
858.197	20511
858.331	20389
858.464	20336
858.597	20195
858.731	20282
858.864	20412
858.997	20301
859.13	20248
859.263	20256
859.396	20396
859.529	20419
859.662	20305
859.795	20122
859.928	20096
860.061	20438
860.194	20446
860.327	20278
860.46	20393
860.592	20427
860.725	20374
860.858	20454
860.99	20313
861.123	20195
861.256	20214
861.388	20301
861.521	20883
861.653	20172
861.786	20088
861.918	20206
862.05	20046
862.183	20305
862.315	20332
862.447	20434
862.58	20240
862.712	20153
862.844	19982
862.976	20126
863.108	20096
863.24	20393
863.372	19967
863.504	20001
863.636	19940
863.768	19989
863.9	20031
864.032	19947
864.164	19978
864.296	19955
864.428	20210
864.559	20138
864.691	19947
864.823	20039
864.954	19967
865.086	20054
865.217	19883
865.349	19928
865.48	19898
865.612	19921
865.743	20081
865.875	19898
866.006	19875
866.137	19944
866.269	19921
866.4	19845
866.531	19833
866.662	19814
866.793	19856
866.924	19871
867.055	19830
867.186	19860
867.317	19807
867.448	19784
867.579	19818
867.71	19708
867.841	19708
867.972	19890
868.103	19795
868.233	19799
868.364	19788
868.495	19856
868.625	19986
868.756	20221
868.886	20016
869.017	20119
869.147	20088
869.278	20195
869.408	20062
869.539	20058
869.669	20145
869.799	20024
869.929	20191
870.06	20233
870.19	20488
870.32	20336
870.45	20522
870.58	20492
870.71	20632
870.84	20541
870.97	20454
871.1	20473
871.23	20560
871.36	20689
871.489	20629
871.619	20545
871.749	20640
871.879	20705
872.008	20712
872.138	20712
872.267	20693
872.397	20568
872.526	20518
872.656	20484
872.785	20484
872.915	20720
873.044	20815
873.173	20678
873.303	20678
873.432	20765
873.561	20724
873.69	20834
873.819	20716
873.948	20674
874.077	20826
874.206	20579
874.335	20609
874.464	20868
874.593	20785
874.722	20883
874.851	20975
874.979	20986
875.108	21020
875.237	20941
875.365	20807
875.494	20891
875.623	21001
875.751	20880
875.88	20956
876.008	21017
876.136	21108
876.265	21363
876.393	21412
876.521	21287
876.65	21488
876.778	21355
876.906	21275
877.034	21374
877.162	21287
877.29	21233
877.418	21386
877.546	21374
877.674	21332
877.802	21245
877.93	21348
878.058	21329
878.185	21184
878.313	21294
878.441	21348
878.568	21173
878.696	21245
878.824	21310
878.951	21287
879.079	21439
879.206	21637
879.333	21504
879.461	21275
879.588	21386
879.715	21462
879.842	21507
879.97	21321
880.097	21074
880.224	21066
880.351	21108
880.478	21119
880.605	20941
880.732	21207
880.859	21287
880.986	21241
881.112	21131
881.239	20963
881.366	20929
881.493	20910
881.619	20686
881.746	20845
881.872	20689
881.999	20693
882.125	20686
882.252	20705
882.378	20617
882.505	20773
882.631	20670
882.757	20495
882.883	20590
883.01	20526
883.136	20442
883.262	20351
883.388	20343
883.514	20427
883.64	20488
883.766	20446
883.892	20305
884.018	20362
884.143	20427
884.269	20469
884.395	20100
884.52	19967
884.646	20027
884.772	20084
884.897	20016
885.023	20130
885.148	20164
885.274	20187
885.399	20115
885.524	20134
885.65	20046
885.775	20058
885.9	20016
886.025	20183
886.15	20069
886.275	20024
886.4	19951
886.525	19986
886.65	19978
886.775	19913
886.9	20142
887.025	20187
887.149	20077
887.274	19959
887.399	19887
887.523	19932
887.648	19788
887.773	19761
887.897	19833
888.021	19955
888.146	19902
888.27	19902
888.395	19974
888.519	19913
888.643	19909
888.767	19868
888.891	19746
889.015	19586
889.139	19799
889.263	19639
889.387	19715
889.511	19902
889.635	19791
889.759	19548
889.883	19590
890.006	19605
890.13	19651
890.254	19628
890.377	19514
890.501	19472
890.624	19270
890.748	19445
890.871	19327
890.995	19152
891.118	19164
891.241	19221
891.364	19388
891.488	19358
891.611	19293
891.734	19190
891.857	19232
891.98	19354
892.103	19324
892.226	19206
892.349	19202
892.471	19038
892.594	19152
892.717	19225
892.839	19187
892.962	19084
893.085	19175
893.207	19168
893.33	19008
893.452	19095
893.575	19206
893.697	19126
893.819	19381
893.941	19304
894.064	19308
894.186	19129
894.308	19194
894.43	19244
894.552	19422
894.674	19327
894.796	19034
894.918	19217
895.04	19069
895.161	19228
895.283	19263
895.405	19091
895.526	19255
895.648	19141
895.769	19293
895.891	19164
896.012	19217
896.134	19221
896.255	19137
896.376	19088
896.498	19228
896.619	19369
896.74	19266
896.861	19240
896.982	19628
897.103	19655
897.224	19434
897.345	19506
897.466	19403
897.587	19460
897.708	19525
897.828	19438
897.949	19445
898.07	19244
898.19	19392
898.311	19605
898.431	19354
898.552	19369
898.672	19464
898.792	19438
898.913	19369
899.033	19244
899.153	19221
899.273	19008
899.393	19110
899.513	19263
899.633	19168
899.753	19103
899.873	19141
899.993	19107
900.113	19126
900.232	19179
900.352	19065
900.472	19034
900.591	18924
900.711	18954
900.83	18939
900.95	19141
901.069	19171
901.189	18924
901.308	18642
901.427	18570
901.546	18547
901.665	18563
901.784	18540
901.904	18365
902.023	18353
902.141	18251
902.26	18034
902.379	18057
902.498	18091
902.617	17954
902.735	18083
902.854	17977
902.973	17999
903.091	17764
903.21	17707
903.328	17707
903.446	17634
903.565	17615
903.683	17478
903.801	17436
903.919	17452
904.038	17463
904.156	17376
904.274	17467
904.392	17360
904.51	17273
904.627	17273
904.745	17349
904.863	17379
904.981	17083
905.098	16995
905.216	16946
905.334	17071
905.451	17041
905.569	17014
905.686	17094
905.803	16995
905.921	16706
906.038	16949
906.155	16824
906.272	16618
906.389	16744
906.506	16478
906.623	16577
906.74	16550
906.857	16344
906.974	16459
907.091	16538
907.208	16618
907.324	16546
907.441	16493
907.557	16223
907.674	16223
907.79	16188
907.907	16211
908.023	16246
908.139	16204
908.256	16082
908.372	16166
908.488	16021
908.604	15941
908.72	15922
908.836	15918
908.952	15835
909.068	15888
909.184	16002
909.3	15972
909.415	16040
909.531	15793
909.647	15614
909.762	15584
909.878	15580
909.993	15603
910.108	15587
910.224	15523
910.339	15530
910.454	15568
910.57	15488
910.685	15370
910.8	15667
910.915	15523
911.03	15382
911.145	15298
911.259	15272
911.374	15199
911.489	15207
911.604	15135
911.718	14967
911.833	15066
911.947	14830
912.062	14819
912.176	14944
912.291	14975
912.405	14952
912.519	15112
912.633	15260
912.748	15017
912.862	14929
912.976	14796
913.09	14731
913.204	14731
913.318	14792
913.431	14876
913.545	14876
913.659	14937
913.772	14762
913.886	14663
914	14495
914.113	14667
914.226	14705
914.34	14674
914.453	14522
914.566	14689
914.68	14541
914.793	14469
914.906	14332
915.019	14214
915.132	14324
915.245	14199
915.358	14214
915.47	14237
915.583	14248
915.696	14176
915.809	14324
915.921	14374
916.034	14263
916.146	14153
916.259	14100
916.371	14301
916.483	14275
916.595	14088
916.708	14172
916.82	14111
916.932	14168
917.044	13970
917.156	14027
917.268	13913
917.38	13989
917.491	13830
917.603	13894
917.715	14008
917.826	14065
917.938	14035
918.049	13712
918.161	13856
918.272	13940
918.384	13993
918.495	13925
918.606	13734
918.717	13643
918.828	13674
918.939	13845
919.05	13556
919.161	13594
919.272	13529
919.383	13533
919.494	13799
919.604	13856
919.715	13708
919.826	13582
919.936	13681
920.047	13795
920.157	13681
920.267	13837
920.378	13655
920.488	13715
920.598	13864
920.708	13955
920.818	13830
920.928	13837
921.038	13932
921.148	13913
921.258	13666
921.368	13510
921.477	13411
921.587	13419
921.697	13327
921.806	13460
921.916	13339
922.025	13179
922.134	13072
922.244	13065
922.353	13050
922.462	12878
922.571	12875
922.68	12856
922.789	12753
922.898	12749
923.007	12597
923.116	12772
923.224	12662
923.333	12726
923.442	12483
923.55	12536
923.659	12540
923.767	12574
923.876	12471
923.984	12502
924.092	12369
924.201	12536
924.309	12544
924.417	12502
924.525	12483
924.633	12414
924.741	13179
924.849	12277
924.956	12342
925.064	12251
925.172	12083
925.279	12072
925.387	12114
925.494	12182
925.602	12292
925.709	12254
925.816	12068
925.924	12110
926.031	12258
926.138	12076
926.245	12182
926.352	11954
926.459	12194
926.566	12266
926.673	12019
926.779	11870
926.886	11958
926.993	11752
927.099	11726
927.206	11745
927.312	11649
927.419	11859
927.525	11703
927.631	11786
927.737	11627
927.843	11634
927.95	11467
928.056	11570
928.162	11623
928.267	11630
928.373	12144
928.479	11634
928.585	11395
928.69	11493
928.796	11547
928.901	11440
929.007	11322
929.112	11520
929.218	11414
929.323	11391
929.428	11288
929.533	11505
929.638	11201
929.743	11235
929.848	11330
929.953	11364
930.058	11193
930.163	11105
930.267	11029
930.372	11181
930.477	11025
930.581	11261
930.685	11056
930.79	10911
930.894	11006
930.998	10873
931.103	11060
931.207	10752
931.311	10535
931.415	10455
931.519	10318
931.623	10303
