Data from test_V78500241_3096.txt Node
Date: Fri Mar 25 15:31:25 CST 2022
User: usil
Spectrometer: V785-0024
Trigger mode: 0
Integration Time (sec): 4.000000E-1
Scans to average: 1
Nonlinearity correction enabled: false
Boxcar width: 0
Storing dark spectrum: false
XAxis mode: Wavelengths
Number of Pixels in Spectrum: 1024
>>>>>Begin Spectral Data<<<<<
801.071	26891
801.214	26758
801.356	26743
801.499	26602
801.641	26484
801.783	26400
801.926	26503
802.068	26461
802.211	26317
802.353	26301
802.496	26294
802.638	26172
802.78	25997
802.923	26161
803.065	25887
803.208	26039
803.35	26115
803.492	26256
803.635	26278
803.777	26039
803.919	26244
804.061	26518
804.204	26221
804.346	26210
804.488	26134
804.63	26240
804.773	26191
804.915	26176
805.057	26358
805.199	26275
805.341	26351
805.483	26377
805.626	26453
805.768	26290
805.91	26320
806.052	26309
806.194	26389
806.336	26541
806.478	26358
806.62	26385
806.762	26358
806.904	26560
807.046	26743
807.188	26735
807.33	26739
807.472	26815
807.614	26712
807.756	26750
807.898	26651
808.04	26457
808.182	26541
808.324	26526
808.465	26689
808.607	26754
808.749	26929
808.891	26990
809.033	27047
809.174	26956
809.316	26929
809.458	26944
809.6	26937
809.741	27119
809.883	27062
810.025	27218
810.166	27135
810.308	27218
810.45	27123
810.591	27272
810.733	27047
810.875	26762
811.016	26842
811.158	26670
811.299	27104
811.441	27150
811.582	27047
811.724	26815
811.865	26861
812.007	26887
812.148	26918
812.29	26838
812.431	27017
812.573	27233
812.714	27275
812.855	27424
812.997	27583
813.138	27568
813.279	27500
813.421	27382
813.562	27321
813.703	27188
813.845	26998
813.986	26765
814.127	26621
814.268	26598
814.41	26533
814.551	26556
814.692	26560
814.833	26377
814.974	26537
815.115	26564
815.256	26396
815.397	26355
815.539	26423
815.68	26126
815.821	26381
815.962	26282
816.103	26343
816.244	26103
816.385	26225
816.526	26142
816.666	25928
816.807	25814
816.948	25814
817.089	25841
817.23	25757
817.371	25822
817.512	25936
817.653	25772
817.793	25799
817.934	25769
818.075	25750
818.216	25830
818.356	25689
818.497	25658
818.638	25540
818.778	25635
818.919	25449
819.06	25597
819.2	25776
819.341	25757
819.481	25776
819.622	25879
819.762	26225
819.903	25997
820.043	25936
820.184	25795
820.324	25898
820.465	26043
820.605	25993
820.746	25986
820.886	25635
821.026	25845
821.167	25738
821.307	25959
821.447	25906
821.588	25575
821.728	25563
821.868	25449
822.008	25304
822.149	25255
822.289	25263
822.429	25042
822.569	24852
822.709	25061
822.849	24795
822.99	24871
823.13	24757
823.27	24726
823.41	24593
823.55	24559
823.69	24627
823.83	24509
823.97	24414
824.11	24380
824.25	24376
824.389	24315
824.529	24517
824.669	24403
824.809	24471
824.949	24540
825.089	24391
825.228	24505
825.368	24178
825.508	24159
825.648	24190
825.787	24232
825.927	24216
826.067	24190
826.206	24304
826.346	24247
826.485	24300
826.625	24311
826.765	24338
826.904	24277
827.044	23931
827.183	24022
827.323	24098
827.462	24068
827.601	23977
827.741	23901
827.88	23866
828.02	23851
828.159	24038
828.298	23958
828.437	24072
828.577	23973
828.716	24125
828.855	23973
828.994	23767
829.134	23600
829.273	23657
829.412	23718
829.551	23592
829.69	23714
829.829	23703
829.968	23824
830.107	23680
830.246	23657
830.385	23592
830.524	23596
830.663	23577
830.802	23372
830.941	23311
831.08	23280
831.219	23193
831.357	23417
831.496	23516
831.635	23311
831.774	23189
831.913	23204
832.051	23102
832.19	23075
832.329	23102
832.467	22999
832.606	22915
832.744	23025
832.883	22854
833.022	22911
833.16	22911
833.299	22991
833.437	22987
833.576	23075
833.714	22930
833.852	23056
833.991	23071
834.129	23155
834.267	23128
834.406	22999
834.544	23098
834.682	23189
834.821	23094
834.959	23208
835.097	22987
835.235	23140
835.373	23010
835.511	22984
835.65	22793
835.788	22877
835.926	22858
836.064	22641
836.202	22626
836.34	22919
836.478	22881
836.615	22679
836.753	22755
836.891	22892
837.029	22858
837.167	22790
837.305	22862
837.443	22611
837.58	22634
837.718	22809
837.856	22706
837.993	22733
838.131	22774
838.269	22497
838.406	22577
838.544	22527
838.681	22485
838.819	22280
838.956	22215
839.094	22166
839.231	22314
839.369	22371
839.506	22618
839.643	22675
839.781	22303
839.918	22204
840.055	22284
840.193	22135
840.33	22036
840.467	22166
840.604	22169
840.742	22421
840.879	22055
841.016	22109
841.153	22051
841.29	22337
841.427	22234
841.564	22070
841.701	22101
841.838	22055
841.975	22124
842.112	22207
842.249	21991
842.385	22025
842.522	22166
842.659	21956
842.796	21922
842.933	21998
843.069	21797
843.206	21819
843.343	21960
843.479	21850
843.616	21930
843.752	21694
843.889	21656
844.025	21842
844.162	21751
844.298	21755
844.435	21644
844.571	21732
844.708	21698
844.844	21728
844.98	21804
845.117	21850
845.253	21641
845.389	21447
845.525	21576
845.661	21637
845.798	21416
845.934	21401
846.07	21363
846.206	21424
846.342	21568
846.478	21378
846.614	21279
846.75	21081
846.886	21081
847.022	21268
847.158	21199
847.294	21135
847.429	21226
847.565	21112
847.701	21382
847.837	20941
847.972	20777
848.108	21051
848.244	20910
848.379	20823
848.515	20754
848.65	20724
848.786	20754
848.921	20739
849.057	20864
849.192	20956
849.328	20785
849.463	20769
849.598	20670
849.734	20606
849.869	20640
850.004	20621
850.14	20632
850.275	20587
850.41	20560
850.545	20583
850.68	20332
850.815	20476
850.95	20545
851.085	20777
851.22	20670
851.355	20434
851.49	20461
851.625	20526
851.76	20636
851.895	20400
852.03	20442
852.165	20518
852.299	20530
852.434	20594
852.569	20583
852.703	20644
852.838	20583
852.973	20678
853.107	20648
853.242	20461
853.376	20313
853.511	20126
853.645	20278
853.78	20434
853.914	20351
854.048	20305
854.183	20271
854.317	20282
854.451	20644
854.585	20305
854.72	20328
854.854	20522
854.988	20187
855.122	20320
855.256	20221
855.39	20385
855.524	20328
855.658	20400
855.792	20286
855.926	20309
856.06	20396
856.194	20556
856.327	20252
856.461	20233
856.595	20305
856.729	20294
856.862	20339
856.996	20286
857.13	20503
857.263	20469
857.397	20507
857.53	20355
857.664	20434
857.797	20412
857.931	20454
858.064	20362
858.197	20446
858.331	20259
858.464	20286
858.597	20328
858.731	20275
858.864	20374
858.997	20370
859.13	20305
859.263	20396
859.396	20396
859.529	20248
859.662	20271
859.795	20324
859.928	20339
860.061	20434
860.194	20583
860.327	20438
860.46	20461
860.592	20488
860.725	20568
860.858	20568
860.99	20336
861.123	20278
861.256	20244
861.388	20355
861.521	20921
861.653	20229
861.786	20005
861.918	20229
862.05	20180
862.183	20343
862.315	20423
862.447	20389
862.58	20248
862.712	20103
862.844	20043
862.976	20046
863.108	20043
863.24	20476
863.372	20039
863.504	20103
863.636	20122
863.768	20065
863.9	20096
864.032	19993
864.164	20058
864.296	20119
864.428	20142
864.559	20130
864.691	20164
864.823	20073
864.954	20020
865.086	20050
865.217	19921
865.349	19860
865.48	19986
865.612	20084
865.743	20065
865.875	19955
866.006	19944
866.137	19997
866.269	20016
866.4	19887
866.531	20001
866.662	19830
866.793	19894
866.924	19925
867.055	19879
867.186	19963
867.317	19765
867.448	19833
867.579	19921
867.71	19837
867.841	19704
867.972	19837
868.103	19852
868.233	19902
868.364	19856
868.495	20164
868.625	20054
868.756	20298
868.886	20065
869.017	20183
869.147	20248
869.278	20214
869.408	20229
869.539	20214
869.669	20275
869.799	20237
869.929	20290
870.06	20252
870.19	20408
870.32	20366
870.45	20526
870.58	20438
870.71	20625
870.84	20579
870.97	20495
871.1	20659
871.23	20663
871.36	20762
871.489	20602
871.619	20716
871.749	20769
871.879	20811
872.008	20902
872.138	20960
872.267	20754
872.397	20609
872.526	20651
872.656	20549
872.785	20541
872.915	20819
873.044	20864
873.173	20838
873.303	20815
873.432	20830
873.561	20826
873.69	20750
873.819	20686
873.948	20933
874.077	20769
874.206	20777
874.335	20762
874.464	20963
874.593	21081
874.722	21009
874.851	21077
874.979	21074
875.108	21047
875.237	21039
875.365	20990
875.494	20990
875.623	21089
875.751	20990
875.88	21096
876.008	21192
876.136	21173
876.265	21332
876.393	21713
876.521	21485
876.65	21401
876.778	21462
876.906	21466
877.034	21279
877.162	21431
877.29	21405
877.418	21344
877.546	21351
877.674	21359
877.802	21386
877.93	21504
878.058	21313
878.185	21298
878.313	21302
878.441	21340
878.568	21195
878.696	21386
878.824	21317
878.951	21481
879.079	21648
879.206	21698
879.333	21481
879.461	21572
879.588	21466
879.715	21519
879.842	21690
879.97	21401
880.097	21355
880.224	21180
880.351	21348
880.478	21256
880.605	21150
880.732	21150
880.859	21466
880.986	21157
881.112	21287
881.239	21070
881.366	20872
881.493	20925
881.619	20739
881.746	20697
881.872	20788
881.999	20800
882.125	20731
882.252	20796
882.378	20838
882.505	20845
882.631	20636
882.757	20560
882.883	20716
883.01	20636
883.136	20545
883.262	20339
883.388	20343
883.514	20492
883.64	20564
883.766	20400
883.892	20362
884.018	20480
884.143	20473
884.269	20571
884.395	20408
884.52	20206
884.646	20172
884.772	20111
884.897	20157
885.023	20107
885.148	20195
885.274	20457
885.399	20229
885.524	20210
885.65	20119
885.775	20275
885.9	20122
886.025	20191
886.15	20263
886.275	20065
886.4	20084
886.525	20172
886.65	19982
886.775	20103
886.9	20168
887.025	20286
887.149	20084
887.274	20035
887.399	19841
887.523	19849
887.648	20001
887.773	19871
887.897	20043
888.021	19963
888.146	19890
888.27	19963
888.395	19989
888.519	19967
888.643	19947
888.767	19974
888.891	19887
889.015	19811
889.139	19750
889.263	19799
889.387	19879
889.511	19947
889.635	19803
889.759	19651
889.883	19548
890.006	19780
890.13	19887
890.254	19723
890.377	19750
890.501	19499
890.624	19510
890.748	19540
890.871	19403
890.995	19304
891.118	19289
891.241	19358
891.364	19419
891.488	19487
891.611	19365
891.734	19327
891.857	19434
891.98	19369
892.103	19400
892.226	19282
892.349	19293
892.471	19118
892.594	19270
892.717	19365
892.839	19213
892.962	19225
893.085	19251
893.207	19266
893.33	19217
893.452	19164
893.575	19460
893.697	19187
893.819	19396
893.941	19472
894.064	19316
894.186	19206
894.308	19141
894.43	19282
894.552	19430
894.674	19358
894.796	19141
894.918	19320
895.04	19209
895.161	19335
895.283	19312
895.405	19190
895.526	19285
895.648	19160
895.769	19236
895.891	19457
896.012	19384
896.134	19289
896.255	19304
896.376	19304
896.498	19274
896.619	19343
896.74	19263
896.861	19339
896.982	19556
897.103	19704
897.224	19468
897.345	19514
897.466	19400
897.587	19510
897.708	19689
897.828	19518
897.949	19400
898.07	19384
898.19	19343
898.311	19613
898.431	19388
898.552	19533
898.672	19601
898.792	19582
898.913	19597
899.033	19502
899.153	19415
899.273	19285
899.393	19282
899.513	19198
899.633	19320
899.753	19282
899.873	19225
899.993	19282
900.113	19236
900.232	19209
900.352	19145
900.472	19179
900.591	19053
900.711	19015
900.83	18981
900.95	19099
901.069	19129
901.189	18935
901.308	18798
901.427	18635
901.546	18639
901.665	18665
901.784	18555
901.904	18578
902.023	18486
902.141	18300
902.26	18205
902.379	18205
902.498	18155
902.617	18098
902.735	18201
902.854	18079
902.973	18129
903.091	17840
903.21	17836
903.328	17748
903.446	17748
903.565	17707
903.683	17638
903.801	17528
903.919	17623
904.038	17581
904.156	17459
904.274	17566
904.392	17482
904.51	17414
904.627	17406
904.745	17509
904.863	17395
904.981	17223
905.098	17212
905.216	17197
905.334	17170
905.451	17143
905.569	17060
905.686	17128
905.803	17105
905.921	16786
906.038	17067
906.155	16900
906.272	16885
906.389	16816
906.506	16687
906.623	16683
906.74	16592
906.857	16592
906.974	16596
907.091	16873
907.208	16862
907.324	16744
907.441	16592
907.557	16432
907.674	16424
907.79	16356
907.907	16417
908.023	16371
908.139	16367
908.256	16287
908.372	16280
908.488	16314
908.604	16158
908.72	16150
908.836	16219
908.952	16032
909.068	16226
909.184	16261
909.3	16086
909.415	16139
909.531	16086
909.647	15846
909.762	15922
909.878	15842
909.993	15759
910.108	15762
910.224	15762
910.339	15774
910.454	15819
910.57	15606
910.685	15587
910.8	15808
910.915	15816
911.03	15534
911.145	15481
911.259	15416
911.374	15401
911.489	15275
911.604	15268
911.718	15180
911.833	15180
911.947	15097
912.062	15074
912.176	15226
912.291	15226
912.405	15203
912.519	15382
912.633	15405
912.748	15188
912.862	15211
912.976	15024
913.09	14853
913.204	14960
913.318	15138
913.431	15089
913.545	15055
913.659	15123
913.772	15032
913.886	14811
914	14792
914.113	14902
914.226	14967
914.34	14933
914.453	14754
914.566	14804
914.68	14640
914.793	14670
914.906	14556
915.019	14503
915.132	14469
915.245	14332
915.358	14438
915.47	14495
915.583	14514
915.696	14518
915.809	14564
915.921	14518
916.034	14301
916.146	14374
916.259	14362
916.371	14492
916.483	14393
916.595	14263
916.708	14301
916.82	14240
916.932	14202
917.044	14339
917.156	14229
917.268	14168
917.38	14107
917.491	14039
917.603	14145
917.715	14320
917.826	14164
917.938	14081
918.049	13978
918.161	14069
918.272	14107
918.384	14164
918.495	14126
918.606	13890
918.717	13841
918.828	13925
918.939	13860
919.05	13849
919.161	13898
919.272	13693
919.383	13761
919.494	13947
919.604	14077
919.715	13894
919.826	13784
919.936	13814
920.047	13913
920.157	13856
920.267	14092
920.378	13967
920.488	13868
920.598	14077
920.708	14199
920.818	14012
920.928	14054
921.038	14123
921.148	14123
921.258	13830
921.368	13712
921.477	13594
921.587	13594
921.697	13529
921.806	13567
921.916	13540
922.025	13350
922.134	13221
922.244	13152
922.353	13331
922.462	13228
922.571	13171
922.68	12954
922.789	12989
922.898	12916
923.007	12924
923.116	12848
923.224	12837
923.333	12852
923.442	12829
923.55	12760
923.659	12783
923.767	12722
923.876	12764
923.984	12722
924.092	12593
924.201	12719
924.309	12741
924.417	12734
924.525	12616
924.633	12601
924.741	13537
924.849	12471
924.956	12585
925.064	12479
925.172	12323
925.279	12426
925.387	12365
925.494	12391
925.602	12525
925.709	12395
925.816	12327
925.924	12357
926.031	12414
926.138	12338
926.245	12403
926.352	12277
926.459	12296
926.566	12350
926.673	12232
926.779	12186
926.886	12178
926.993	12015
927.099	12011
927.206	11984
927.312	11821
927.419	11965
927.525	11931
927.631	12129
927.737	11893
927.843	11843
927.95	11684
928.056	11847
928.162	11840
928.267	11866
928.373	12464
928.479	11855
928.585	11634
928.69	11748
928.796	11798
928.901	11684
929.007	11592
929.112	11653
929.218	11688
929.323	11619
929.428	11528
929.533	11672
929.638	11543
929.743	11532
929.848	11524
929.953	11478
930.058	11429
930.163	11159
930.267	11326
930.372	11417
930.477	11105
930.581	11433
930.685	11288
930.79	11140
930.894	11121
930.998	11128
931.103	11277
931.207	10873
931.311	10835
931.415	10694
931.519	10508
931.623	10554
