Data from test_V78500241_215.txt Node
Date: Fri Mar 25 15:11:21 CST 2022
User: usil
Spectrometer: V785-0024
Trigger mode: 0
Integration Time (sec): 4.000000E-1
Scans to average: 1
Nonlinearity correction enabled: false
Boxcar width: 0
Storing dark spectrum: false
XAxis mode: Wavelengths
Number of Pixels in Spectrum: 1024
>>>>>Begin Spectral Data<<<<<
801.071	27393
801.214	27549
801.356	27184
801.499	27256
801.641	26940
801.783	27013
801.926	27165
802.068	26963
802.211	26933
802.353	26918
802.496	26887
802.638	26701
802.78	26648
802.923	26663
803.065	26533
803.208	26655
803.35	26682
803.492	26781
803.635	26868
803.777	26727
803.919	26765
804.061	27135
804.204	26815
804.346	26686
804.488	26602
804.63	26640
804.773	26552
804.915	26769
805.057	26743
805.199	26712
805.341	26746
805.483	26853
805.626	26838
805.768	26686
805.91	26937
806.052	26632
806.194	26667
806.336	26895
806.478	26743
806.62	26735
806.762	26887
806.904	27150
807.046	27275
807.188	27203
807.33	27070
807.472	27287
807.614	27066
807.756	27112
807.898	26967
808.04	26918
808.182	26960
808.324	27096
808.465	26960
808.607	27188
808.749	27268
808.891	27283
809.033	27637
809.174	27473
809.316	27420
809.458	27359
809.6	27325
809.741	27504
809.883	27329
810.025	27572
810.166	27496
810.308	27568
810.45	27614
810.591	27557
810.733	27279
810.875	27268
811.016	27131
811.158	27100
811.299	27226
811.441	27507
811.582	27382
811.724	27283
811.865	27127
812.007	27195
812.148	27188
812.29	27340
812.431	27500
812.573	27599
812.714	27641
812.855	27747
812.997	27842
813.138	28070
813.279	27945
813.421	27835
813.562	27724
813.703	27564
813.845	27587
813.986	27150
814.127	27024
814.268	26933
814.41	27062
814.551	26849
814.692	26944
814.833	26735
814.974	26746
815.115	26891
815.256	26629
815.397	26663
815.539	26769
815.68	26598
815.821	26712
815.962	26697
816.103	26674
816.244	26465
816.385	26412
816.526	26366
816.666	26206
816.807	26092
816.948	26164
817.089	26180
817.23	26237
817.371	26012
817.512	26035
817.653	25963
817.793	26046
817.934	26134
818.075	26062
818.216	26122
818.356	26035
818.497	25936
818.638	25776
818.778	25822
818.919	25818
819.06	25712
819.2	25936
819.341	25982
819.481	26050
819.622	26081
819.762	26153
819.903	26358
820.043	26122
820.184	26145
820.324	26149
820.465	26282
820.605	26088
820.746	26149
820.886	25947
821.026	26107
821.167	26096
821.307	26142
821.447	25921
821.588	25757
821.728	25822
821.868	25647
822.008	25476
822.149	25472
822.289	25525
822.429	25255
822.569	25190
822.709	25061
822.849	25027
822.99	24954
823.13	24939
823.27	24977
823.41	24734
823.55	24631
823.69	24791
823.83	24684
823.97	24707
824.11	24604
824.25	24574
824.389	24627
824.529	24684
824.669	24570
824.809	24631
824.949	24608
825.089	24715
825.228	24547
825.368	24380
825.508	24399
825.648	24330
825.787	24627
825.927	24395
826.067	24289
826.206	24475
826.346	24429
826.485	24513
826.625	24289
826.765	24418
826.904	24429
827.044	24125
827.183	24167
827.323	24095
827.462	24022
827.601	23980
827.741	24159
827.88	24148
828.02	23893
828.159	24011
828.298	24190
828.437	24171
828.577	24011
828.716	24110
828.855	24041
828.994	23809
829.134	23783
829.273	23855
829.412	23649
829.551	23764
829.69	23741
829.829	23866
829.968	23680
830.107	23821
830.246	23790
830.385	23752
830.524	23623
830.663	23535
830.802	23433
830.941	23433
831.08	23204
831.219	23379
831.357	23433
831.496	23547
831.635	23307
831.774	23216
831.913	23212
832.051	23296
832.19	23155
832.329	23128
832.467	22980
832.606	23067
832.744	22991
832.883	22877
833.022	23029
833.16	22999
833.299	23048
833.437	22953
833.576	23102
833.714	23037
833.852	23200
833.991	23117
834.129	23216
834.267	23208
834.406	23086
834.544	23113
834.682	23159
834.821	22942
834.959	23212
835.097	22934
835.235	23060
835.373	22972
835.511	23109
835.65	22744
835.788	23067
835.926	22645
836.064	22698
836.202	22820
836.34	22911
836.478	22862
836.615	22877
836.753	22923
836.891	22942
837.029	22889
837.167	22782
837.305	22824
837.443	22626
837.58	22675
837.718	22755
837.856	22710
837.993	22668
838.131	22672
838.269	22607
838.406	22656
838.544	22535
838.681	22390
838.819	22413
838.956	22181
839.094	22147
839.231	22207
839.369	22421
839.506	22557
839.643	22295
839.781	22128
839.918	21998
840.055	22188
840.193	22226
840.33	22059
840.467	21983
840.604	22044
840.742	22303
840.879	21991
841.016	22086
841.153	22017
841.29	22139
841.427	21991
841.564	22169
841.701	22013
841.838	21975
841.975	21861
842.112	21895
842.249	21979
842.385	21759
842.522	22013
842.659	21781
842.796	21724
842.933	21850
843.069	21713
843.206	21865
843.343	22002
843.479	21861
843.616	21789
843.752	21595
843.889	21576
844.025	21804
844.162	21553
844.298	21675
844.435	21614
844.571	21466
844.708	21515
844.844	21694
844.98	21797
845.117	21663
845.253	21553
845.389	21428
845.525	21507
845.661	21363
845.798	21245
845.934	21443
846.07	21241
846.206	21298
846.342	21485
846.478	21302
846.614	21112
846.75	20948
846.886	21085
847.022	21154
847.158	21100
847.294	21036
847.429	21127
847.565	20986
847.701	21184
847.837	20686
847.972	20819
848.108	20895
848.244	20796
848.379	20773
848.515	20712
848.65	20571
848.786	20686
848.921	20575
849.057	20758
849.192	20807
849.328	20640
849.463	20564
849.598	20571
849.734	20511
849.869	20564
850.004	20393
850.14	20286
850.275	20385
850.41	20404
850.545	20332
850.68	20347
850.815	20434
850.95	20423
851.085	20552
851.22	20526
851.355	20381
851.49	20328
851.625	20301
851.76	20282
851.895	20168
852.03	20267
852.165	20256
852.299	20412
852.434	20389
852.569	20336
852.703	20301
852.838	20385
852.973	20518
853.107	20484
853.242	20313
853.376	20301
853.511	20035
853.645	20157
853.78	20206
853.914	20180
854.048	20077
854.183	20149
854.317	20195
854.451	20381
854.585	20176
854.72	20134
854.854	20286
854.988	20058
855.122	20039
855.256	20065
855.39	20225
855.524	20092
855.658	20324
855.792	20164
855.926	20187
856.06	20202
856.194	20130
856.327	20100
856.461	20092
856.595	20119
856.729	20122
856.862	20214
856.996	20233
857.13	20210
857.263	20267
857.397	20062
857.53	20115
857.664	20202
857.797	20187
857.931	20275
858.064	20130
858.197	20259
858.331	20035
858.464	20100
858.597	19993
858.731	20111
858.864	20035
858.997	20016
859.13	20035
859.263	20145
859.396	20161
859.529	20088
859.662	20027
859.795	20046
859.928	20069
860.061	20233
860.194	20320
860.327	20126
860.46	20062
860.592	20282
860.725	20225
860.858	20278
860.99	20084
861.123	19986
861.256	20001
861.388	20024
861.521	20838
861.653	19993
861.786	20020
861.918	20119
862.05	20065
862.183	20084
862.315	20043
862.447	20275
862.58	19928
862.712	19913
862.844	19944
862.976	19974
863.108	19902
863.24	20362
863.372	19757
863.504	19750
863.636	19784
863.768	19750
863.9	19932
864.032	19715
864.164	19841
864.296	19887
864.428	19936
864.559	19841
864.691	19928
864.823	19784
864.954	19811
865.086	19883
865.217	19719
865.349	19761
865.48	19776
865.612	19822
865.743	19845
865.875	19826
866.006	19677
866.137	19757
866.269	19772
866.4	19723
866.531	19605
866.662	19613
866.793	19632
866.924	19708
867.055	19567
867.186	19734
867.317	19776
867.448	19537
867.579	19651
867.71	19594
867.841	19567
867.972	19753
868.103	19662
868.233	19727
868.364	19670
868.495	19784
868.625	19947
868.756	20039
868.886	19921
869.017	19909
869.147	20077
869.278	20103
869.408	19955
869.539	19890
869.669	19940
869.799	19989
869.929	20027
870.06	20001
870.19	20191
870.32	20206
870.45	20282
870.58	20282
870.71	20381
870.84	20385
870.97	20332
871.1	20396
871.23	20461
871.36	20545
871.489	20328
871.619	20579
871.749	20518
871.879	20602
872.008	20609
872.138	20648
872.267	20503
872.397	20415
872.526	20301
872.656	20294
872.785	20427
872.915	20549
873.044	20682
873.173	20583
873.303	20499
873.432	20727
873.561	20575
873.69	20503
873.819	20423
873.948	20514
874.077	20560
874.206	20488
874.335	20545
874.464	20667
874.593	20834
874.722	20686
874.851	20785
874.979	20785
875.108	20872
875.237	20758
875.365	20693
875.494	20838
875.623	20842
875.751	20727
875.88	20807
876.008	20929
876.136	20990
876.265	21195
876.393	21447
876.521	21260
876.65	21226
876.778	21199
876.906	21207
877.034	21093
877.162	21241
877.29	21165
877.418	21192
877.546	21188
877.674	21119
877.802	21176
877.93	21032
878.058	21241
878.185	20994
878.313	21157
878.441	21214
878.568	20948
878.696	21062
878.824	21173
878.951	21237
879.079	21336
879.206	21374
879.333	21363
879.461	21249
879.588	21199
879.715	21298
879.842	21317
879.97	21184
880.097	20937
880.224	20842
880.351	21096
880.478	21036
880.605	20815
880.732	20899
880.859	21237
880.986	21036
881.112	20979
881.239	20933
881.366	20735
881.493	20598
881.619	20590
881.746	20655
881.872	20552
881.999	20545
882.125	20575
882.252	20507
882.378	20499
882.505	20705
882.631	20545
882.757	20347
882.883	20419
883.01	20358
883.136	20263
883.262	20176
883.388	20225
883.514	20199
883.64	20400
883.766	20256
883.892	20046
884.018	20119
884.143	20172
884.269	20233
884.395	20024
884.52	20035
884.646	19963
884.772	19887
884.897	19795
885.023	20092
885.148	20077
885.274	20111
885.399	20046
885.524	19811
885.65	20001
885.775	19906
885.9	19959
886.025	20069
886.15	20039
886.275	19928
886.4	19898
886.525	19883
886.65	19879
886.775	19894
886.9	20043
887.025	20202
887.149	19875
887.274	19852
887.399	19689
887.523	19693
887.648	19708
887.773	19624
887.897	19799
888.021	19734
888.146	19666
888.27	19799
888.395	19811
888.519	19761
888.643	19639
888.767	19655
888.891	19567
889.015	19567
889.139	19655
889.263	19514
889.387	19727
889.511	19765
889.635	19582
889.759	19506
889.883	19525
890.006	19445
890.13	19597
890.254	19358
890.377	19381
890.501	19422
890.624	19266
890.748	19263
890.871	19179
890.995	19183
891.118	19080
891.241	19103
891.364	19084
891.488	19168
891.611	19084
891.734	19110
891.857	19126
891.98	19160
892.103	19110
892.226	19137
892.349	19072
892.471	18837
892.594	19057
892.717	18954
892.839	18886
892.962	19012
893.085	19095
893.207	19023
893.33	18814
893.452	19008
893.575	19118
893.697	18882
893.819	19190
893.941	19251
894.064	19171
894.186	19004
894.308	18954
894.43	19008
894.552	19217
894.674	19118
894.796	18901
894.918	19069
895.04	19023
895.161	19061
895.283	19046
895.405	18996
895.526	19027
895.648	19133
895.769	19129
895.891	18985
896.012	19236
896.134	19187
896.255	19080
896.376	19069
896.498	18985
896.619	19179
896.74	19023
896.861	19175
896.982	19415
897.103	19460
897.224	19377
897.345	19419
897.466	19247
897.587	19270
897.708	19392
897.828	19278
897.949	19198
898.07	19198
898.19	19129
898.311	19343
898.431	19129
898.552	19274
898.672	19335
898.792	19266
898.913	19225
899.033	19091
899.153	19080
899.273	18996
899.393	18935
899.513	18993
899.633	19118
899.753	19065
899.873	18882
899.993	19088
900.113	18954
900.232	18996
900.352	18890
900.472	18840
900.591	18726
900.711	18875
900.83	18764
900.95	18954
901.069	18897
901.189	18722
901.308	18456
901.427	18429
901.546	18414
901.665	18452
901.784	18460
901.904	18300
902.023	18182
902.141	18053
902.26	17847
902.379	17992
902.498	17950
902.617	17828
902.735	18053
902.854	17885
902.973	17935
903.091	17672
903.21	17585
903.328	17611
903.446	17516
903.565	17448
903.683	17516
903.801	17288
903.919	17471
904.038	17299
904.156	17185
904.274	17265
904.392	17143
904.51	17151
904.627	17155
904.745	17273
904.863	17178
904.981	17041
905.098	16953
905.216	16927
905.334	16938
905.451	16946
905.569	16843
905.686	16980
905.803	16755
905.921	16679
906.038	16763
906.155	16786
906.272	16489
906.389	16615
906.506	16413
906.623	16363
906.74	16455
906.857	16299
906.974	16303
907.091	16360
907.208	16603
907.324	16413
907.441	16253
907.557	16158
907.674	16204
907.79	16048
907.907	16036
908.023	16177
908.139	16131
908.256	15922
908.372	16021
908.488	16002
908.604	15880
908.72	15728
908.836	15888
908.952	15857
909.068	15903
909.184	15895
909.3	15827
909.415	15895
909.531	15793
909.647	15580
909.762	15519
909.878	15530
909.993	15603
910.108	15511
910.224	15473
910.339	15439
910.454	15344
910.57	15332
910.685	15260
910.8	15568
910.915	15553
911.03	15336
911.145	15211
911.259	15173
911.374	15222
911.489	15093
911.604	14990
911.718	14914
911.833	14891
911.947	14750
912.062	14651
912.176	14895
912.291	15024
912.405	14830
912.519	15055
912.633	15039
912.748	14956
912.862	14842
912.976	14765
913.09	14594
913.204	14708
913.318	14758
913.431	14819
913.545	14834
913.659	14807
913.772	14716
913.886	14537
914	14499
914.113	14659
914.226	14705
914.34	14583
914.453	14438
914.566	14530
914.68	14469
914.793	14374
914.906	14202
915.019	14168
915.132	14130
915.245	14183
915.358	14180
915.47	14168
915.583	14153
915.696	14210
915.809	14362
915.921	14362
916.034	14073
916.146	14008
916.259	14161
916.371	14221
916.483	14123
916.595	14043
916.708	13997
916.82	14054
916.932	14005
917.044	13982
917.156	13944
917.268	13788
917.38	13894
917.491	13784
917.603	13898
917.715	13906
917.826	13947
917.938	13814
918.049	13769
918.161	13894
918.272	13906
918.384	13928
918.495	13753
918.606	13693
918.717	13582
918.828	13575
918.939	13639
919.05	13491
919.161	13620
919.272	13457
919.383	13438
919.494	13685
919.604	13772
919.715	13544
919.826	13552
919.936	13559
920.047	13689
920.157	13575
920.267	13818
920.378	13609
920.488	13518
920.598	13818
920.708	13932
920.818	13708
920.928	13845
921.038	13887
921.148	13883
921.258	13468
921.368	13445
921.477	13316
921.587	13327
921.697	13270
921.806	13457
921.916	13198
922.025	13069
922.134	12924
922.244	12909
922.353	12977
922.462	12935
922.571	12791
922.68	12597
922.789	12608
922.898	12662
923.007	12486
923.116	12616
923.224	12642
923.333	12604
923.442	12502
923.55	12483
923.659	12456
923.767	12521
923.876	12460
923.984	12467
924.092	12445
924.201	12448
924.309	12399
924.417	12380
924.525	12350
924.633	12388
924.741	13080
924.849	12201
924.956	12319
925.064	12171
925.172	12034
925.279	12068
925.387	12182
925.494	12110
925.602	12213
925.709	12110
925.816	12053
925.924	12072
926.031	12167
926.138	12106
926.245	12045
926.352	12007
926.459	12121
926.566	12194
926.673	11999
926.779	11824
926.886	11885
926.993	11688
927.099	11718
927.206	11642
927.312	11638
927.419	11752
927.525	11668
927.631	11707
927.737	11604
927.843	11524
927.95	11414
928.056	11577
928.162	11600
928.267	11570
928.373	12186
928.479	11615
928.585	11349
928.69	11478
928.796	11490
928.901	11417
929.007	11227
929.112	11406
929.218	11341
929.323	11341
929.428	11330
929.533	11474
929.638	11231
929.743	11265
929.848	11296
929.953	11235
930.058	11143
930.163	11006
930.267	10919
930.372	11086
930.477	10881
930.581	11239
930.685	11037
930.79	10824
930.894	10904
930.998	10816
931.103	11010
931.207	10637
931.311	10550
931.415	10424
931.519	10287
931.623	10268
