Data from test_V78500241_1502.txt Node
Date: Fri Mar 25 15:20:18 CST 2022
User: usil
Spectrometer: V785-0024
Trigger mode: 0
Integration Time (sec): 4.000000E-1
Scans to average: 1
Nonlinearity correction enabled: false
Boxcar width: 0
Storing dark spectrum: false
XAxis mode: Wavelengths
Number of Pixels in Spectrum: 1024
>>>>>Begin Spectral Data<<<<<
801.071	28063
801.214	28048
801.356	27652
801.499	27648
801.641	27663
801.783	27462
801.926	27595
802.068	27637
802.211	27549
802.353	27538
802.496	27344
802.638	27329
802.78	27199
802.923	27036
803.065	27116
803.208	27043
803.35	27207
803.492	27363
803.635	27469
803.777	27256
803.919	27549
804.061	27652
804.204	27534
804.346	27374
804.488	27443
804.63	27447
804.773	27374
804.915	27427
805.057	27500
805.199	27389
805.341	27496
805.483	27751
805.626	27599
805.768	27477
805.91	27488
806.052	27648
806.194	27564
806.336	27842
806.478	27717
806.62	27519
806.762	27690
806.904	27865
807.046	27979
807.188	28010
807.33	27914
807.472	28044
807.614	27979
807.756	27876
807.898	27827
808.04	27838
808.182	27987
808.324	27975
808.465	27835
808.607	28010
808.749	28253
808.891	28371
809.033	28394
809.174	28344
809.316	28166
809.458	28219
809.6	28249
809.741	28325
809.883	28466
810.025	28519
810.166	28519
810.308	28588
810.45	28409
810.591	28497
810.733	28329
810.875	28192
811.016	28120
811.158	28040
811.299	28284
811.441	28295
811.582	28519
811.724	28462
811.865	28238
812.007	28246
812.148	28230
812.29	28230
812.431	28478
812.573	28580
812.714	28744
812.855	28793
812.997	28733
813.138	29090
813.279	28888
813.421	28824
813.562	28805
813.703	28596
813.845	28577
813.986	28238
814.127	28101
814.268	27884
814.41	27987
814.551	27945
814.692	27956
814.833	27956
814.974	27835
815.115	28032
815.256	27732
815.397	27778
815.539	27876
815.68	27812
815.821	27762
815.962	27781
816.103	27774
816.244	27557
816.385	27564
816.526	27443
816.666	27351
816.807	27211
816.948	27370
817.089	27336
817.23	27268
817.371	27192
817.512	27317
817.653	27089
817.793	27184
817.934	27165
818.075	27150
818.216	27184
818.356	27119
818.497	27188
818.638	26963
818.778	26998
818.919	26975
819.06	27146
819.2	27207
819.341	27070
819.481	27260
819.622	27298
819.762	27583
819.903	27603
820.043	27374
820.184	27401
820.324	27359
820.465	27492
820.605	27275
820.746	27374
820.886	27214
821.026	27184
821.167	27119
821.307	27291
821.447	27294
821.588	27077
821.728	27028
821.868	26868
822.008	26735
822.149	26708
822.289	26590
822.429	26514
822.569	26385
822.709	26317
822.849	26096
822.99	26191
823.13	26107
823.27	26103
823.41	25890
823.55	25921
823.69	26084
823.83	25993
823.97	25940
824.11	25776
824.25	25757
824.389	25791
824.529	25959
824.669	26012
824.809	25982
824.949	26024
825.089	25780
825.228	25947
825.368	25575
825.508	25712
825.648	25769
825.787	25731
825.927	25814
826.067	25529
826.206	25799
826.346	25772
826.485	25624
826.625	25734
826.765	25750
826.904	25734
827.044	25533
827.183	25518
827.323	25449
827.462	25346
827.601	25434
827.741	25464
827.88	25518
828.02	25362
828.159	25464
828.298	25422
828.437	25422
828.577	25354
828.716	25491
828.855	25327
828.994	25031
829.134	25110
829.273	25118
829.412	25057
829.551	24992
829.69	25217
829.829	25217
829.968	25194
830.107	25183
830.246	25110
830.385	25012
830.524	24909
830.663	24932
830.802	24772
830.941	24806
831.08	24578
831.219	24741
831.357	24840
831.496	24783
831.635	24673
831.774	24665
831.913	24665
832.051	24639
832.19	24445
832.329	24486
832.467	24426
832.606	24327
832.744	24437
832.883	24365
833.022	24391
833.16	24399
833.299	24380
833.437	24517
833.576	24456
833.714	24426
833.852	24498
833.991	24532
834.129	24544
834.267	24547
834.406	24399
834.544	24494
834.682	24547
834.821	24483
834.959	24502
835.097	24357
835.235	24627
835.373	24353
835.511	24441
835.65	24289
835.788	24483
835.926	24209
836.064	24087
836.202	24079
836.34	24209
836.478	24315
836.615	24338
836.753	24296
836.891	24292
837.029	24365
837.167	24152
837.305	24152
837.443	24125
837.58	24133
837.718	24106
837.856	23946
837.993	24076
838.131	24159
838.269	23870
838.406	23980
838.544	23969
838.681	23783
838.819	23851
838.956	23638
839.094	23684
839.231	23474
839.369	23760
839.506	23954
839.643	23737
839.781	23539
839.918	23482
840.055	23585
840.193	23509
840.33	23501
840.467	23425
840.604	23471
840.742	23786
840.879	23391
841.016	23421
841.153	23307
841.29	23596
841.427	23478
841.564	23474
841.701	23455
841.838	23509
841.975	23376
842.112	23467
842.249	23326
842.385	23132
842.522	23425
842.659	23318
842.796	23174
842.933	23235
843.069	23208
843.206	23223
843.343	23235
843.479	23277
843.616	23315
843.752	23003
843.889	22987
844.025	23075
844.162	23079
844.298	23010
844.435	23010
844.571	22927
844.708	23018
844.844	23079
844.98	23200
845.117	23193
845.253	22991
845.389	22854
845.525	22885
845.661	22885
845.798	22824
845.934	22771
846.07	22866
846.206	22694
846.342	22919
846.478	22649
846.614	22508
846.75	22421
846.886	22542
847.022	22493
847.158	22538
847.294	22504
847.429	22546
847.565	22424
847.701	22660
847.837	22143
847.972	22124
848.108	22356
848.244	22287
848.379	22154
848.515	22086
848.65	22006
848.786	22040
848.921	22074
849.057	22093
849.192	22150
849.328	22029
849.463	22131
849.598	22021
849.734	21880
849.869	22002
850.004	21804
850.14	21816
850.275	21770
850.41	21728
850.545	21800
850.68	21709
850.815	21819
850.95	21816
851.085	21953
851.22	21854
851.355	21930
851.49	21739
851.625	21892
851.76	21781
851.895	21751
852.03	21720
852.165	21831
852.299	21876
852.434	21755
852.569	21918
852.703	21804
852.838	21964
852.973	21880
853.107	21926
853.242	21842
853.376	21614
853.511	21401
853.645	21675
853.78	21690
853.914	21751
854.048	21599
854.183	21660
854.317	21709
854.451	21857
854.585	21679
854.72	21606
854.854	21781
854.988	21545
855.122	21671
855.256	21599
855.39	21606
855.524	21816
855.658	21797
855.792	21713
855.926	21682
856.06	21694
856.194	21641
856.327	21561
856.461	21523
856.595	21568
856.729	21572
856.862	21781
856.996	21618
857.13	21736
857.263	21728
857.397	21713
857.53	21614
857.664	21762
857.797	21743
857.931	21751
858.064	21637
858.197	21755
858.331	21675
858.464	21652
858.597	21469
858.731	21530
858.864	21724
858.997	21523
859.13	21667
859.263	21660
859.396	21717
859.529	21720
859.662	21614
859.795	21614
859.928	21701
860.061	21842
860.194	21960
860.327	21732
860.46	21751
860.592	21679
860.725	21819
860.858	21789
860.99	21698
861.123	21660
861.256	21576
861.388	21637
861.521	22173
861.653	21530
861.786	21401
861.918	21454
862.05	21530
862.183	21606
862.315	21701
862.447	21610
862.58	21675
862.712	21416
862.844	21302
862.976	21450
863.108	21310
863.24	21766
863.372	21370
863.504	21329
863.636	21351
863.768	21351
863.9	21466
864.032	21218
864.164	21393
864.296	21279
864.428	21469
864.559	21488
864.691	21412
864.823	21504
864.954	21374
865.086	21310
865.217	21218
865.349	21127
865.48	21241
865.612	21214
865.743	21424
865.875	21237
866.006	21241
866.137	21233
866.269	21230
866.4	21176
866.531	21112
866.662	21176
866.793	21184
866.924	21154
867.055	21176
867.186	21184
867.317	21119
867.448	20998
867.579	21161
867.71	21077
867.841	21047
867.972	21195
868.103	21085
868.233	21214
868.364	21207
868.495	21207
868.625	21355
868.756	21580
868.886	21268
869.017	21401
869.147	21473
869.278	21583
869.408	21351
869.539	21405
869.669	21428
869.799	21367
869.929	21500
870.06	21519
870.19	21648
870.32	21682
870.45	21709
870.58	21876
870.71	21808
870.84	21831
870.97	21682
871.1	21846
871.23	21953
871.36	21884
871.489	21945
871.619	21895
871.749	21960
871.879	21991
872.008	21975
872.138	22090
872.267	22017
872.397	21827
872.526	21728
872.656	21800
872.785	21793
872.915	22196
873.044	21987
873.173	22029
873.303	21956
873.432	22109
873.561	22078
873.69	22013
873.819	21915
873.948	22029
874.077	22147
874.206	21869
874.335	22021
874.464	22074
874.593	22207
874.722	22207
874.851	22215
874.979	22341
875.108	22185
875.237	22158
875.365	22109
875.494	22303
875.623	22337
875.751	22196
875.88	22306
876.008	22474
876.136	22341
876.265	22538
876.393	22790
876.521	22843
876.65	22729
876.778	22649
876.906	22508
877.034	22554
877.162	22573
877.29	22512
877.418	22630
877.546	22485
877.674	22516
877.802	22630
877.93	22512
878.058	22500
878.185	22512
878.313	22546
878.441	22607
878.568	22348
878.696	22550
878.824	22634
878.951	22675
879.079	22717
879.206	22831
879.333	22683
879.461	22725
879.588	22584
879.715	22767
879.842	22729
879.97	22615
880.097	22516
880.224	22333
880.351	22447
880.478	22413
880.605	22226
880.732	22272
880.859	22694
880.986	22280
881.112	22428
881.239	22265
881.366	22128
881.493	22226
881.619	21964
881.746	21991
881.872	21873
881.999	21956
882.125	21869
882.252	21937
882.378	21998
882.505	22021
882.631	21838
882.757	21694
882.883	21808
883.01	21648
883.136	21701
883.262	21587
883.388	21622
883.514	21652
883.64	21679
883.766	21610
883.892	21473
884.018	21576
884.143	21698
884.269	21641
884.395	21367
884.52	21321
884.646	21275
884.772	21252
884.897	21218
885.023	21291
885.148	21393
885.274	21428
885.399	21298
885.524	21249
885.65	21370
885.775	21272
885.9	21298
886.025	21424
886.15	21313
886.275	21260
886.4	21211
886.525	21211
886.65	21199
886.775	21245
886.9	21351
887.025	21492
887.149	21279
887.274	21001
887.399	21013
887.523	21135
887.648	21074
887.773	20864
887.897	21138
888.021	21199
888.146	21051
888.27	21165
888.395	21188
888.519	21203
888.643	21119
888.767	21135
888.891	20948
889.015	20895
889.139	20952
889.263	20830
889.387	20910
889.511	21184
889.635	20925
889.759	20895
889.883	20834
890.006	20849
890.13	20982
890.254	20773
890.377	20823
890.501	20663
890.624	20594
890.748	20522
890.871	20598
890.995	20461
891.118	20412
891.241	20545
891.364	20419
891.488	20564
891.611	20583
891.734	20347
891.857	20503
891.98	20457
892.103	20514
892.226	20507
892.349	20339
892.471	20256
892.594	20305
892.717	20275
892.839	20370
892.962	20282
893.085	20362
893.207	20355
893.33	20187
893.452	20202
893.575	20370
893.697	20339
893.819	20556
893.941	20560
894.064	20480
894.186	20286
894.308	20199
894.43	20419
894.552	20442
894.674	20366
894.796	20290
894.918	20294
895.04	20351
895.161	20404
895.283	20362
895.405	20100
895.526	20358
895.648	20347
895.769	20286
895.891	20396
896.012	20381
896.134	20427
896.255	20252
896.376	20218
896.498	20393
896.619	20317
896.74	20301
896.861	20332
896.982	20602
897.103	20746
897.224	20526
897.345	20571
897.466	20469
897.587	20556
897.708	20644
897.828	20499
897.949	20537
898.07	20282
898.19	20419
898.311	20552
898.431	20526
898.552	20503
898.672	20530
898.792	20549
898.913	20560
899.033	20507
899.153	20404
899.273	20199
899.393	20309
899.513	20385
899.633	20259
899.753	20374
899.873	20294
899.993	20366
900.113	20157
900.232	20400
900.352	20206
900.472	20176
900.591	20122
900.711	20157
900.83	20073
900.95	20050
901.069	20122
901.189	20005
901.308	19807
901.427	19674
901.546	19635
901.665	19715
901.784	19616
901.904	19559
902.023	19495
902.141	19179
902.26	19244
902.379	19209
902.498	19190
902.617	19179
902.735	19194
902.854	19080
902.973	19065
903.091	18924
903.21	18821
903.328	18856
903.446	18684
903.565	18601
903.683	18597
903.801	18582
903.919	18601
904.038	18627
904.156	18365
904.274	18483
904.392	18403
904.51	18243
904.627	18308
904.745	18304
904.863	18384
904.981	18121
905.098	18110
905.216	18095
905.334	18171
905.451	18159
905.569	17999
905.686	17961
905.803	17992
905.921	17828
906.038	18015
906.155	17726
906.272	17771
906.389	17760
906.506	17592
906.623	17512
906.74	17592
906.857	17455
906.974	17501
907.091	17718
907.208	17722
907.324	17752
907.441	17634
907.557	17417
907.674	17398
907.79	17258
907.907	17277
908.023	17303
908.139	17326
908.256	17273
908.372	17231
908.488	17261
908.604	17136
908.72	17014
908.836	17094
908.952	17018
909.068	17041
909.184	17052
909.3	16957
909.415	17045
909.531	17064
909.647	16847
909.762	16729
909.878	16717
909.993	16656
910.108	16656
910.224	16755
910.339	16580
910.454	16580
910.57	16512
910.685	16481
910.8	16733
910.915	16645
911.03	16531
911.145	16314
911.259	16314
911.374	16246
911.489	16181
911.604	16246
911.718	16025
911.833	16086
911.947	15960
912.062	15903
912.176	16017
912.291	16135
912.405	16013
912.519	16272
912.633	16196
912.748	16078
912.862	15960
912.976	15979
913.09	15785
913.204	15903
913.318	15854
913.431	15869
913.545	15895
913.659	15808
913.772	15823
913.886	15694
914	15599
914.113	15732
914.226	15694
914.34	15713
914.453	15545
914.566	15747
914.68	15542
914.793	15466
914.906	15386
915.019	15230
915.132	15214
915.245	15412
915.358	15283
915.47	15310
915.583	15260
915.696	15230
915.809	15351
915.921	15507
916.034	15222
916.146	15226
916.259	15169
916.371	15097
916.483	15184
916.595	14975
916.708	15165
916.82	15051
916.932	15017
917.044	15009
917.156	14990
917.268	14872
917.38	15020
917.491	14887
917.603	14933
917.715	14918
917.826	15097
917.938	14895
918.049	14746
918.161	14975
918.272	15097
918.384	14994
918.495	14891
918.606	14655
918.717	14678
918.828	14724
918.939	14724
919.05	14564
919.161	14579
919.272	14545
919.383	14522
919.494	14746
919.604	14838
919.715	14682
919.826	14667
919.936	14651
920.047	14708
920.157	14530
920.267	14830
920.378	14636
920.488	14655
920.598	14792
920.708	14937
920.818	14746
920.928	14651
921.038	14948
921.148	14872
921.258	14571
921.368	14499
921.477	14328
921.587	14320
921.697	14206
921.806	14492
921.916	14275
922.025	14008
922.134	13982
922.244	14020
922.353	14100
922.462	13837
922.571	13852
922.68	13647
922.789	13662
922.898	13677
923.007	13601
923.116	13708
923.224	13620
923.333	13681
923.442	13578
923.55	13506
923.659	13495
923.767	13552
923.876	13415
923.984	13483
924.092	13400
924.201	13354
924.309	13407
924.417	13434
924.525	13350
924.633	13316
924.741	14039
924.849	13069
924.956	13247
925.064	13160
925.172	12913
925.279	12985
925.387	13031
925.494	13019
925.602	13190
925.709	13122
925.816	12954
925.924	13095
926.031	13103
926.138	12962
926.245	12985
926.352	12970
926.459	12993
926.566	13031
926.673	12905
926.779	12787
926.886	12848
926.993	12730
927.099	12551
927.206	12536
927.312	12506
927.419	12669
927.525	12601
927.631	12642
927.737	12528
927.843	12422
927.95	12448
928.056	12414
928.162	12456
928.267	12525
928.373	13122
928.479	12486
928.585	12247
928.69	12433
928.796	12350
928.901	12330
929.007	12140
929.112	12270
929.218	12194
929.323	12152
929.428	12152
929.533	12247
929.638	12144
929.743	12144
929.848	12171
929.953	12110
930.058	12034
930.163	11786
930.267	11889
930.372	11946
930.477	11817
930.581	11996
930.685	11954
930.79	11745
930.894	11756
930.998	11798
931.103	11805
931.207	11391
931.311	11425
931.415	11356
931.519	11086
931.623	11071
