Data from test_V78500241_1729.txt Node
Date: Fri Mar 25 15:21:53 CST 2022
User: usil
Spectrometer: V785-0024
Trigger mode: 0
Integration Time (sec): 4.000000E-1
Scans to average: 1
Nonlinearity correction enabled: false
Boxcar width: 0
Storing dark spectrum: false
XAxis mode: Wavelengths
Number of Pixels in Spectrum: 1024
>>>>>Begin Spectral Data<<<<<
801.071	27800
801.214	27663
801.356	27576
801.499	27587
801.641	27431
801.783	27287
801.926	27203
802.068	27214
802.211	27310
802.353	27332
802.496	27116
802.638	26963
802.78	26963
802.923	26861
803.065	26971
803.208	26914
803.35	27020
803.492	27157
803.635	27180
803.777	27089
803.919	27154
804.061	27427
804.204	27279
804.346	27093
804.488	27131
804.63	27184
804.773	27051
804.915	27192
805.057	27294
805.199	27214
805.341	27272
805.483	27321
805.626	27370
805.768	27310
805.91	27222
806.052	27355
806.194	27089
806.336	27504
806.478	27283
806.62	27313
806.762	27450
806.904	27507
807.046	27774
807.188	27656
807.33	27774
807.472	27789
807.614	27739
807.756	27682
807.898	27564
808.04	27644
808.182	27542
808.324	27477
808.465	27701
808.607	27823
808.749	28158
808.891	27918
809.033	28029
809.174	28010
809.316	27998
809.458	27926
809.6	27914
809.741	28200
809.883	28154
810.025	28223
810.166	28185
810.308	28295
810.45	28211
810.591	28131
810.733	27998
810.875	27979
811.016	27854
811.158	27747
811.299	27983
811.441	28109
811.582	28010
811.724	27854
811.865	28010
812.007	27895
812.148	27911
812.29	27934
812.431	28048
812.573	28215
812.714	28310
812.855	28557
812.997	28470
813.138	28573
813.279	28618
813.421	28401
813.562	28421
813.703	28139
813.845	28272
813.986	27903
814.127	27709
814.268	27614
814.41	27671
814.551	27477
814.692	27648
814.833	27545
814.974	27667
815.115	27595
815.256	27504
815.397	27583
815.539	27397
815.68	27389
815.821	27431
815.962	27405
816.103	27332
816.244	27424
816.385	27268
816.526	27135
816.666	27116
816.807	26906
816.948	26975
817.089	27013
817.23	26971
817.371	26910
817.512	26902
817.653	26811
817.793	26823
817.934	26883
818.075	26891
818.216	26994
818.356	26933
818.497	26819
818.638	26644
818.778	26552
818.919	26674
819.06	26693
819.2	26777
819.341	26895
819.481	26948
819.622	27074
819.762	27192
819.903	27169
820.043	27165
820.184	27096
820.324	26979
820.465	27074
820.605	27116
820.746	27017
820.886	26872
821.026	26994
821.167	27005
821.307	27001
821.447	26895
821.588	26826
821.728	26613
821.868	26613
822.008	26339
822.149	26495
822.289	26362
822.429	26031
822.569	26035
822.709	26054
822.849	25837
822.99	25947
823.13	25856
823.27	25868
823.41	25807
823.55	25704
823.69	25727
823.83	25849
823.97	25605
824.11	25548
824.25	25434
824.389	25464
824.529	25632
824.669	25643
824.809	25597
824.949	25487
825.089	25601
825.228	25601
825.368	25430
825.508	25293
825.648	25335
825.787	25483
825.927	25506
826.067	25331
826.206	25343
826.346	25479
826.485	25400
826.625	25479
826.765	25514
826.904	25460
827.044	25156
827.183	25080
827.323	24977
827.462	25118
827.601	25107
827.741	25129
827.88	25152
828.02	25107
828.159	25027
828.298	25076
828.437	25076
828.577	25019
828.716	25133
828.855	25057
828.994	24901
829.134	24871
829.273	24829
829.412	24768
829.551	24673
829.69	24833
829.829	24764
829.968	24958
830.107	24764
830.246	24958
830.385	24673
830.524	24711
830.663	24688
830.802	24441
830.941	24578
831.08	24452
831.219	24612
831.357	24509
831.496	24589
831.635	24422
831.774	24388
831.913	24357
832.051	24342
832.19	24262
832.329	24342
832.467	24152
832.606	24064
832.744	24106
832.883	24053
833.022	24102
833.16	24213
833.299	24308
833.437	24155
833.576	24186
833.714	24144
833.852	24292
833.991	24106
834.129	24308
834.267	24232
834.406	24209
834.544	24171
834.682	24129
834.821	24174
834.959	24330
835.097	24167
835.235	24205
835.373	24296
835.511	24102
835.65	24049
835.788	24091
835.926	23935
836.064	23999
836.202	23855
836.34	23904
836.478	24174
836.615	23836
836.753	24083
836.891	24026
837.029	24026
837.167	23950
837.305	23916
837.443	23916
837.58	23863
837.718	23916
837.856	23874
837.993	23882
838.131	23733
838.269	23764
838.406	23923
838.544	23737
838.681	23528
838.819	23547
838.956	23505
839.094	23429
839.231	23425
839.369	23505
839.506	23733
839.643	23642
839.781	23417
839.918	23208
840.055	23273
840.193	23235
840.33	23254
840.467	23250
840.604	23330
840.742	23585
840.879	23170
841.016	23299
841.153	23326
841.29	23452
841.427	23204
841.564	23261
841.701	23296
841.838	23170
841.975	23098
842.112	23193
842.249	23056
842.385	23029
842.522	23277
842.659	23117
842.796	23037
842.933	22942
843.069	22968
843.206	22961
843.343	22987
843.479	22987
843.616	23075
843.752	22797
843.889	22908
844.025	22946
844.162	22835
844.298	22847
844.435	22812
844.571	22649
844.708	22763
844.844	22896
844.98	22930
845.117	22763
845.253	22790
845.389	22599
845.525	22557
845.661	22546
845.798	22573
845.934	22649
846.07	22580
846.206	22557
846.342	22634
846.478	22580
846.614	22360
846.75	22177
846.886	22268
847.022	22280
847.158	22284
847.294	22261
847.429	22272
847.565	22226
847.701	22462
847.837	21930
847.972	21949
848.108	22158
848.244	22048
848.379	21930
848.515	21831
848.65	21812
848.786	21785
848.921	21880
849.057	22002
849.192	21949
849.328	21899
849.463	21892
849.598	21854
849.734	21720
849.869	21694
850.004	21819
850.14	21713
850.275	21637
850.41	21534
850.545	21629
850.68	21439
850.815	21500
850.95	21549
851.085	21785
851.22	21781
851.355	21583
851.49	21542
851.625	21496
851.76	21660
851.895	21534
852.03	21515
852.165	21561
852.299	21641
852.434	21755
852.569	21580
852.703	21633
852.838	21652
852.973	21812
853.107	21671
853.242	21610
853.376	21443
853.511	21523
853.645	21374
853.78	21538
853.914	21496
854.048	21389
854.183	21405
854.317	21405
854.451	21564
854.585	21500
854.72	21469
854.854	21431
854.988	21466
855.122	21420
855.256	21317
855.39	21370
855.524	21466
855.658	21408
855.792	21363
855.926	21496
856.06	21488
856.194	21367
856.327	21389
856.461	21397
856.595	21355
856.729	21435
856.862	21496
856.996	21507
857.13	21462
857.263	21466
857.397	21545
857.53	21389
857.664	21485
857.797	21496
857.931	21599
858.064	21477
858.197	21526
858.331	21504
858.464	21443
858.597	21340
858.731	21367
858.864	21408
858.997	21416
859.13	21515
859.263	21408
859.396	21549
859.529	21382
859.662	21507
859.795	21435
859.928	21420
860.061	21587
860.194	21534
860.327	21321
860.46	21382
860.592	21504
860.725	21698
860.858	21526
860.99	21405
861.123	21351
861.256	21359
861.388	21496
861.521	22185
861.653	21260
861.786	21154
861.918	21275
862.05	21374
862.183	21321
862.315	21336
862.447	21447
862.58	21351
862.712	21184
862.844	21074
862.976	21325
863.108	21135
863.24	21671
863.372	21207
863.504	21032
863.636	21131
863.768	21195
863.9	21184
864.032	21028
864.164	21104
864.296	21165
864.428	21272
864.559	21203
864.691	21233
864.823	21039
864.954	21112
865.086	21123
865.217	20971
865.349	20902
865.48	20944
865.612	21077
865.743	21237
865.875	21051
866.006	20998
866.137	20918
866.269	21028
866.4	21070
866.531	20849
866.662	20990
866.793	20956
866.924	20796
867.055	20952
867.186	20933
867.317	20895
867.448	20864
867.579	20918
867.71	20952
867.841	20849
867.972	20979
868.103	20895
868.233	21093
868.364	20861
868.495	21089
868.625	21211
868.756	21230
868.886	21047
869.017	21245
869.147	21317
869.278	21249
869.408	21306
869.539	21169
869.669	21294
869.799	21237
869.929	21344
870.06	21211
870.19	21572
870.32	21401
870.45	21504
870.58	21587
870.71	21720
870.84	21709
870.97	21618
871.1	21610
871.23	21781
871.36	21804
871.489	21713
871.619	21736
871.749	21751
871.879	21819
872.008	21793
872.138	21869
872.267	21831
872.397	21644
872.526	21580
872.656	21656
872.785	21709
872.915	21789
873.044	21880
873.173	21854
873.303	21937
873.432	21789
873.561	21884
873.69	21823
873.819	21804
873.948	21850
874.077	21812
874.206	21751
874.335	21808
874.464	21968
874.593	22006
874.722	21918
874.851	22002
874.979	22055
875.108	22116
875.237	21903
875.365	21838
875.494	21918
875.623	22124
875.751	22070
875.88	22006
876.008	22135
876.136	22177
876.265	22432
876.393	22508
876.521	22470
876.65	22550
876.778	22417
876.906	22333
877.034	22310
877.162	22390
877.29	22352
877.418	22409
877.546	22504
877.674	22417
877.802	22306
877.93	22428
878.058	22219
878.185	22352
878.313	22367
878.441	22280
878.568	22246
878.696	22318
878.824	22356
878.951	22451
879.079	22531
879.206	22672
879.333	22500
879.461	22337
879.588	22550
879.715	22588
879.842	22546
879.97	22390
880.097	22143
880.224	22246
880.351	22253
880.478	22276
880.605	22147
880.732	22253
880.859	22382
880.986	22200
881.112	22147
881.239	22150
881.366	22025
881.493	21911
881.619	21781
881.746	21755
881.872	21850
881.999	21667
882.125	21732
882.252	21903
882.378	21713
882.505	21876
882.631	21583
882.757	21378
882.883	21473
883.01	21511
883.136	21447
883.262	21256
883.388	21393
883.514	21473
883.64	21450
883.766	21469
883.892	21192
884.018	21268
884.143	21576
884.269	21473
884.395	21127
884.52	21089
884.646	21176
884.772	21024
884.897	20948
885.023	21169
885.148	21370
885.274	21283
885.399	21249
885.524	21100
885.65	21272
885.775	21138
885.9	21157
886.025	21275
886.15	21135
886.275	21116
886.4	21047
886.525	21112
886.65	21005
886.775	20963
886.9	21237
887.025	21401
887.149	21096
887.274	20971
887.399	21089
887.523	20921
887.648	20899
887.773	20933
887.897	21028
888.021	20921
888.146	20925
888.27	21017
888.395	20933
888.519	20883
888.643	21013
888.767	20990
888.891	20792
889.015	20689
889.139	20876
889.263	20625
889.387	20849
889.511	20887
889.635	20857
889.759	20648
889.883	20750
890.006	20686
890.13	20819
890.254	20686
890.377	20670
890.501	20476
890.624	20454
890.748	20511
890.871	20385
890.995	20271
891.118	20187
891.241	20332
891.364	20298
891.488	20476
891.611	20248
891.734	20294
891.857	20229
891.98	20328
892.103	20339
892.226	20278
892.349	20172
892.471	20031
892.594	20195
892.717	20240
892.839	20294
892.962	20301
893.085	20362
893.207	20157
893.33	20100
893.452	20115
893.575	20206
893.697	20267
893.819	20332
893.941	20457
894.064	20320
894.186	20195
894.308	20172
894.43	20221
894.552	20347
894.674	20271
894.796	20157
894.918	20069
895.04	20252
895.161	20358
895.283	20282
895.405	20111
895.526	20145
895.648	20077
895.769	20206
895.891	20214
896.012	20252
896.134	20221
896.255	20210
896.376	20149
896.498	20176
896.619	20218
896.74	20153
896.861	20275
896.982	20461
897.103	20636
897.224	20492
897.345	20362
897.466	20339
897.587	20366
897.708	20434
897.828	20492
897.949	20187
898.07	20229
898.19	20298
898.311	20499
898.431	20370
898.552	20381
898.672	20507
898.792	20389
898.913	20374
899.033	20252
899.153	20256
899.273	20077
899.393	20077
899.513	20130
899.633	20111
899.753	20122
899.873	19989
899.993	20149
900.113	20138
900.232	20237
900.352	20069
900.472	19967
900.591	19917
900.711	19852
900.83	19951
900.95	19982
901.069	19940
901.189	19852
901.308	19597
901.427	19457
901.546	19445
901.665	19514
901.784	19544
901.904	19400
902.023	19324
902.141	19145
902.26	18977
902.379	19183
902.498	19129
902.617	19072
902.735	19019
902.854	18970
902.973	18886
903.091	18669
903.21	18566
903.328	18616
903.446	18532
903.565	18452
903.683	18479
903.801	18384
903.919	18448
904.038	18506
904.156	18235
904.274	18369
904.392	18251
904.51	18380
904.627	18216
904.745	18273
904.863	18292
904.981	18034
905.098	17859
905.216	17859
905.334	17954
905.451	17984
905.569	17965
905.686	17882
905.803	17863
905.921	17722
906.038	18003
906.155	17824
906.272	17714
906.389	17642
906.506	17444
906.623	17600
906.74	17421
906.857	17417
906.974	17341
907.091	17429
907.208	17512
907.324	17589
907.441	17341
907.557	17280
907.674	17216
907.79	17174
907.907	17105
908.023	17212
908.139	17189
908.256	17132
908.372	16949
908.488	17124
908.604	16949
908.72	16927
908.836	16942
908.952	16820
909.068	16828
909.184	17075
909.3	16885
909.415	16809
909.531	16934
909.647	16755
909.762	16630
909.878	16599
909.993	16649
910.108	16554
910.224	16497
910.339	16535
910.454	16485
910.57	16417
910.685	16352
910.8	16637
910.915	16550
911.03	16382
911.145	16287
911.259	16242
911.374	16253
911.489	16120
911.604	16048
911.718	16025
911.833	15979
911.947	15892
912.062	15759
912.176	15857
912.291	16010
912.405	15869
912.519	16154
912.633	16116
912.748	16032
912.862	15926
912.976	15854
913.09	15633
913.204	15660
913.318	15800
913.431	15823
913.545	15736
913.659	15865
913.772	15854
913.886	15641
914	15496
914.113	15557
914.226	15545
914.34	15663
914.453	15439
914.566	15610
914.68	15447
914.793	15367
914.906	15256
915.019	15077
915.132	15100
915.245	15218
915.358	15150
915.47	15176
915.583	15165
915.696	15222
915.809	15245
915.921	15370
916.034	15119
916.146	15104
916.259	15043
916.371	15218
916.483	15116
916.595	14956
916.708	14994
916.82	14849
916.932	14960
917.044	14998
917.156	14857
917.268	14902
917.38	14876
917.491	14746
917.603	14853
917.715	14876
917.826	14933
917.938	14868
918.049	14701
918.161	14651
918.272	14830
918.384	14857
918.495	14792
918.606	14610
918.717	14549
918.828	14549
918.939	14526
919.05	14518
919.161	14492
919.272	14404
919.383	14374
919.494	14598
919.604	14655
919.715	14461
919.826	14431
919.936	14492
920.047	14568
920.157	14541
920.267	14701
920.378	14575
920.488	14408
920.598	14625
920.708	14876
920.818	14632
920.928	14682
921.038	14743
921.148	14720
921.258	14514
921.368	14320
921.477	14343
921.587	14237
921.697	14107
921.806	14355
921.916	14054
922.025	13940
922.134	13841
922.244	13871
922.353	14001
922.462	13845
922.571	13643
922.68	13662
922.789	13578
922.898	13674
923.007	13590
923.116	13613
923.224	13483
923.333	13552
923.442	13343
923.55	13339
923.659	13350
923.767	13411
923.876	13384
923.984	13335
924.092	13301
924.201	13293
924.309	13324
924.417	13263
924.525	13335
924.633	13171
924.741	13989
924.849	13072
924.956	13202
925.064	13031
925.172	12905
925.279	12958
925.387	13065
925.494	12981
925.602	13088
925.709	12966
925.816	12814
925.924	12875
926.031	13012
926.138	12916
926.245	12981
926.352	12867
926.459	12882
926.566	12844
926.673	12856
926.779	12700
926.886	12700
926.993	12627
927.099	12544
927.206	12445
927.312	12506
927.419	12597
927.525	12426
927.631	12528
927.737	12281
927.843	12410
927.95	12239
928.056	12350
928.162	12445
928.267	12399
928.373	13069
928.479	12452
928.585	12232
928.69	12277
928.796	12311
928.901	12201
929.007	12117
929.112	12277
929.218	12159
929.323	12098
929.428	12007
929.533	12175
929.638	12019
929.743	12015
929.848	12106
929.953	12034
930.058	11920
930.163	11790
930.267	11790
930.372	11843
930.477	11695
930.581	11897
930.685	11832
930.79	11657
930.894	11703
930.998	11604
931.103	11752
931.207	11356
931.311	11376
931.415	11246
931.519	11006
931.623	10980
