Data from test_V78500241_86.txt Node
Date: Fri Mar 25 15:10:27 CST 2022
User: usil
Spectrometer: V785-0024
Trigger mode: 0
Integration Time (sec): 4.000000E-1
Scans to average: 1
Nonlinearity correction enabled: false
Boxcar width: 0
Storing dark spectrum: false
XAxis mode: Wavelengths
Number of Pixels in Spectrum: 1024
>>>>>Begin Spectral Data<<<<<
801.071	28664
801.214	28656
801.356	28375
801.499	28265
801.641	28131
801.783	28188
801.926	28219
802.068	28181
802.211	28090
802.353	28021
802.496	27812
802.638	27842
802.78	27838
802.923	27720
803.065	27717
803.208	27743
803.35	27652
803.492	27892
803.635	27717
803.777	27846
803.919	27838
804.061	28078
804.204	27975
804.346	27785
804.488	27869
804.63	27698
804.773	27686
804.915	27876
805.057	27895
805.199	27831
805.341	27812
805.483	27838
805.626	27873
805.768	27812
805.91	27941
806.052	28040
806.194	27819
806.336	28025
806.478	27930
806.62	27831
806.762	28055
806.904	28139
807.046	28356
807.188	28303
807.33	28230
807.472	28466
807.614	28238
807.756	28112
807.898	28234
808.04	27994
808.182	28070
808.324	28093
808.465	28215
808.607	28329
808.749	28333
808.891	28421
809.033	28432
809.174	28592
809.316	28497
809.458	28348
809.6	28272
809.741	28508
809.883	28569
810.025	28634
810.166	28656
810.308	28820
810.45	28656
810.591	28592
810.733	28462
810.875	28261
811.016	28352
811.158	28120
811.299	28557
811.441	28489
811.582	28440
811.724	28246
811.865	28413
812.007	28394
812.148	28531
812.29	28417
812.431	28592
812.573	28626
812.714	28717
812.855	28858
812.997	28953
813.138	29136
813.279	28961
813.421	28930
813.562	28763
813.703	28736
813.845	28527
813.986	28303
814.127	28002
814.268	28017
814.41	28002
814.551	27861
814.692	28181
814.833	27972
814.974	28006
815.115	28010
815.256	27907
815.397	27682
815.539	27789
815.68	27686
815.821	27747
815.962	27835
816.103	27686
816.244	27595
816.385	27496
816.526	27492
816.666	27306
816.807	27131
816.948	27218
817.089	27176
817.23	27188
817.371	27154
817.512	27241
817.653	27036
817.793	26994
817.934	27119
818.075	27085
818.216	27036
818.356	27051
818.497	26853
818.638	26807
818.778	26899
818.919	26819
819.06	26925
819.2	26830
819.341	27089
819.481	26960
819.622	27165
819.762	27458
819.903	27207
820.043	27176
820.184	27085
820.324	27184
820.465	27169
820.605	27211
820.746	27096
820.886	26883
821.026	27043
821.167	27043
821.307	27028
821.447	27176
821.588	26960
821.728	26727
821.868	26701
822.008	26530
822.149	26526
822.289	26568
822.429	26294
822.569	26142
822.709	26107
822.849	25947
822.99	25868
823.13	25837
823.27	25989
823.41	25765
823.55	25613
823.69	25731
823.83	25693
823.97	25696
824.11	25632
824.25	25529
824.389	25434
824.529	25590
824.669	25537
824.809	25434
824.949	25491
825.089	25582
825.228	25479
825.368	25335
825.508	25285
825.648	25381
825.787	25247
825.927	25324
826.067	25244
826.206	25266
826.346	25228
826.485	25426
826.625	25403
826.765	25453
826.904	25251
827.044	25061
827.183	24962
827.323	24973
827.462	25061
827.601	25110
827.741	25000
827.88	25038
828.02	24920
828.159	24958
828.298	24943
828.437	25099
828.577	25004
828.716	25099
828.855	24939
828.994	24738
829.134	24745
829.273	24730
829.412	24707
829.551	24544
829.69	24734
829.829	24661
829.968	24772
830.107	24821
830.246	24677
830.385	24650
830.524	24555
830.663	24479
830.802	24407
830.941	24281
831.08	24220
831.219	24254
831.357	24144
831.496	24376
831.635	24178
831.774	24064
831.913	24083
832.051	24026
832.19	24049
832.329	23984
832.467	23817
832.606	23813
832.744	23699
832.883	23843
833.022	23741
833.16	23851
833.299	23942
833.437	23954
833.576	23836
833.714	23836
833.852	23851
833.991	23851
834.129	23904
834.267	23939
834.406	23897
834.544	23802
834.682	23783
834.821	23748
834.959	23942
835.097	23718
835.235	23805
835.373	23809
835.511	23885
835.65	23824
835.788	23684
835.926	23497
836.064	23539
836.202	23497
836.34	23710
836.478	23775
836.615	23558
836.753	23672
836.891	23589
837.029	23653
837.167	23562
837.305	23417
837.443	23436
837.58	23551
837.718	23646
837.856	23455
837.993	23398
838.131	23467
838.269	23379
838.406	23402
838.544	23280
838.681	23098
838.819	23136
838.956	22930
839.094	22908
839.231	22980
839.369	23113
839.506	23250
839.643	23105
839.781	22965
839.918	22759
840.055	22927
840.193	22793
840.33	22733
840.467	22793
840.604	22797
840.742	23060
840.879	22599
841.016	22839
841.153	22744
841.29	22869
841.427	22778
841.564	22805
841.701	22706
841.838	22611
841.975	22660
842.112	22725
842.249	22527
842.385	22478
842.522	22626
842.659	22557
842.796	22394
842.933	22478
843.069	22405
843.206	22428
843.343	22550
843.479	22500
843.616	22432
843.752	22360
843.889	22253
844.025	22459
844.162	22200
844.298	22310
844.435	22158
844.571	22181
844.708	22196
844.844	22337
844.98	22398
845.117	22249
845.253	22166
845.389	22063
845.525	22162
845.661	22021
845.798	21934
845.934	22010
846.07	21907
846.206	22021
846.342	22063
846.478	21876
846.614	21793
846.75	21660
846.886	21667
847.022	21854
847.158	21644
847.294	21671
847.429	21709
847.565	21652
847.701	21781
847.837	21454
847.972	21393
848.108	21523
848.244	21511
848.379	21416
848.515	21203
848.65	21214
848.786	21199
848.921	21199
849.057	21363
849.192	21302
849.328	21287
849.463	21230
849.598	21127
849.734	21077
849.869	21047
850.004	20967
850.14	21150
850.275	20998
850.41	20838
850.545	20887
850.68	20868
850.815	20842
850.95	20925
851.085	21093
851.22	21066
851.355	20883
851.49	20876
851.625	20868
851.76	20864
851.895	20883
852.03	20746
852.165	20842
852.299	20971
852.434	21020
852.569	20937
852.703	21009
852.838	21039
852.973	21112
853.107	21013
853.242	20769
853.376	20773
853.511	20560
853.645	20781
853.78	20842
853.914	20716
854.048	20587
854.183	20830
854.317	20792
854.451	20979
854.585	20731
854.72	20811
854.854	20800
854.988	20765
855.122	20724
855.256	20689
855.39	20632
855.524	20716
855.658	20800
855.792	20682
855.926	20777
856.06	20826
856.194	20811
856.327	20826
856.461	20667
856.595	20674
856.729	20697
856.862	20826
856.996	20781
857.13	20765
857.263	21039
857.397	20842
857.53	20735
857.664	20811
857.797	20815
857.931	20823
858.064	20693
858.197	20823
858.331	20636
858.464	20712
858.597	20495
858.731	20670
858.864	20670
858.997	20659
859.13	20705
859.263	20659
859.396	20853
859.529	20697
859.662	20629
859.795	20583
859.928	20632
860.061	20861
860.194	20830
860.327	20701
860.46	20613
860.592	20682
860.725	20739
860.858	20785
860.99	20686
861.123	20583
861.256	20579
861.388	20625
861.521	21287
861.653	20629
861.786	20446
861.918	20564
862.05	20579
862.183	20716
862.315	20765
862.447	20762
862.58	20648
862.712	20317
862.844	20431
862.976	20408
863.108	20488
863.24	20887
863.372	20351
863.504	20366
863.636	20404
863.768	20495
863.9	20263
864.032	20267
864.164	20324
864.296	20412
864.428	20446
864.559	20434
864.691	20484
864.823	20404
864.954	20434
865.086	20244
865.217	20286
865.349	20088
865.48	20305
865.612	20183
865.743	20282
865.875	20336
866.006	20313
866.137	20286
866.269	20206
866.4	20328
866.531	20153
866.662	20134
866.793	20267
866.924	20336
867.055	20145
867.186	20202
867.317	20130
867.448	20035
867.579	20202
867.71	20046
867.841	20161
867.972	20237
868.103	20298
868.233	20221
868.364	20081
868.495	20229
868.625	20294
868.756	20507
868.886	20351
869.017	20476
869.147	20522
869.278	20541
869.408	20442
869.539	20381
869.669	20442
869.799	20423
869.929	20476
870.06	20434
870.19	20708
870.32	20769
870.45	20762
870.58	20819
870.71	20842
870.84	20876
870.97	20838
871.1	20667
871.23	21184
871.36	21020
871.489	21066
871.619	20891
871.749	20979
871.879	21154
872.008	21028
872.138	21066
872.267	20975
872.397	20990
872.526	20861
872.656	20944
872.785	20937
872.915	21066
873.044	21176
873.173	21036
873.303	21096
873.432	21116
873.561	21176
873.69	21001
873.819	21020
873.948	21024
874.077	21066
874.206	21096
874.335	21001
874.464	21093
874.593	21192
874.722	21180
874.851	21294
874.979	21313
875.108	21481
875.237	21195
875.365	21188
875.494	21283
875.623	21298
875.751	21348
875.88	21268
876.008	21374
876.136	21500
876.265	21819
876.393	21846
876.521	21800
876.65	21785
876.778	21686
876.906	21591
877.034	21526
877.162	21660
877.29	21694
877.418	21728
877.546	21667
877.674	21576
877.802	21637
877.93	21603
878.058	21545
878.185	21542
878.313	21469
878.441	21583
878.568	21564
878.696	21679
878.824	21656
878.951	21717
879.079	21804
879.206	21953
879.333	21766
879.461	21694
879.588	21781
879.715	21785
879.842	22006
879.97	21625
880.097	21435
880.224	21435
880.351	21538
880.478	21370
880.605	21370
880.732	21424
880.859	21755
880.986	21500
881.112	21534
881.239	21370
881.366	21176
881.493	21283
881.619	21055
881.746	21100
881.872	21085
881.999	20979
882.125	20948
882.252	21173
882.378	21066
882.505	21161
882.631	20952
882.757	20815
882.883	20857
883.01	20880
883.136	20796
883.262	20670
883.388	20648
883.514	20720
883.64	20826
883.766	20731
883.892	20556
884.018	20659
884.143	20842
884.269	20845
884.395	20533
884.52	20442
884.646	20632
884.772	20393
884.897	20320
885.023	20537
885.148	20503
885.274	20476
885.399	20568
885.524	20530
885.65	20377
885.775	20400
885.9	20450
886.025	20438
886.15	20503
886.275	20370
886.4	20294
886.525	20385
886.65	20286
886.775	20332
886.9	20480
887.025	20632
887.149	20324
887.274	20252
887.399	20161
887.523	20084
887.648	20073
887.773	20122
887.897	20240
888.021	20149
888.146	20069
888.27	20199
888.395	20366
888.519	20164
888.643	20328
888.767	20119
888.891	20027
889.015	19841
889.139	19967
889.263	20035
889.387	20122
889.511	20161
889.635	20065
889.759	19921
889.883	19982
890.006	20005
890.13	19947
890.254	19845
890.377	19883
890.501	19700
890.624	19742
890.748	19689
890.871	19563
890.995	19529
891.118	19483
891.241	19518
891.364	19529
891.488	19689
891.611	19582
891.734	19582
891.857	19552
891.98	19586
892.103	19548
892.226	19556
892.349	19407
892.471	19373
892.594	19460
892.717	19438
892.839	19407
892.962	19521
893.085	19514
893.207	19586
893.33	19221
893.452	19453
893.575	19514
893.697	19400
893.819	19537
893.941	19655
894.064	19586
894.186	19419
894.308	19343
894.43	19445
894.552	19658
894.674	19540
894.796	19285
894.918	19457
895.04	19392
895.161	19548
895.283	19453
895.405	19438
895.526	19594
895.648	19457
895.769	19502
895.891	19449
896.012	19594
896.134	19613
896.255	19434
896.376	19453
896.498	19556
896.619	19578
896.74	19491
896.861	19529
896.982	19864
897.103	20054
897.224	19784
897.345	19731
897.466	19681
897.587	19727
897.708	19746
897.828	19769
897.949	19731
898.07	19586
898.19	19559
898.311	19795
898.431	19723
898.552	19704
898.672	19795
898.792	19883
898.913	19628
899.033	19499
899.153	19445
899.273	19278
899.393	19400
899.513	19396
899.633	19430
899.753	19422
899.873	19430
899.993	19346
900.113	19308
900.232	19282
900.352	19274
900.472	19297
900.591	19183
900.711	19282
900.83	19164
900.95	19255
901.069	19350
901.189	19129
901.308	18833
901.427	18890
901.546	18772
901.665	18749
901.784	18935
901.904	18635
902.023	18585
902.141	18289
902.26	18330
902.379	18361
902.498	18376
902.617	18251
902.735	18376
902.854	18277
902.973	18266
903.091	17973
903.21	17984
903.328	17935
903.446	17870
903.565	17885
903.683	17783
903.801	17737
903.919	17783
904.038	17741
904.156	17634
904.274	17592
904.392	17528
904.51	17535
904.627	17535
904.745	17589
904.863	17512
904.981	17410
905.098	17189
905.216	17223
905.334	17284
905.451	17349
905.569	17220
905.686	17258
905.803	17185
905.921	16946
906.038	17075
906.155	16984
906.272	16911
906.389	16957
906.506	16763
906.623	16717
906.74	16774
906.857	16615
906.974	16618
907.091	16812
907.208	16881
907.324	16736
907.441	16634
907.557	16459
907.674	16466
907.79	16291
907.907	16398
908.023	16367
908.139	16451
908.256	16390
908.372	16253
908.488	16382
908.604	16215
908.72	16150
908.836	16135
908.952	16101
909.068	16139
909.184	16215
909.3	16162
909.415	16150
909.531	16090
909.647	15899
909.762	15861
909.878	15778
909.993	15812
910.108	15846
910.224	15793
910.339	15823
910.454	15663
910.57	15679
910.685	15576
910.8	15778
910.915	15724
911.03	15637
911.145	15568
911.259	15515
911.374	15500
911.489	15408
911.604	15268
911.718	15195
911.833	15241
911.947	15081
912.062	14982
912.176	15074
912.291	15097
912.405	15169
912.519	15245
912.633	15317
912.748	15157
912.862	15165
912.976	15043
913.09	14864
913.204	14937
913.318	14937
913.431	15024
913.545	15036
913.659	15142
913.772	14960
913.886	14765
914	14796
914.113	14944
914.226	14864
914.34	14868
914.453	14724
914.566	14891
914.68	14716
914.793	14708
914.906	14526
915.019	14511
915.132	14377
915.245	14400
915.358	14579
915.47	14541
915.583	14484
915.696	14446
915.809	14507
915.921	14503
916.034	14480
916.146	14362
916.259	14355
916.371	14488
916.483	14446
916.595	14210
916.708	14290
916.82	14267
916.932	14218
917.044	14240
917.156	14199
917.268	14054
917.38	14081
917.491	14176
917.603	14058
917.715	14145
917.826	14191
917.938	14077
918.049	14024
918.161	14103
918.272	14199
918.384	14084
918.495	13986
918.606	13967
918.717	13723
918.828	13795
918.939	13894
919.05	13776
919.161	13890
919.272	13658
919.383	13658
919.494	13898
919.604	14073
919.715	13894
919.826	13799
919.936	13784
920.047	13951
920.157	13738
920.267	14039
920.378	13780
920.488	13784
920.598	13913
920.708	14081
920.818	13963
920.928	13951
921.038	14126
921.148	14130
921.258	13791
921.368	13681
921.477	13571
921.587	13548
921.697	13422
921.806	13582
921.916	13400
922.025	13255
922.134	13145
922.244	13141
922.353	13202
922.462	13137
922.571	12954
922.68	12798
922.789	12833
922.898	12905
923.007	12852
923.116	12886
923.224	12947
923.333	12772
923.442	12681
923.55	12711
923.659	12726
923.767	12719
923.876	12616
923.984	12760
924.092	12589
924.201	12650
924.309	12673
924.417	12627
924.525	12486
924.633	12494
924.741	13316
924.849	12388
924.956	12429
925.064	12342
925.172	12315
925.279	12209
925.387	12262
925.494	12292
925.602	12486
925.709	12311
925.816	12167
925.924	12186
926.031	12445
926.138	12235
926.245	12308
926.352	12182
926.459	12258
926.566	12365
926.673	12178
926.779	12049
926.886	12049
926.993	11946
927.099	11908
927.206	11813
927.312	11802
927.419	11942
927.525	11889
927.631	12019
927.737	11703
927.843	11794
927.95	11615
928.056	11642
928.162	11729
928.267	11764
928.373	12273
928.479	11783
928.585	11600
928.69	11714
928.796	11790
928.901	11608
929.007	11372
929.112	11547
929.218	11577
929.323	11452
929.428	11459
929.533	11600
929.638	11395
929.743	11406
929.848	11444
929.953	11414
930.058	11277
930.163	11235
930.267	11170
930.372	11303
930.477	11113
930.581	11330
930.685	11151
930.79	10972
930.894	11033
930.998	10919
931.103	11201
931.207	10854
931.311	10675
931.415	10649
931.519	10394
931.623	10394
