Data from test_V78500241_3058.txt Node
Date: Fri Mar 25 15:31:09 CST 2022
User: usil
Spectrometer: V785-0024
Trigger mode: 0
Integration Time (sec): 4.000000E-1
Scans to average: 1
Nonlinearity correction enabled: false
Boxcar width: 0
Storing dark spectrum: false
XAxis mode: Wavelengths
Number of Pixels in Spectrum: 1024
>>>>>Begin Spectral Data<<<<<
801.071	27329
801.214	27279
801.356	27009
801.499	26937
801.641	26777
801.783	26815
801.926	26944
802.068	26815
802.211	26804
802.353	26697
802.496	26625
802.638	26450
802.78	26446
802.923	26457
803.065	26377
803.208	26336
803.35	26415
803.492	26701
803.635	26518
803.777	26556
803.919	26511
804.061	26659
804.204	26667
804.346	26552
804.488	26480
804.63	26602
804.773	26568
804.915	26537
805.057	26663
805.199	26587
805.341	26720
805.483	26765
805.626	26765
805.768	26514
805.91	26746
806.052	26800
806.194	26571
806.336	26788
806.478	26743
806.62	26705
806.762	26929
806.904	26804
807.046	27237
807.188	27051
807.33	27104
807.472	27249
807.614	26990
807.756	27184
807.898	26986
808.04	26861
808.182	26918
808.324	27074
808.465	27028
808.607	27218
808.749	27291
808.891	27450
809.033	27511
809.174	27420
809.316	27313
809.458	27291
809.6	27321
809.741	27336
809.883	27412
810.025	27534
810.166	27591
810.308	27545
810.45	27492
810.591	27473
810.733	27272
810.875	27291
811.016	27211
811.158	27291
811.299	27382
811.441	27431
811.582	27530
811.724	27340
811.865	27268
812.007	27203
812.148	27256
812.29	27367
812.431	27393
812.573	27698
812.714	27622
812.855	27667
812.997	27846
813.138	28124
813.279	27994
813.421	27766
813.562	27884
813.703	27633
813.845	27401
813.986	27089
814.127	26876
814.268	26819
814.41	26982
814.551	27005
814.692	27123
814.833	26853
814.974	26948
815.115	27070
815.256	26804
815.397	26956
815.539	26944
815.68	26686
815.821	26651
815.962	26735
816.103	26716
816.244	26663
816.385	26465
816.526	26514
816.666	26370
816.807	26195
816.948	26366
817.089	26164
817.23	26161
817.371	26164
817.512	26180
817.653	26164
817.793	26119
817.934	26096
818.075	26252
818.216	26191
818.356	26187
818.497	26058
818.638	25932
818.778	25947
818.919	25913
819.06	25925
819.2	25989
819.341	26115
819.481	26202
819.622	26438
819.762	26625
819.903	26480
820.043	26404
820.184	26355
820.324	26336
820.465	26351
820.605	26305
820.746	26214
820.886	25989
821.026	26374
821.167	26225
821.307	26301
821.447	26176
821.588	26100
821.728	25974
821.868	25795
822.008	25757
822.149	25681
822.289	25715
822.429	25468
822.569	25400
822.709	25327
822.849	25175
822.99	25232
823.13	25187
823.27	25168
823.41	25015
823.55	24852
823.69	24943
823.83	24947
823.97	24958
824.11	24848
824.25	24673
824.389	24741
824.529	24924
824.669	24791
824.809	24966
824.949	24863
825.089	24833
825.228	24890
825.368	24551
825.508	24696
825.648	24726
825.787	24646
825.927	24650
826.067	24593
826.206	24578
826.346	24764
826.485	24776
826.625	24620
826.765	24753
826.904	24795
827.044	24456
827.183	24357
827.323	24254
827.462	24460
827.601	24532
827.741	24498
827.88	24433
828.02	24209
828.159	24376
828.298	24464
828.437	24334
828.577	24258
828.716	24399
828.855	24239
828.994	24064
829.134	24098
829.273	24038
829.412	24114
829.551	24125
829.69	24045
829.829	24186
829.968	24232
830.107	24190
830.246	23973
830.385	24079
830.524	23863
830.663	23889
830.802	23843
830.941	23657
831.08	23707
831.219	23714
831.357	23790
831.496	23885
831.635	23684
831.774	23577
831.913	23493
832.051	23611
832.19	23474
832.329	23512
832.467	23425
832.606	23360
832.744	23322
832.883	23360
833.022	23341
833.16	23250
833.299	23467
833.437	23417
833.576	23520
833.714	23455
833.852	23543
833.991	23406
834.129	23471
834.267	23528
834.406	23493
834.544	23429
834.682	23406
834.821	23421
834.959	23630
835.097	23341
835.235	23490
835.373	23493
835.511	23436
835.65	23395
835.788	23311
835.926	23090
836.064	23189
836.202	23003
836.34	23273
836.478	23364
836.615	23383
836.753	23288
836.891	23280
837.029	23261
837.167	23227
837.305	23048
837.443	23128
837.58	23064
837.718	23223
837.856	23147
837.993	22949
838.131	23151
838.269	23003
838.406	23033
838.544	22961
838.681	22774
838.819	22733
838.956	22687
839.094	22573
839.231	22599
839.369	22713
839.506	22999
839.643	22748
839.781	22523
839.918	22493
840.055	22611
840.193	22717
840.33	22455
840.467	22516
840.604	22656
840.742	22877
840.879	22371
841.016	22382
841.153	22371
841.29	22569
841.427	22447
841.564	22516
841.701	22630
841.838	22440
841.975	22466
842.112	22352
842.249	22337
842.385	22272
842.522	22622
842.659	22333
842.796	22329
842.933	22265
843.069	22143
843.206	22230
843.343	22325
843.479	22272
843.616	22257
843.752	21994
843.889	22090
844.025	22249
844.162	21934
844.298	22242
844.435	22135
844.571	21953
844.708	22059
844.844	22219
844.98	22204
845.117	22044
845.253	21934
845.389	21926
845.525	22070
845.661	21895
845.798	21736
845.934	21880
846.07	21797
846.206	21895
846.342	21861
846.478	21778
846.614	21717
846.75	21466
846.886	21622
847.022	21595
847.158	21507
847.294	21492
847.429	21564
847.565	21386
847.701	21766
847.837	21264
847.972	21249
848.108	21332
848.244	21344
848.379	21146
848.515	20982
848.65	20948
848.786	21032
848.921	21127
849.057	21161
849.192	21119
849.328	21062
849.463	21161
849.598	20971
849.734	20979
849.869	20956
850.004	20842
850.14	20853
850.275	20853
850.41	20644
850.545	20773
850.68	20819
850.815	20849
850.95	20819
851.085	20906
851.22	20967
851.355	20864
851.49	20925
851.625	20876
851.76	20811
851.895	20735
852.03	20788
852.165	20861
852.299	20910
852.434	20948
852.569	20838
852.703	20857
852.838	20872
852.973	21020
853.107	21001
853.242	20857
853.376	20712
853.511	20701
853.645	20590
853.78	20895
853.914	20815
854.048	20678
854.183	20712
854.317	20663
854.451	20826
854.585	20697
854.72	20598
854.854	20807
854.988	20720
855.122	20701
855.256	20488
855.39	20613
855.524	20891
855.658	20667
855.792	20720
855.926	20773
856.06	20788
856.194	20826
856.327	20674
856.461	20606
856.595	20743
856.729	20602
856.862	20739
856.996	20659
857.13	20838
857.263	20754
857.397	20746
857.53	20556
857.664	20777
857.797	20746
857.931	20857
858.064	20693
858.197	20796
858.331	20777
858.464	20640
858.597	20644
858.731	20613
858.864	20625
858.997	20609
859.13	20781
859.263	20720
859.396	20686
859.529	20670
859.662	20545
859.795	20674
859.928	20629
860.061	20701
860.194	20811
860.327	20727
860.46	20758
860.592	20769
860.725	20872
860.858	20705
860.99	20781
861.123	20568
861.256	20682
861.388	20667
861.521	21302
861.653	20503
861.786	20514
861.918	20545
862.05	20598
862.183	20526
862.315	20587
862.447	20705
862.58	20617
862.712	20412
862.844	20267
862.976	20583
863.108	20556
863.24	20781
863.372	20339
863.504	20514
863.636	20305
863.768	20469
863.9	20377
864.032	20339
864.164	20465
864.296	20389
864.428	20393
864.559	20377
864.691	20499
864.823	20336
864.954	20278
865.086	20393
865.217	20385
865.349	20275
865.48	20298
865.612	20259
865.743	20476
865.875	20278
866.006	20317
866.137	20343
866.269	20427
866.4	20218
866.531	20263
866.662	20298
866.793	20134
866.924	20298
867.055	20336
867.186	20305
867.317	20142
867.448	20100
867.579	20199
867.71	20111
867.841	20218
867.972	20233
868.103	20286
868.233	20351
868.364	20366
868.495	20259
868.625	20575
868.756	20625
868.886	20404
869.017	20332
869.147	20499
869.278	20602
869.408	20659
869.539	20541
869.669	20552
869.799	20552
869.929	20663
870.06	20552
870.19	20765
870.32	20807
870.45	20895
870.58	20864
870.71	20910
870.84	21001
870.97	20956
871.1	21032
871.23	21081
871.36	21138
871.489	20944
871.619	20982
871.749	21157
871.879	21192
872.008	21249
872.138	21146
872.267	21188
872.397	20899
872.526	20967
872.656	20967
872.785	20804
872.915	21093
873.044	21218
873.173	21085
873.303	21154
873.432	21260
873.561	21211
873.69	21119
873.819	21157
873.948	21157
874.077	21146
874.206	21009
874.335	21154
874.464	21306
874.593	21294
874.722	21367
874.851	21526
874.979	21351
875.108	21447
875.237	21386
875.365	21199
875.494	21332
875.623	21348
875.751	21275
875.88	21344
876.008	21557
876.136	21443
876.265	21755
876.393	21865
876.521	21953
876.65	21857
876.778	21804
876.906	21770
877.034	21736
877.162	21800
877.29	21717
877.418	21701
877.546	21629
877.674	21720
877.802	21728
877.93	21736
878.058	21686
878.185	21557
878.313	21599
878.441	21690
878.568	21545
878.696	21679
878.824	21755
878.951	21728
879.079	21926
879.206	22013
879.333	21846
879.461	21751
879.588	21774
879.715	21842
879.842	22070
879.97	21789
880.097	21526
880.224	21568
880.351	21583
880.478	21618
880.605	21530
880.732	21644
880.859	21785
880.986	21477
881.112	21496
881.239	21428
881.366	21142
881.493	21256
881.619	21032
881.746	21157
881.872	21055
881.999	21070
882.125	21005
882.252	21146
882.378	21165
882.505	21207
882.631	20960
882.757	20834
882.883	20952
883.01	20887
883.136	20792
883.262	20670
883.388	20537
883.514	20792
883.64	20872
883.766	20765
883.892	20613
884.018	20587
884.143	20811
884.269	20887
884.395	20533
884.52	20560
884.646	20533
884.772	20446
884.897	20480
885.023	20530
885.148	20590
885.274	20579
885.399	20503
885.524	20484
885.65	20404
885.775	20454
885.9	20393
886.025	20545
886.15	20484
886.275	20434
886.4	20374
886.525	20434
886.65	20347
886.775	20336
886.9	20568
887.025	20644
887.149	20423
887.274	20168
887.399	20210
887.523	20233
887.648	20237
887.773	20199
887.897	20271
888.021	20290
888.146	20301
888.27	20320
888.395	20313
888.519	20358
888.643	20248
888.767	20358
888.891	20252
889.015	20081
889.139	20081
889.263	20084
889.387	20145
889.511	20271
889.635	20210
889.759	20054
889.883	19989
890.006	20081
890.13	20199
890.254	19974
890.377	19959
890.501	19784
890.624	19811
890.748	19879
890.871	19811
890.995	19643
891.118	19594
891.241	19635
891.364	19635
891.488	19742
891.611	19613
891.734	19670
891.857	19757
891.98	19681
892.103	19761
892.226	19624
892.349	19533
892.471	19453
892.594	19594
892.717	19510
892.839	19559
892.962	19624
893.085	19670
893.207	19590
893.33	19381
893.452	19476
893.575	19434
893.697	19449
893.819	19613
893.941	19864
894.064	19651
894.186	19426
894.308	19419
894.43	19605
894.552	19628
894.674	19696
894.796	19453
894.918	19518
895.04	19518
895.161	19647
895.283	19540
895.405	19510
895.526	19453
895.648	19559
895.769	19613
895.891	19556
896.012	19620
896.134	19491
896.255	19605
896.376	19540
896.498	19540
896.619	19624
896.74	19601
896.861	19616
896.982	19769
897.103	19909
897.224	19791
897.345	19814
897.466	19689
897.587	19822
897.708	19947
897.828	19822
897.949	19753
898.07	19738
898.19	19620
898.311	19811
898.431	19765
898.552	19799
898.672	19849
898.792	19936
898.913	19772
899.033	19635
899.153	19559
899.273	19499
899.393	19628
899.513	19655
899.633	19571
899.753	19552
899.873	19464
899.993	19518
900.113	19468
900.232	19563
900.352	19540
900.472	19510
900.591	19346
900.711	19354
900.83	19335
900.95	19346
901.069	19373
901.189	19225
901.308	19019
901.427	18932
901.546	19015
901.665	18913
901.784	18871
901.904	18909
902.023	18703
902.141	18460
902.26	18422
902.379	18688
902.498	18380
902.617	18399
902.735	18456
902.854	18395
902.973	18429
903.091	18140
903.21	18038
903.328	18129
903.446	18038
903.565	17999
903.683	17809
903.801	17859
903.919	17847
904.038	17859
904.156	17703
904.274	17779
904.392	17756
904.51	17672
904.627	17718
904.745	17756
904.863	17745
904.981	17486
905.098	17433
905.216	17440
905.334	17474
905.451	17296
905.569	17341
905.686	17364
905.803	17364
905.921	17121
906.038	17220
906.155	17223
906.272	17086
906.389	17033
906.506	16847
906.623	17060
906.74	16858
906.857	16816
906.974	16812
907.091	17010
907.208	17071
907.324	16923
907.441	16866
907.557	16618
907.674	16717
907.79	16531
907.907	16561
908.023	16607
908.139	16653
908.256	16531
908.372	16599
908.488	16561
908.604	16344
908.72	16303
908.836	16428
908.952	16337
909.068	16409
909.184	16447
909.3	16436
909.415	16356
909.531	16322
909.647	16139
909.762	16086
909.878	16074
909.993	16078
910.108	16036
910.224	15987
910.339	16078
910.454	15880
910.57	15960
910.685	15785
910.8	16040
910.915	15941
911.03	15979
911.145	15736
911.259	15671
911.374	15580
911.489	15591
911.604	15671
911.718	15412
911.833	15408
911.947	15466
912.062	15321
912.176	15462
912.291	15523
912.405	15386
912.519	15629
912.633	15629
912.748	15431
912.862	15294
912.976	15207
913.09	15188
913.204	15218
913.318	15252
913.431	15291
913.545	15420
913.659	15378
913.772	15199
913.886	15104
914	14994
914.113	15203
914.226	15214
914.34	15085
914.453	14925
914.566	15112
914.68	14933
914.793	14868
914.906	14758
915.019	14625
915.132	14686
915.245	14674
915.358	14617
915.47	14724
915.583	14636
915.696	14674
915.809	14758
915.921	14724
916.034	14571
916.146	14537
916.259	14571
916.371	14655
916.483	14697
916.595	14442
916.708	14537
916.82	14457
916.932	14434
917.044	14511
917.156	14313
917.268	14374
917.38	14309
917.491	14267
917.603	14381
917.715	14362
917.826	14423
917.938	14286
918.049	14199
918.161	14271
918.272	14389
918.384	14427
918.495	14332
918.606	14153
918.717	13982
918.828	14130
918.939	14103
919.05	14035
919.161	14031
919.272	13849
919.383	14027
919.494	14123
919.604	14404
919.715	14046
919.826	13982
919.936	14119
920.047	14103
920.157	14005
920.267	14263
920.378	14149
920.488	14054
920.598	14237
920.708	14396
920.818	14191
920.928	14123
921.038	14320
921.148	14282
921.258	14005
921.368	13921
921.477	13772
921.587	13772
921.697	13643
921.806	13879
921.916	13643
922.025	13480
922.134	13453
922.244	13468
922.353	13495
922.462	13400
922.571	13282
922.68	13255
922.789	13152
922.898	13091
923.007	12966
923.116	13164
923.224	13164
923.333	13000
923.442	12958
923.55	12871
923.659	12897
923.767	13072
923.876	12901
923.984	12973
924.092	12768
924.201	12954
924.309	12825
924.417	12859
924.525	12894
924.633	12837
924.741	13712
924.849	12570
924.956	12806
925.064	12574
925.172	12525
925.279	12566
925.387	12574
925.494	12551
925.602	12703
925.709	12517
925.816	12433
925.924	12536
926.031	12646
926.138	12551
926.245	12475
926.352	12437
926.459	12525
926.566	12521
926.673	12391
926.779	12311
926.886	12270
926.993	12190
927.099	12102
927.206	12106
927.312	12064
927.419	12121
927.525	12064
927.631	12144
927.737	11980
927.843	12053
927.95	11783
928.056	11946
928.162	11965
928.267	12110
928.373	12673
928.479	12038
928.585	11741
928.69	11931
928.796	11954
928.901	11901
929.007	11680
929.112	11908
929.218	11748
929.323	11741
929.428	11748
929.533	11805
929.638	11657
929.743	11714
929.848	11688
929.953	11657
930.058	11570
930.163	11444
930.267	11482
930.372	11581
930.477	11353
930.581	11528
930.685	11509
930.79	11261
930.894	11269
930.998	11288
931.103	11440
931.207	11056
931.311	11014
931.415	10934
931.519	10717
931.623	10664
