Data from test_V78500241_1002.txt Node
Date: Fri Mar 25 15:16:50 CST 2022
User: usil
Spectrometer: V785-0024
Trigger mode: 0
Integration Time (sec): 4.000000E-1
Scans to average: 1
Nonlinearity correction enabled: false
Boxcar width: 0
Storing dark spectrum: false
XAxis mode: Wavelengths
Number of Pixels in Spectrum: 1024
>>>>>Begin Spectral Data<<<<<
801.071	28504
801.214	28432
801.356	28109
801.499	28162
801.641	28036
801.783	27964
801.926	28093
802.068	27941
802.211	27937
802.353	27861
802.496	27838
802.638	27610
802.78	27633
802.923	27580
803.065	27644
803.208	27580
803.35	27682
803.492	27827
803.635	27956
803.777	27736
803.919	28063
804.061	28082
804.204	28002
804.346	27857
804.488	27865
804.63	27895
804.773	27823
804.915	27987
805.057	28010
805.199	27884
805.341	28139
805.483	27975
805.626	27945
805.768	27861
805.91	28006
806.052	28040
806.194	27884
806.336	28207
806.478	28074
806.62	28181
806.762	28211
806.904	28405
807.046	28626
807.188	28481
807.33	28459
807.472	28557
807.614	28413
807.756	28508
807.898	28344
808.04	28325
808.182	28394
808.324	28295
808.465	28405
808.607	28519
808.749	28710
808.891	28843
809.033	28915
809.174	28660
809.316	28679
809.458	28656
809.6	28660
809.741	28793
809.883	28767
810.025	28908
810.166	28999
810.308	29124
810.45	28911
810.591	28949
810.733	28664
810.875	28736
811.016	28656
811.158	28569
811.299	28725
811.441	28805
811.582	28797
811.724	28812
811.865	28725
812.007	28733
812.148	28565
812.29	28801
812.431	28888
812.573	29132
812.714	29121
812.855	29231
812.997	29368
813.138	29375
813.279	29421
813.421	29277
813.562	29269
813.703	29170
813.845	28972
813.986	28725
814.127	28474
814.268	28493
814.41	28561
814.551	28546
814.692	28538
814.833	28455
814.974	28474
815.115	28379
815.256	28352
815.397	28299
815.539	28341
815.68	28185
815.821	28181
815.962	28291
816.103	28234
816.244	28162
816.385	28059
816.526	28090
816.666	27918
816.807	27762
816.948	27793
817.089	27918
817.23	27869
817.371	27667
817.512	27732
817.653	27869
817.793	27644
817.934	27762
818.075	27838
818.216	27800
818.356	27759
818.497	27587
818.638	27618
818.778	27530
818.919	27557
819.06	27694
819.2	27580
819.341	27755
819.481	27892
819.622	27842
819.762	28154
819.903	28101
820.043	27903
820.184	27975
820.324	27884
820.465	28006
820.605	27968
820.746	27922
820.886	27675
821.026	27751
821.167	27899
821.307	28025
821.447	27762
821.588	27519
821.728	27633
821.868	27302
822.008	27264
822.149	27180
822.289	27325
822.429	26891
822.569	26971
822.709	26872
822.849	26788
822.99	26880
823.13	26693
823.27	26629
823.41	26590
823.55	26537
823.69	26530
823.83	26678
823.97	26518
824.11	26377
824.25	26400
824.389	26408
824.529	26629
824.669	26400
824.809	26549
824.949	26522
825.089	26545
825.228	26408
825.368	26324
825.508	26252
825.648	26259
825.787	26374
825.927	26358
826.067	26244
826.206	26237
826.346	26434
826.485	26434
826.625	26336
826.765	26358
826.904	26347
827.044	26176
827.183	26050
827.323	26115
827.462	26046
827.601	26062
827.741	25955
827.88	26005
828.02	25807
828.159	26149
828.298	25921
828.437	26046
828.577	25932
828.716	26031
828.855	26031
828.994	25776
829.134	25883
829.273	25799
829.412	25750
829.551	25666
829.69	25750
829.829	25780
829.968	25708
830.107	25761
830.246	25780
830.385	25643
830.524	25681
830.663	25548
830.802	25590
830.941	25377
831.08	25316
831.219	25502
831.357	25438
831.496	25495
831.635	25278
831.774	25320
831.913	25346
832.051	25171
832.19	25152
832.329	25107
832.467	24935
832.606	25099
832.744	25023
832.883	25015
833.022	24939
833.16	24958
833.299	25168
833.437	25103
833.576	25175
833.714	25103
833.852	25110
833.991	25133
834.129	25297
834.267	25107
834.406	25175
834.544	25061
834.682	25023
834.821	25019
834.959	25244
835.097	25027
835.235	25076
835.373	25080
835.511	25027
835.65	24916
835.788	24989
835.926	24844
836.064	24711
836.202	24825
836.34	24867
836.478	24943
836.615	24882
836.753	24935
836.891	24932
837.029	24802
837.167	24920
837.305	24696
837.443	24760
837.58	24837
837.718	24905
837.856	24779
837.993	24890
838.131	24844
838.269	24559
838.406	24707
838.544	24528
838.681	24391
838.819	24399
838.956	24167
839.094	24239
839.231	24232
839.369	24494
839.506	24696
839.643	24330
839.781	24292
839.918	24076
840.055	24327
840.193	24152
840.33	24220
840.467	24102
840.604	24262
840.742	24464
840.879	23996
841.016	24102
841.153	24110
841.29	24213
841.427	24049
841.564	24041
841.701	24079
841.838	24026
841.975	23999
842.112	23992
842.249	23927
842.385	23935
842.522	24125
842.659	23851
842.796	23866
842.933	23889
843.069	23809
843.206	23840
843.343	23931
843.479	23908
843.616	24022
843.752	23805
843.889	23642
844.025	23855
844.162	23627
844.298	23642
844.435	23699
844.571	23733
844.708	23767
844.844	23756
844.98	23809
845.117	23836
845.253	23570
845.389	23672
845.525	23577
845.661	23440
845.798	23326
845.934	23391
846.07	23551
846.206	23448
846.342	23512
846.478	23360
846.614	23143
846.75	22984
846.886	23079
847.022	23208
847.158	23044
847.294	23014
847.429	23231
847.565	23136
847.701	23356
847.837	22866
847.972	22740
848.108	22896
848.244	22824
848.379	22694
848.515	22702
848.65	22740
848.786	22767
848.921	22782
849.057	22774
849.192	22771
849.328	22786
849.463	22710
849.598	22615
849.734	22592
849.869	22588
850.004	22561
850.14	22611
850.275	22493
850.41	22440
850.545	22405
850.68	22489
850.815	22459
850.95	22512
851.085	22717
851.22	22626
851.355	22523
851.49	22409
851.625	22455
851.76	22440
851.895	22325
852.03	22314
852.165	22443
852.299	22588
852.434	22550
852.569	22493
852.703	22561
852.838	22607
852.973	22626
853.107	22489
853.242	22493
853.376	22367
853.511	22135
853.645	22246
853.78	22478
853.914	22329
854.048	22291
854.183	22204
854.317	22299
854.451	22432
854.585	22253
854.72	22257
854.854	22284
854.988	22337
855.122	22249
855.256	22135
855.39	22291
855.524	22318
855.658	22443
855.792	22295
855.926	22295
856.06	22371
856.194	22405
856.327	22303
856.461	22219
856.595	22173
856.729	22295
856.862	22344
856.996	22318
857.13	22398
857.263	22329
857.397	22348
857.53	22333
857.664	22291
857.797	22390
857.931	22417
858.064	22280
858.197	22417
858.331	22268
858.464	22329
858.597	22158
858.731	22070
858.864	22196
858.997	22371
859.13	22295
859.263	22303
859.396	22299
859.529	22238
859.662	22299
859.795	22207
859.928	22284
860.061	22432
860.194	22466
860.327	22333
860.46	22310
860.592	22333
860.725	22504
860.858	22379
860.99	22344
861.123	22303
861.256	22257
861.388	22390
861.521	22946
861.653	22128
861.786	22109
861.918	22143
862.05	22261
862.183	22124
862.315	22211
862.447	22314
862.58	22230
862.712	21934
862.844	22021
862.976	22006
863.108	22040
863.24	22375
863.372	21937
863.504	21964
863.636	21949
863.768	22086
863.9	21903
864.032	21899
864.164	22017
864.296	22006
864.428	22219
864.559	22055
864.691	22017
864.823	22029
864.954	22017
865.086	21880
865.217	21827
865.349	21778
865.48	21907
865.612	21865
865.743	21979
865.875	21934
866.006	21888
866.137	21934
866.269	21892
866.4	21888
866.531	21823
866.662	21682
866.793	21861
866.924	21873
867.055	21831
867.186	21842
867.317	21804
867.448	21682
867.579	21736
867.71	21717
867.841	21618
867.972	21808
868.103	21747
868.233	21709
868.364	21857
868.495	21876
868.625	21945
868.756	22188
868.886	21987
869.017	21991
869.147	22124
869.278	22131
869.408	22017
869.539	22093
869.669	22124
869.799	22093
869.929	22284
870.06	22169
870.19	22341
870.32	22303
870.45	22367
870.58	22451
870.71	22550
870.84	22440
870.97	22352
871.1	22481
871.23	22588
871.36	22603
871.489	22630
871.619	22550
871.749	22577
871.879	22675
872.008	22771
872.138	22550
872.267	22599
872.397	22508
872.526	22470
872.656	22478
872.785	22455
872.915	22637
873.044	22656
873.173	22618
873.303	22675
873.432	22687
873.561	22824
873.69	22687
873.819	22653
873.948	22809
874.077	22634
874.206	22634
874.335	22706
874.464	22736
874.593	22797
874.722	22778
874.851	22877
874.979	22839
875.108	22953
875.237	22809
875.365	22691
875.494	22767
875.623	22946
875.751	22847
875.88	22835
876.008	22942
876.136	22999
876.265	23204
876.393	23292
876.521	23353
876.65	23318
876.778	23299
876.906	23193
877.034	23121
877.162	23178
877.29	23155
877.418	23151
877.546	23162
877.674	23121
877.802	23311
877.93	23140
878.058	23102
878.185	23098
878.313	23094
878.441	22995
878.568	22987
878.696	23041
878.824	23269
878.951	23311
879.079	23288
879.206	23425
879.333	23391
879.461	23178
879.588	23235
879.715	23372
879.842	23471
879.97	23220
880.097	23014
880.224	23071
880.351	22976
880.478	23079
880.605	22984
880.732	23025
880.859	23261
880.986	23037
881.112	23056
881.239	22911
881.366	22763
881.493	22801
881.619	22603
881.746	22599
881.872	22599
881.999	22459
882.125	22466
882.252	22706
882.378	22580
882.505	22721
882.631	22459
882.757	22287
882.883	22485
883.01	22322
883.136	22344
883.262	22086
883.388	22074
883.514	22360
883.64	22295
883.766	22162
883.892	22124
884.018	22162
884.143	22116
884.269	22325
884.395	22032
884.52	21861
884.646	21876
884.772	22002
884.897	21827
885.023	22006
885.148	21983
885.274	21975
885.399	21994
885.524	22063
885.65	21884
885.775	22006
885.9	21869
886.025	22112
886.15	21956
886.275	21850
886.4	21865
886.525	21907
886.65	21781
886.775	21823
886.9	21972
887.025	22105
887.149	21926
887.274	21899
887.399	21705
887.523	21778
887.648	21568
887.773	21603
887.897	21865
888.021	21781
888.146	21496
888.27	21800
888.395	21778
888.519	21709
888.643	21682
888.767	21728
888.891	21629
889.015	21599
889.139	21576
889.263	21587
889.387	21485
889.511	21595
889.635	21618
889.759	21431
889.883	21450
890.006	21538
890.13	21481
890.254	21401
890.377	21458
890.501	21233
890.624	21127
890.748	21176
890.871	21127
890.995	20933
891.118	20925
891.241	21074
891.364	21020
891.488	21188
891.611	20986
891.734	20975
891.857	21032
891.98	21055
892.103	21043
892.226	20986
892.349	21055
892.471	20804
892.594	21009
892.717	20963
892.839	20864
892.962	20921
893.085	20933
893.207	20883
893.33	20891
893.452	20906
893.575	21036
893.697	20956
893.819	20990
893.941	21108
894.064	21127
894.186	20834
894.308	20830
894.43	20960
894.552	21055
894.674	21032
894.796	20777
894.918	20902
895.04	20899
895.161	20883
895.283	20849
895.405	20845
895.526	20842
895.648	20872
895.769	20902
895.891	21005
896.012	20967
896.134	20861
896.255	20826
896.376	20883
896.498	20887
896.619	21020
896.74	20895
896.861	20899
896.982	21165
897.103	21306
897.224	21131
897.345	21066
897.466	20944
897.587	20906
897.708	21161
897.828	21131
897.949	21051
898.07	20811
898.19	20872
898.311	21066
898.431	20986
898.552	21039
898.672	21066
898.792	21085
898.913	21085
899.033	20963
899.153	20918
899.273	20735
899.393	20864
899.513	20861
899.633	20800
899.753	20804
899.873	20743
899.993	20792
900.113	20830
900.232	20712
900.352	20807
900.472	20583
900.591	20598
900.711	20629
900.83	20613
900.95	20606
901.069	20750
901.189	20389
901.308	20259
901.427	20145
901.546	20275
901.665	20206
901.784	20244
901.904	19936
902.023	20043
902.141	19761
902.26	19628
902.379	19811
902.498	19658
902.617	19628
902.735	19731
902.854	19605
902.973	19544
903.091	19362
903.21	19187
903.328	19362
903.446	19346
903.565	19171
903.683	19141
903.801	18966
903.919	19095
904.038	19069
904.156	18901
904.274	19019
904.392	18871
904.51	18806
904.627	18852
904.745	18970
904.863	18977
904.981	18707
905.098	18627
905.216	18658
905.334	18642
905.451	18673
905.569	18616
905.686	18604
905.803	18623
905.921	18369
906.038	18445
906.155	18323
906.272	18277
906.389	18224
906.506	18167
906.623	18152
906.74	18117
906.857	17946
906.974	18053
907.091	18133
907.208	18262
907.324	18076
907.441	17923
907.557	17916
907.674	17790
907.79	17798
907.907	17745
908.023	17893
908.139	17752
908.256	17767
908.372	17710
908.488	17665
908.604	17512
908.72	17452
908.836	17493
908.952	17501
909.068	17596
909.184	17596
909.3	17543
909.415	17421
909.531	17376
909.647	17299
909.762	17121
909.878	17124
909.993	17250
910.108	17185
910.224	17200
910.339	17102
910.454	17014
910.57	17029
910.685	16991
910.8	17216
910.915	17143
911.03	17014
911.145	16809
911.259	16885
911.374	16828
911.489	16752
911.604	16698
911.718	16611
911.833	16584
911.947	16462
912.062	16356
912.176	16493
912.291	16542
912.405	16417
912.519	16630
912.633	16740
912.748	16634
912.862	16508
912.976	16367
913.09	16314
913.204	16230
913.318	16402
913.431	16375
913.545	16436
913.659	16329
913.772	16291
913.886	16204
914	16074
914.113	16207
914.226	16234
914.34	16234
914.453	15953
914.566	16150
914.68	16032
914.793	15991
914.906	15804
915.019	15812
915.132	15747
915.245	15720
915.358	15701
915.47	15751
915.583	15762
915.696	15736
915.809	15800
915.921	15831
916.034	15698
916.146	15667
916.259	15542
916.371	15705
916.483	15675
916.595	15576
916.708	15557
916.82	15549
916.932	15477
917.044	15515
917.156	15500
917.268	15359
917.38	15359
917.491	15386
917.603	15344
917.715	15557
917.826	15424
917.938	15264
918.049	15154
918.161	15283
918.272	15405
918.384	15367
918.495	15222
918.606	15116
918.717	15024
918.828	15142
918.939	15203
919.05	15055
919.161	15093
919.272	14918
919.383	15024
919.494	15104
919.604	15252
919.715	15116
919.826	14994
919.936	15085
920.047	15097
920.157	15104
920.267	15161
920.378	15005
920.488	15047
920.598	15211
920.708	15310
920.818	15131
920.928	15161
921.038	15363
921.148	15287
921.258	15043
921.368	14933
921.477	14758
921.587	14667
921.697	14625
921.806	14705
921.916	14693
922.025	14427
922.134	14404
922.244	14408
922.353	14415
922.462	14229
922.571	14218
922.68	14073
922.789	14024
922.898	14077
923.007	13978
923.116	14103
923.224	14046
923.333	13940
923.442	13959
923.55	13917
923.659	13757
923.767	14016
923.876	13837
923.984	13925
924.092	13727
924.201	13788
924.309	13765
924.417	13753
924.525	13731
924.633	13685
924.741	14648
924.849	13506
924.956	13689
925.064	13449
925.172	13343
925.279	13483
925.387	13434
925.494	13460
925.602	13521
925.709	13521
925.816	13293
925.924	13324
926.031	13392
926.138	13263
926.245	13362
926.352	13251
926.459	13411
926.566	13392
926.673	13373
926.779	13225
926.886	13160
926.993	12954
927.099	13000
927.206	12909
927.312	12901
927.419	12954
927.525	12951
927.631	12996
927.737	12871
927.843	12844
927.95	12707
928.056	12810
928.162	12772
928.267	12882
928.373	13381
928.479	12821
928.585	12582
928.69	12757
928.796	12817
928.901	12650
929.007	12486
929.112	12673
929.218	12601
929.323	12513
929.428	12536
929.533	12547
929.638	12490
929.743	12445
929.848	12498
929.953	12433
930.058	12338
930.163	12121
930.267	12235
930.372	12334
930.477	12125
930.581	12315
930.685	12224
930.79	12053
930.894	12129
930.998	11992
931.103	12121
931.207	11824
931.311	11760
931.415	11611
931.519	11417
931.623	11421
