Data from test_V78500241_2485.txt Node
Date: Fri Mar 25 15:27:09 CST 2022
User: usil
Spectrometer: V785-0024
Trigger mode: 0
Integration Time (sec): 4.000000E-1
Scans to average: 1
Nonlinearity correction enabled: false
Boxcar width: 0
Storing dark spectrum: false
XAxis mode: Wavelengths
Number of Pixels in Spectrum: 1024
>>>>>Begin Spectral Data<<<<<
801.071	27001
801.214	26998
801.356	26796
801.499	26731
801.641	26583
801.783	26488
801.926	26667
802.068	26583
802.211	26560
802.353	26469
802.496	26271
802.638	26290
802.78	26324
802.923	26016
803.065	26046
803.208	26050
803.35	26134
803.492	26301
803.635	26473
803.777	26218
803.919	26324
804.061	26739
804.204	26347
804.346	26324
804.488	26256
804.63	26324
804.773	26248
804.915	26259
805.057	26575
805.199	26271
805.341	26492
805.483	26438
805.626	26514
805.768	26313
805.91	26294
806.052	26419
806.194	26377
806.336	26727
806.478	26423
806.62	26469
806.762	26663
806.904	26880
807.046	26998
807.188	26895
807.33	26891
807.472	27013
807.614	26701
807.756	26857
807.898	26811
808.04	26625
808.182	26682
808.324	26754
808.465	26746
808.607	26956
808.749	27032
808.891	27188
809.033	27260
809.174	27195
809.316	27028
809.458	27047
809.6	26880
809.741	27195
809.883	27291
810.025	27382
810.166	27374
810.308	27287
810.45	27332
810.591	27135
810.733	27119
810.875	27070
811.016	26952
811.158	27085
811.299	27165
811.441	27211
811.582	27192
811.724	27062
811.865	26971
812.007	26933
812.148	26940
812.29	27093
812.431	27138
812.573	27389
812.714	27504
812.855	27557
812.997	27656
813.138	27778
813.279	27728
813.421	27511
813.562	27378
813.703	27313
813.845	27199
813.986	26933
814.127	26872
814.268	26708
814.41	26754
814.551	26724
814.692	26731
814.833	26609
814.974	26617
815.115	26674
815.256	26347
815.397	26746
815.539	26526
815.68	26499
815.821	26328
815.962	26514
816.103	26480
816.244	26313
816.385	26336
816.526	26043
816.666	26107
816.807	26043
816.948	25974
817.089	26077
817.23	25993
817.371	25917
817.512	25951
817.653	25883
817.793	25860
817.934	25947
818.075	26005
818.216	25974
818.356	25871
818.497	25784
818.638	25582
818.778	25811
818.919	25689
819.06	25613
819.2	25757
819.341	25833
819.481	25955
819.622	26062
819.762	26256
819.903	26115
820.043	26058
820.184	26252
820.324	26081
820.465	26043
820.605	26024
820.746	26062
820.886	25807
821.026	26115
821.167	25940
821.307	25989
821.447	25947
821.588	25803
821.728	25712
821.868	25734
822.008	25449
822.149	25384
822.289	25278
822.429	25088
822.569	25145
822.709	25095
822.849	25069
822.99	24966
823.13	24840
823.27	24848
823.41	24741
823.55	24673
823.69	24753
823.83	24837
823.97	24673
824.11	24642
824.25	24460
824.389	24593
824.529	24646
824.669	24494
824.809	24722
824.949	24658
825.089	24779
825.228	24490
825.368	24502
825.508	24585
825.648	24505
825.787	24551
825.927	24353
826.067	24620
826.206	24448
826.346	24486
826.485	24654
826.625	24601
826.765	24460
826.904	24456
827.044	24258
827.183	24251
827.323	24213
827.462	24224
827.601	24155
827.741	24155
827.88	24273
828.02	24022
828.159	24129
828.298	24125
828.437	24262
828.577	24133
828.716	24182
828.855	24038
828.994	23961
829.134	23912
829.273	23916
829.412	23779
829.551	23726
829.69	23824
829.829	23958
829.968	24053
830.107	24053
830.246	23893
830.385	23961
830.524	23805
830.663	23733
830.802	23524
830.941	23490
831.08	23531
831.219	23520
831.357	23600
831.496	23680
831.635	23501
831.774	23334
831.913	23364
832.051	23296
832.19	23140
832.329	23258
832.467	23174
832.606	23079
832.744	23212
832.883	23204
833.022	23151
833.16	23212
833.299	23132
833.437	23231
833.576	23231
833.714	23292
833.852	23273
833.991	23250
834.129	23273
834.267	23250
834.406	23322
834.544	23277
834.682	23299
834.821	23174
834.959	23383
835.097	23124
835.235	23265
835.373	23303
835.511	23189
835.65	23132
835.788	23090
835.926	22965
836.064	22957
836.202	22999
836.34	23094
836.478	23109
836.615	23037
836.753	23102
836.891	23216
837.029	23216
837.167	23003
837.305	22949
837.443	23086
837.58	22961
837.718	23037
837.856	22873
837.993	22908
838.131	22908
838.269	22733
838.406	22752
838.544	22675
838.681	22569
838.819	22607
838.956	22428
839.094	22451
839.231	22466
839.369	22580
839.506	22740
839.643	22755
839.781	22508
839.918	22382
840.055	22398
840.193	22344
840.33	22291
840.467	22424
840.604	22459
840.742	22687
840.879	22196
841.016	22356
841.153	22363
841.29	22451
841.427	22402
841.564	22394
841.701	22341
841.838	22280
841.975	22253
842.112	22356
842.249	22314
842.385	22124
842.522	22409
842.659	22341
842.796	22135
842.933	22192
843.069	22169
843.206	21895
843.343	21994
843.479	22093
843.616	22086
843.752	21888
843.889	21873
844.025	22021
844.162	21979
844.298	21968
844.435	21895
844.571	21873
844.708	21831
844.844	22044
844.98	22006
845.117	21873
845.253	21838
845.389	21705
845.525	21865
845.661	21827
845.798	21485
845.934	21701
846.07	21466
846.206	21682
846.342	21793
846.478	21671
846.614	21492
846.75	21260
846.886	21386
847.022	21538
847.158	21294
847.294	21336
847.429	21447
847.565	21325
847.701	21633
847.837	21226
847.972	21058
848.108	21165
848.244	21237
848.379	20944
848.515	20944
848.65	20861
848.786	20925
848.921	20975
849.057	21150
849.192	21020
849.328	20956
849.463	20887
849.598	20861
849.734	20849
849.869	20773
850.004	20701
850.14	20743
850.275	20762
850.41	20689
850.545	20667
850.68	20583
850.815	20746
850.95	20655
851.085	20933
851.22	20929
851.355	20674
851.49	20667
851.625	20640
851.76	20720
851.895	20594
852.03	20606
852.165	20861
852.299	20758
852.434	20883
852.569	20788
852.703	20655
852.838	20716
852.973	20769
853.107	20899
853.242	20621
853.376	20514
853.511	20393
853.645	20541
853.78	20621
853.914	20560
854.048	20480
854.183	20541
854.317	20560
854.451	20571
854.585	20442
854.72	20644
854.854	20670
854.988	20389
855.122	20511
855.256	20423
855.39	20518
855.524	20602
855.658	20609
855.792	20644
855.926	20473
856.06	20495
856.194	20522
856.327	20541
856.461	20351
856.595	20438
856.729	20579
856.862	20530
856.996	20549
857.13	20495
857.263	20659
857.397	20598
857.53	20545
857.664	20636
857.797	20689
857.931	20526
858.064	20488
858.197	20594
858.331	20533
858.464	20488
858.597	20442
858.731	20636
858.864	20484
858.997	20575
859.13	20568
859.263	20514
859.396	20594
859.529	20465
859.662	20404
859.795	20629
859.928	20495
860.061	20686
860.194	20655
860.327	20522
860.46	20549
860.592	20598
860.725	20712
860.858	20583
860.99	20556
861.123	20404
861.256	20568
861.388	20393
861.521	21017
861.653	20343
861.786	20347
861.918	20381
862.05	20427
862.183	20465
862.315	20503
862.447	20617
862.58	20415
862.712	20389
862.844	20393
862.976	20385
863.108	20355
863.24	20712
863.372	20278
863.504	20130
863.636	20225
863.768	20282
863.9	20317
864.032	20301
864.164	20161
864.296	20298
864.428	20377
864.559	20351
864.691	20339
864.823	20366
864.954	20275
865.086	20172
865.217	20149
865.349	20180
865.48	20183
865.612	20199
865.743	20309
865.875	20191
866.006	20191
866.137	20062
866.269	20172
866.4	20176
866.531	20020
866.662	20096
866.793	20168
866.924	20149
867.055	20092
867.186	20084
867.317	20073
867.448	20031
867.579	20058
867.71	20172
867.841	19986
867.972	20088
868.103	20183
868.233	20111
868.364	20138
868.495	20210
868.625	20320
868.756	20514
868.886	20434
869.017	20309
869.147	20431
869.278	20476
869.408	20442
869.539	20339
869.669	20362
869.799	20282
869.929	20492
870.06	20488
870.19	20682
870.32	20518
870.45	20583
870.58	20788
870.71	20769
870.84	20895
870.97	20651
871.1	20750
871.23	20921
871.36	20982
871.489	20845
871.619	20864
871.749	20876
871.879	21005
872.008	21020
872.138	21005
872.267	20960
872.397	20804
872.526	20823
872.656	20861
872.785	20758
872.915	21032
873.044	21039
873.173	20918
873.303	20982
873.432	20986
873.561	21009
873.69	20998
873.819	20956
873.948	20963
874.077	21028
874.206	20914
874.335	20933
874.464	21009
874.593	21188
874.722	21173
874.851	21100
874.979	21272
875.108	21233
875.237	21249
875.365	21085
875.494	21184
875.623	21302
875.751	21074
875.88	21241
876.008	21306
876.136	21378
876.265	21625
876.393	21751
876.521	21686
876.65	21835
876.778	21572
876.906	21641
877.034	21538
877.162	21656
877.29	21488
877.418	21694
877.546	21534
877.674	21591
877.802	21496
877.93	21542
878.058	21545
878.185	21363
878.313	21599
878.441	21428
878.568	21492
878.696	21435
878.824	21644
878.951	21564
879.079	21641
879.206	21884
879.333	21797
879.461	21648
879.588	21660
879.715	21800
879.842	21736
879.97	21618
880.097	21477
880.224	21340
880.351	21496
880.478	21466
880.605	21378
880.732	21363
880.859	21633
880.986	21458
881.112	21344
881.239	21302
881.366	21077
881.493	21070
881.619	20952
881.746	21005
881.872	21028
881.999	20990
882.125	21070
882.252	21017
882.378	21013
882.505	21093
882.631	20857
882.757	20720
882.883	20834
883.01	20640
883.136	20629
883.262	20598
883.388	20533
883.514	20746
883.64	20762
883.766	20636
883.892	20381
884.018	20431
884.143	20556
884.269	20727
884.395	20415
884.52	20400
884.646	20381
884.772	20229
884.897	20271
885.023	20240
885.148	20412
885.274	20461
885.399	20454
885.524	20267
885.65	20415
885.775	20389
885.9	20214
886.025	20347
886.15	20393
886.275	20248
886.4	20263
886.525	20244
886.65	20294
886.775	20298
886.9	20351
887.025	20442
887.149	20244
887.274	20149
887.399	20126
887.523	20020
887.648	20012
887.773	19963
887.897	20225
888.021	20092
888.146	20039
888.27	20176
888.395	20218
888.519	20195
888.643	20100
888.767	20183
888.891	20016
889.015	19890
889.139	19997
889.263	19947
889.387	20008
889.511	20058
889.635	20039
889.759	19917
889.883	19921
890.006	19970
890.13	20031
890.254	19811
890.377	19868
890.501	19635
890.624	19639
890.748	19689
890.871	19556
890.995	19594
891.118	19468
891.241	19476
891.364	19544
891.488	19628
891.611	19620
891.734	19510
891.857	19624
891.98	19472
892.103	19506
892.226	19499
892.349	19506
892.471	19240
892.594	19358
892.717	19362
892.839	19407
892.962	19377
893.085	19396
893.207	19464
893.33	19343
893.452	19487
893.575	19388
893.697	19472
893.819	19392
893.941	19666
894.064	19510
894.186	19266
894.308	19358
894.43	19510
894.552	19571
894.674	19529
894.796	19293
894.918	19358
895.04	19445
895.161	19460
895.283	19365
895.405	19381
895.526	19419
895.648	19415
895.769	19499
895.891	19506
896.012	19514
896.134	19540
896.255	19419
896.376	19392
896.498	19400
896.619	19525
896.74	19362
896.861	19537
896.982	19845
897.103	19913
897.224	19727
897.345	19670
897.466	19582
897.587	19559
897.708	19856
897.828	19704
897.949	19552
898.07	19472
898.19	19597
898.311	19662
898.431	19548
898.552	19601
898.672	19818
898.792	19693
898.913	19647
899.033	19544
899.153	19510
899.273	19335
899.393	19552
899.513	19457
899.633	19369
899.753	19434
899.873	19274
899.993	19358
900.113	19438
900.232	19514
900.352	19304
900.472	19263
900.591	19107
900.711	19316
900.83	19114
900.95	19320
901.069	19362
901.189	19038
901.308	18837
901.427	18814
901.546	18753
901.665	18711
901.784	18901
901.904	18627
902.023	18479
902.141	18289
902.26	18266
902.379	18426
902.498	18296
902.617	18205
902.735	18330
902.854	18334
902.973	18186
903.091	18045
903.21	18114
903.328	17931
903.446	17939
903.565	17843
903.683	17824
903.801	17737
903.919	17695
904.038	17764
904.156	17608
904.274	17543
904.392	17592
904.51	17535
904.627	17528
904.745	17653
904.863	17589
904.981	17250
905.098	17261
905.216	17216
905.334	17242
905.451	17303
905.569	17204
905.686	17223
905.803	17311
905.921	17067
906.038	17079
906.155	17109
906.272	16919
906.389	17037
906.506	16782
906.623	16793
906.74	16873
906.857	16717
906.974	16721
907.091	16771
907.208	16904
907.324	16911
907.441	16706
907.557	16580
907.674	16573
907.79	16485
907.907	16512
908.023	16516
908.139	16542
908.256	16394
908.372	16360
908.488	16508
908.604	16215
908.72	16253
908.836	16246
908.952	16150
909.068	16261
909.184	16341
909.3	16261
909.415	16375
909.531	16090
909.647	15888
909.762	15926
909.878	15861
909.993	16051
910.108	15888
910.224	15960
910.339	15899
910.454	15800
910.57	15869
910.685	15789
910.8	15937
910.915	15907
911.03	15778
911.145	15580
911.259	15557
911.374	15633
911.489	15576
911.604	15485
911.718	15363
911.833	15363
911.947	15325
912.062	15336
912.176	15507
912.291	15435
912.405	15466
912.519	15587
912.633	15568
912.748	15367
912.862	15245
912.976	15214
913.09	14979
913.204	15089
913.318	15184
913.431	15207
913.545	15264
913.659	15279
913.772	15100
913.886	14941
914	14849
914.113	15020
914.226	15039
914.34	14963
914.453	14845
914.566	15013
914.68	14872
914.793	14815
914.906	14754
915.019	14613
915.132	14579
915.245	14659
915.358	14579
915.47	14594
915.583	14621
915.696	14617
915.809	14712
915.921	14705
916.034	14541
916.146	14381
916.259	14492
916.371	14556
916.483	14533
916.595	14336
916.708	14412
916.82	14415
916.932	14362
917.044	14469
917.156	14347
917.268	14259
917.38	14240
917.491	14191
917.603	14214
917.715	14347
917.826	14324
917.938	14286
918.049	14107
918.161	14199
918.272	14248
918.384	14286
918.495	14126
918.606	14100
918.717	14027
918.828	14046
918.939	13959
919.05	13906
919.161	13959
919.272	13799
919.383	13757
919.494	13989
919.604	14275
919.715	14001
919.826	13864
919.936	13932
920.047	14024
920.157	14043
920.267	14172
920.378	13974
920.488	13898
920.598	14107
920.708	14218
920.818	14126
920.928	14077
921.038	14278
921.148	14240
921.258	14005
921.368	13963
921.477	13772
921.587	13666
921.697	13597
921.806	13658
921.916	13639
922.025	13491
922.134	13464
922.244	13403
922.353	13434
922.462	13255
922.571	13206
922.68	13141
922.789	13000
922.898	13110
923.007	13053
923.116	13076
923.224	13027
923.333	12970
923.442	12882
923.55	12863
923.659	12867
923.767	12993
923.876	12844
923.984	12886
924.092	12772
924.201	12722
924.309	12821
924.417	12688
924.525	12589
924.633	12715
924.741	13571
924.849	12544
924.956	12597
925.064	12566
925.172	12323
925.279	12418
925.387	12391
925.494	12429
925.602	12612
925.709	12544
925.816	12395
925.924	12376
926.031	12513
926.138	12391
926.245	12414
926.352	12372
926.459	12426
926.566	12437
926.673	12311
926.779	12243
926.886	12224
926.993	12019
927.099	12106
927.206	11965
927.312	11946
927.419	12121
927.525	11999
927.631	12129
927.737	12030
927.843	11878
927.95	11775
928.056	11897
928.162	11893
928.267	11874
928.373	12547
928.479	11939
928.585	11752
928.69	11798
928.796	11866
928.901	11733
929.007	11646
929.112	11790
929.218	11710
929.323	11676
929.428	11623
929.533	11741
929.638	11543
929.743	11581
929.848	11649
929.953	11566
930.058	11383
930.163	11322
930.267	11406
930.372	11577
930.477	11250
930.581	11512
930.685	11299
930.79	11128
930.894	11273
930.998	11155
931.103	11239
931.207	10965
931.311	10968
931.415	10782
931.519	10649
931.623	10626
