Data from test_V78500241_202.txt Node
Date: Fri Mar 25 15:11:16 CST 2022
User: usil
Spectrometer: V785-0024
Trigger mode: 0
Integration Time (sec): 4.000000E-1
Scans to average: 1
Nonlinearity correction enabled: false
Boxcar width: 0
Storing dark spectrum: false
XAxis mode: Wavelengths
Number of Pixels in Spectrum: 1024
>>>>>Begin Spectral Data<<<<<
801.071	27964
801.214	27911
801.356	27500
801.499	27538
801.641	27439
801.783	27370
801.926	27427
802.068	27218
802.211	27294
802.353	27146
802.496	26994
802.638	27043
802.78	27081
802.923	26845
803.065	26750
803.208	26967
803.35	26944
803.492	27032
803.635	27173
803.777	26967
803.919	27135
804.061	27359
804.204	27032
804.346	27116
804.488	26979
804.63	27039
804.773	26895
804.915	27036
805.057	27047
805.199	27001
805.341	27047
805.483	27218
805.626	27195
805.768	26967
805.91	27131
806.052	27138
806.194	27077
806.336	27150
806.478	27093
806.62	27085
806.762	27245
806.904	27374
807.046	27564
807.188	27538
807.33	27545
807.472	27568
807.614	27386
807.756	27420
807.898	27473
808.04	27317
808.182	27298
808.324	27332
808.465	27237
808.607	27447
808.749	27827
808.891	27827
809.033	27930
809.174	27850
809.316	27671
809.458	27873
809.6	27705
809.741	27842
809.883	27770
810.025	27998
810.166	27945
810.308	27960
810.45	28021
810.591	27804
810.733	27747
810.875	27580
811.016	27595
811.158	27462
811.299	27728
811.441	27880
811.582	27656
811.724	27720
811.865	27591
812.007	27427
812.148	27625
812.29	27717
812.431	27838
812.573	27911
812.714	28048
812.855	28006
812.997	28188
813.138	28337
813.279	28204
813.421	28253
813.562	28067
813.703	27975
813.845	27949
813.986	27519
814.127	27435
814.268	27298
814.41	27488
814.551	27180
814.692	27348
814.833	27119
814.974	27226
815.115	27287
815.256	27058
815.397	27081
815.539	27294
815.68	26986
815.821	26971
815.962	26940
816.103	26868
816.244	26914
816.385	26861
816.526	26781
816.666	26701
816.807	26446
816.948	26537
817.089	26526
817.23	26579
817.371	26267
817.512	26522
817.653	26476
817.793	26278
817.934	26419
818.075	26298
818.216	26396
818.356	26332
818.497	26278
818.638	26107
818.778	26115
818.919	26161
819.06	26126
819.2	26358
819.341	26221
819.481	26244
819.622	26552
819.762	26781
819.903	26590
820.043	26469
820.184	26328
820.324	26541
820.465	26507
820.605	26518
820.746	26347
820.886	26263
821.026	26495
821.167	26370
821.307	26564
821.447	26298
821.588	26290
821.728	26054
821.868	25974
822.008	25868
822.149	25856
822.289	25776
822.429	25499
822.569	25563
822.709	25514
822.849	25171
822.99	25293
823.13	25236
823.27	25175
823.41	25000
823.55	25008
823.69	25141
823.83	25023
823.97	25091
824.11	24867
824.25	24920
824.389	24939
824.529	24852
824.669	24920
824.809	25053
824.949	24924
825.089	25012
825.228	24882
825.368	24696
825.508	24711
825.648	24840
825.787	24848
825.927	24798
826.067	24589
826.206	24711
826.346	24753
826.485	24783
826.625	24772
826.765	24734
826.904	24749
827.044	24505
827.183	24372
827.323	24376
827.462	24441
827.601	24388
827.741	24391
827.88	24494
828.02	24304
828.159	24350
828.298	24490
828.437	24380
828.577	24266
828.716	24372
828.855	24388
828.994	24083
829.134	24232
829.273	24216
829.412	24205
829.551	24030
829.69	23988
829.829	24262
829.968	24102
830.107	24110
830.246	24041
830.385	24064
830.524	23954
830.663	23950
830.802	23836
830.941	23718
831.08	23710
831.219	23745
831.357	23653
831.496	23851
831.635	23570
831.774	23592
831.913	23520
832.051	23539
832.19	23497
832.329	23459
832.467	23421
832.606	23318
832.744	23258
832.883	23269
833.022	23288
833.16	23391
833.299	23421
833.437	23429
833.576	23368
833.714	23318
833.852	23284
833.991	23356
834.129	23459
834.267	23429
834.406	23292
834.544	23368
834.682	23395
834.821	23429
834.959	23501
835.097	23189
835.235	23425
835.373	23322
835.511	23299
835.65	23143
835.788	23239
835.926	23083
836.064	23083
836.202	23060
836.34	23094
836.478	23212
836.615	23170
836.753	23124
836.891	23307
837.029	23208
837.167	23102
837.305	23010
837.443	23064
837.58	22999
837.718	22995
837.856	23052
837.993	23052
838.131	23018
838.269	22946
838.406	22908
838.544	22763
838.681	22554
838.819	22599
838.956	22413
839.094	22436
839.231	22489
839.369	22622
839.506	22805
839.643	22694
839.781	22497
839.918	22303
840.055	22466
840.193	22512
840.33	22325
840.467	22459
840.604	22386
840.742	22622
840.879	22322
841.016	22436
841.153	22253
841.29	22459
841.427	22310
841.564	22382
841.701	22337
841.838	22333
841.975	22249
842.112	22363
842.249	22135
842.385	22169
842.522	22314
842.659	22166
842.796	22116
842.933	22063
843.069	22063
843.206	21991
843.343	22207
843.479	22166
843.616	22169
843.752	21892
843.889	21739
844.025	22010
844.162	21895
844.298	21880
844.435	21865
844.571	21865
844.708	21979
844.844	21987
844.98	21960
845.117	22025
845.253	21816
845.389	21770
845.525	21701
845.661	21686
845.798	21557
845.934	21660
846.07	21675
846.206	21614
846.342	21743
846.478	21488
846.614	21382
846.75	21218
846.886	21359
847.022	21378
847.158	21325
847.294	21313
847.429	21416
847.565	21260
847.701	21599
847.837	21043
847.972	20986
848.108	21233
848.244	21203
848.379	20891
848.515	20986
848.65	20948
848.786	20952
848.921	20921
849.057	20845
849.192	20960
849.328	20921
849.463	20842
849.598	20754
849.734	20769
849.869	20727
850.004	20579
850.14	20663
850.275	20731
850.41	20682
850.545	20545
850.68	20651
850.815	20724
850.95	20640
851.085	20830
851.22	20762
851.355	20636
851.49	20583
851.625	20674
851.76	20636
851.895	20621
852.03	20522
852.165	20598
852.299	20571
852.434	20678
852.569	20659
852.703	20659
852.838	20606
852.973	20811
853.107	20750
853.242	20659
853.376	20495
853.511	20339
853.645	20518
853.78	20522
853.914	20434
854.048	20400
854.183	20389
854.317	20419
854.451	20583
854.585	20442
854.72	20419
854.854	20450
854.988	20339
855.122	20511
855.256	20267
855.39	20465
855.524	20568
855.658	20427
855.792	20336
855.926	20419
856.06	20537
856.194	20556
856.327	20533
856.461	20355
856.595	20313
856.729	20488
856.862	20465
856.996	20377
857.13	20552
857.263	20549
857.397	20476
857.53	20537
857.664	20442
857.797	20484
857.931	20693
858.064	20575
858.197	20423
858.331	20476
858.464	20317
858.597	20336
858.731	20305
858.864	20377
858.997	20328
859.13	20412
859.263	20511
859.396	20419
859.529	20339
859.662	20259
859.795	20336
859.928	20290
860.061	20590
860.194	20598
860.327	20423
860.46	20507
860.592	20617
860.725	20655
860.858	20518
860.99	20533
861.123	20267
861.256	20282
861.388	20396
861.521	21142
861.653	20351
861.786	20130
861.918	20221
862.05	20267
862.183	20522
862.315	20389
862.447	20476
862.58	20377
862.712	20073
862.844	20157
862.976	20317
863.108	20126
863.24	20621
863.372	20115
863.504	20077
863.636	20134
863.768	20233
863.9	20187
864.032	19928
864.164	20016
864.296	20088
864.428	20229
864.559	20202
864.691	20256
864.823	20050
864.954	20088
865.086	20073
865.217	20096
865.349	19955
865.48	20039
865.612	20043
865.743	20153
865.875	19982
866.006	20058
866.137	20107
866.269	19978
866.4	19986
866.531	19982
866.662	19909
866.793	19944
866.924	20020
867.055	19959
867.186	19982
867.317	19883
867.448	19868
867.579	19868
867.71	19811
867.841	19871
867.972	20065
868.103	20054
868.233	19986
868.364	19993
868.495	19963
868.625	20119
868.756	20275
868.886	20115
869.017	20195
869.147	20320
869.278	20328
869.408	20088
869.539	20248
869.669	20202
869.799	20328
869.929	20343
870.06	20320
870.19	20480
870.32	20594
870.45	20518
870.58	20545
870.71	20564
870.84	20667
870.97	20476
871.1	20583
871.23	20769
871.36	20815
871.489	20655
871.619	20678
871.749	20686
871.879	20819
872.008	20967
872.138	20823
872.267	20785
872.397	20659
872.526	20659
872.656	20678
872.785	20499
872.915	20727
873.044	20902
873.173	20838
873.303	20899
873.432	20876
873.561	20887
873.69	20785
873.819	20895
873.948	21001
874.077	20941
874.206	20853
874.335	20804
874.464	21036
874.593	21077
874.722	20925
874.851	21062
874.979	21017
875.108	21173
875.237	21001
875.365	20948
875.494	21066
875.623	21116
875.751	20963
875.88	21108
876.008	21264
876.136	21272
876.265	21458
876.393	21614
876.521	21477
876.65	21557
876.778	21412
876.906	21359
877.034	21481
877.162	21469
877.29	21302
877.418	21302
877.546	21447
877.674	21351
877.802	21450
877.93	21443
878.058	21367
878.185	21317
878.313	21275
878.441	21481
878.568	21348
878.696	21268
878.824	21401
878.951	21424
879.079	21610
879.206	21698
879.333	21644
879.461	21428
879.588	21591
879.715	21538
879.842	21690
879.97	21393
880.097	21199
880.224	21214
880.351	21264
880.478	21218
880.605	21116
880.732	21302
880.859	21500
880.986	21268
881.112	21283
881.239	21032
881.366	20853
881.493	20952
881.619	20834
881.746	20823
881.872	20861
881.999	20750
882.125	20758
882.252	20925
882.378	20800
882.505	20895
882.631	20743
882.757	20488
882.883	20689
883.01	20537
883.136	20541
883.262	20454
883.388	20301
883.514	20560
883.64	20526
883.766	20598
883.892	20320
884.018	20336
884.143	20503
884.269	20697
884.395	20244
884.52	20157
884.646	20145
884.772	20237
884.897	20142
885.023	20275
885.148	20305
885.274	20324
885.399	20294
885.524	20172
885.65	20058
885.775	20278
885.9	20210
886.025	20278
886.15	20286
886.275	20069
886.4	20020
886.525	20096
886.65	20035
886.775	19993
886.9	20259
887.025	20465
887.149	20130
887.274	20024
887.399	19860
887.523	20001
887.648	19894
887.773	19868
887.897	20111
888.021	20081
888.146	19902
888.27	20012
888.395	20107
888.519	19978
888.643	19906
888.767	19917
888.891	19734
889.015	19746
889.139	19822
889.263	19666
889.387	19928
889.511	19959
889.635	19902
889.759	19662
889.883	19875
890.006	19757
890.13	19750
890.254	19757
890.377	19685
890.501	19578
890.624	19438
890.748	19597
890.871	19400
890.995	19324
891.118	19228
891.241	19339
891.364	19289
891.488	19510
891.611	19304
891.734	19384
891.857	19449
891.98	19274
892.103	19384
892.226	19354
892.349	19266
892.471	19129
892.594	19270
892.717	19274
892.839	19099
892.962	19297
893.085	19373
893.207	19217
893.33	19133
893.452	19187
893.575	19346
893.697	19190
893.819	19552
893.941	19487
894.064	19324
894.186	19171
894.308	19255
894.43	19312
894.552	19396
894.674	19365
894.796	19198
894.918	19263
895.04	19312
895.161	19301
895.283	19209
895.405	19099
895.526	19247
895.648	19221
895.769	19369
895.891	19335
896.012	19430
896.134	19388
896.255	19335
896.376	19194
896.498	19316
896.619	19460
896.74	19259
896.861	19274
896.982	19548
897.103	19807
897.224	19438
897.345	19609
897.466	19529
897.587	19426
897.708	19525
897.828	19544
897.949	19491
898.07	19365
898.19	19430
898.311	19529
898.431	19403
898.552	19472
898.672	19559
898.792	19578
898.913	19460
899.033	19426
899.153	19236
899.273	19168
899.393	19202
899.513	19289
899.633	19190
899.753	19232
899.873	19164
899.993	19301
900.113	19118
900.232	19194
900.352	19141
900.472	19008
900.591	19069
900.711	19012
900.83	19023
900.95	19095
901.069	19145
901.189	18973
901.308	18772
901.427	18525
901.546	18616
901.665	18585
901.784	18627
901.904	18506
902.023	18464
902.141	18182
902.26	18159
902.379	18239
902.498	18117
902.617	18038
902.735	18125
902.854	18201
902.973	18057
903.091	17786
903.21	17813
903.328	17764
903.446	17707
903.565	17493
903.683	17615
903.801	17539
903.919	17707
904.038	17596
904.156	17440
904.274	17623
904.392	17326
904.51	17395
904.627	17410
904.745	17417
904.863	17471
904.981	17136
905.098	17098
905.216	17037
905.334	17014
905.451	17098
905.569	17056
905.686	17083
905.803	17109
905.921	16782
906.038	17018
906.155	16847
906.272	16782
906.389	16805
906.506	16645
906.623	16584
906.74	16637
906.857	16421
906.974	16508
907.091	16691
907.208	16721
907.324	16713
907.441	16462
907.557	16390
907.674	16253
907.79	16158
907.907	16272
908.023	16238
908.139	16329
908.256	16211
908.372	16268
908.488	16177
908.604	16086
908.72	16006
908.836	16059
908.952	15964
909.068	16017
909.184	16040
909.3	15915
909.415	16109
909.531	15926
909.647	15732
909.762	15778
909.878	15671
909.993	15774
910.108	15557
910.224	15625
910.339	15717
910.454	15603
910.57	15606
910.685	15408
910.8	15781
910.915	15587
911.03	15431
911.145	15382
911.259	15317
911.374	15397
911.489	15344
911.604	15154
911.718	15017
911.833	15123
911.947	14956
912.062	14979
912.176	14979
912.291	15032
912.405	15043
912.519	15207
912.633	15268
912.748	15077
912.862	14956
912.976	14944
913.09	14823
913.204	14853
913.318	14773
913.431	14933
913.545	15058
913.659	14948
913.772	14849
913.886	14754
914	14727
914.113	14811
914.226	14792
914.34	14758
914.453	14579
914.566	14739
914.68	14655
914.793	14590
914.906	14484
915.019	14389
915.132	14393
915.245	14400
915.358	14374
915.47	14446
915.583	14377
915.696	14434
915.809	14492
915.921	14590
916.034	14206
916.146	14248
916.259	14180
916.371	14313
916.483	14278
916.595	14233
916.708	14229
916.82	14073
916.932	14145
917.044	14145
917.156	14119
917.268	13986
917.38	14100
917.491	14027
917.603	13989
917.715	14100
917.826	14134
917.938	13909
918.049	13890
918.161	13932
918.272	14138
918.384	14088
918.495	13978
918.606	13818
918.717	13765
918.828	13849
918.939	13906
919.05	13696
919.161	13746
919.272	13529
919.383	13594
919.494	13791
919.604	13932
919.715	13731
919.826	13674
919.936	13647
920.047	13795
920.157	13795
920.267	13856
920.378	13700
920.488	13613
920.598	13951
920.708	14001
920.818	13845
920.928	13883
921.038	13967
921.148	13951
921.258	13704
921.368	13693
921.477	13502
921.587	13521
921.697	13373
921.806	13476
921.916	13270
922.025	13247
922.134	13156
922.244	13088
922.353	13175
922.462	13023
922.571	12935
922.68	12848
922.789	12757
922.898	12806
923.007	12791
923.116	12726
923.224	12806
923.333	12726
923.442	12726
923.55	12555
923.659	12631
923.767	12711
923.876	12623
923.984	12715
924.092	12593
924.201	12532
924.309	12585
924.417	12612
924.525	12460
924.633	12513
924.741	13278
924.849	12277
924.956	12513
925.064	12308
925.172	12228
925.279	12270
925.387	12292
925.494	12251
925.602	12422
925.709	12254
925.816	12144
925.924	12216
926.031	12292
926.138	12194
926.245	12346
926.352	12159
926.459	12205
926.566	12243
926.673	12136
926.779	11984
926.886	12019
926.993	11824
927.099	11870
927.206	11836
927.312	11817
927.419	11786
927.525	11870
927.631	11912
927.737	11786
927.843	11684
927.95	11532
928.056	11600
928.162	11688
928.267	11737
928.373	12167
928.479	11718
928.585	11535
928.69	11630
928.796	11703
928.901	11611
929.007	11425
929.112	11554
929.218	11471
929.323	11414
929.428	11322
929.533	11524
929.638	11334
929.743	11417
929.848	11463
929.953	11417
930.058	11258
930.163	11056
930.267	11204
930.372	11235
930.477	11048
930.581	11353
930.685	11124
930.79	10976
930.894	10995
930.998	11056
931.103	11079
931.207	10748
931.311	10637
931.415	10626
931.519	10379
931.623	10428
