Data from test_V78500241_3331.txt Node
Date: Fri Mar 25 15:33:03 CST 2022
User: usil
Spectrometer: V785-0024
Trigger mode: 0
Integration Time (sec): 4.000000E-1
Scans to average: 1
Nonlinearity correction enabled: false
Boxcar width: 0
Storing dark spectrum: false
XAxis mode: Wavelengths
Number of Pixels in Spectrum: 1024
>>>>>Begin Spectral Data<<<<<
801.071	27374
801.214	27351
801.356	27173
801.499	27001
801.641	26804
801.783	26731
801.926	26868
802.068	26758
802.211	26754
802.353	26686
802.496	26617
802.638	26560
802.78	26499
802.923	26370
803.065	26313
803.208	26324
803.35	26537
803.492	26533
803.635	26765
803.777	26621
803.919	26648
804.061	27070
804.204	26720
804.346	26609
804.488	26598
804.63	26629
804.773	26427
804.915	26632
805.057	26842
805.199	26583
805.341	26716
805.483	26735
805.626	26906
805.768	26739
805.91	26724
806.052	26769
806.194	26663
806.336	26906
806.478	26720
806.62	26655
806.762	26891
806.904	26944
807.046	27363
807.188	27169
807.33	27169
807.472	27211
807.614	27173
807.756	27093
807.898	27077
808.04	26979
808.182	27036
808.324	27089
808.465	26971
808.607	27150
808.749	27313
808.891	27424
809.033	27435
809.174	27439
809.316	27321
809.458	27313
809.6	27386
809.741	27378
809.883	27557
810.025	27667
810.166	27629
810.308	27663
810.45	27530
810.591	27492
810.733	27321
810.875	27252
811.016	27317
811.158	27211
811.299	27500
811.441	27511
811.582	27599
811.724	27340
811.865	27355
812.007	27294
812.148	27264
812.29	27469
812.431	27485
812.573	27629
812.714	27701
812.855	27797
812.997	27888
813.138	28105
813.279	27903
813.421	27907
813.562	27762
813.703	27595
813.845	27587
813.986	27241
814.127	27165
814.268	26975
814.41	27074
814.551	27062
814.692	27116
814.833	26971
814.974	26998
815.115	27096
815.256	26902
815.397	26861
815.539	26853
815.68	26667
815.821	26826
815.962	26807
816.103	26838
816.244	26686
816.385	26613
816.526	26579
816.666	26374
816.807	26237
816.948	26324
817.089	26298
817.23	26221
817.371	26214
817.512	26290
817.653	26195
817.793	26176
817.934	26210
818.075	26317
818.216	26320
818.356	26191
818.497	26077
818.638	26069
818.778	26008
818.919	26001
819.06	26122
819.2	26164
819.341	26206
819.481	26233
819.622	26328
819.762	26800
819.903	26629
820.043	26419
820.184	26446
820.324	26427
820.465	26518
820.605	26332
820.746	26446
820.886	26301
821.026	26450
821.167	26252
821.307	26317
821.447	26259
821.588	26176
821.728	26084
821.868	25776
822.008	25830
822.149	25803
822.289	25681
822.429	25567
822.569	25282
822.709	25460
822.849	25369
822.99	25247
823.13	25202
823.27	25282
823.41	25019
823.55	25084
823.69	25091
823.83	25042
823.97	25053
824.11	24840
824.25	24798
824.389	24871
824.529	24958
824.669	24840
824.809	24932
824.949	25038
825.089	25053
825.228	24882
825.368	24878
825.508	24738
825.648	24787
825.787	24757
825.927	24951
826.067	24745
826.206	24745
826.346	24749
826.485	24837
826.625	24840
826.765	24901
826.904	24768
827.044	24498
827.183	24517
827.323	24467
827.462	24616
827.601	24456
827.741	24410
827.88	24544
828.02	24296
828.159	24376
828.298	24330
828.437	24521
828.577	24395
828.716	24486
828.855	24403
828.994	24220
829.134	24209
829.273	24186
829.412	24129
829.551	24182
829.69	24281
829.829	24304
829.968	24110
830.107	24254
830.246	24277
830.385	24038
830.524	24140
830.663	23977
830.802	23984
830.941	23790
831.08	23851
831.219	23893
831.357	23832
831.496	23969
831.635	23817
831.774	23737
831.913	23821
832.051	23509
832.19	23493
832.329	23539
832.467	23547
832.606	23402
832.744	23417
832.883	23410
833.022	23406
833.16	23383
833.299	23608
833.437	23345
833.576	23467
833.714	23558
833.852	23539
833.991	23570
834.129	23558
834.267	23577
834.406	23596
834.544	23672
834.682	23539
834.821	23649
834.959	23524
835.097	23402
835.235	23573
835.373	23524
835.511	23471
835.65	23387
835.788	23250
835.926	23235
836.064	23258
836.202	23193
836.34	23349
836.478	23573
836.615	23414
836.753	23296
836.891	23471
837.029	23463
837.167	23311
837.305	23448
837.443	23315
837.58	23181
837.718	23326
837.856	23212
837.993	23197
838.131	23280
838.269	23170
838.406	23029
838.544	23102
838.681	22881
838.819	22839
838.956	22748
839.094	22767
839.231	22854
839.369	22828
839.506	23113
839.643	22980
839.781	22759
839.918	22675
840.055	22805
840.193	22637
840.33	22687
840.467	22626
840.604	22664
840.742	22767
840.879	22504
841.016	22649
841.153	22630
841.29	22702
841.427	22713
841.564	22672
841.701	22630
841.838	22618
841.975	22702
842.112	22557
842.249	22466
842.385	22424
842.522	22675
842.659	22348
842.796	22466
842.933	22443
843.069	22303
843.206	22322
843.343	22455
843.479	22390
843.616	22394
843.752	22139
843.889	22246
844.025	22424
844.162	22169
844.298	22299
844.435	22131
844.571	22124
844.708	22150
844.844	22421
844.98	22329
845.117	22276
845.253	22109
845.389	22017
845.525	22093
845.661	22032
845.798	21949
845.934	22021
846.07	21880
846.206	21918
846.342	21987
846.478	21991
846.614	21701
846.75	21580
846.886	21641
847.022	21728
847.158	21762
847.294	21759
847.429	21580
847.565	21637
847.701	21789
847.837	21348
847.972	21435
848.108	21466
848.244	21523
848.379	21302
848.515	21294
848.65	21195
848.786	21275
848.921	21344
849.057	21370
849.192	21291
849.328	21488
849.463	21252
849.598	21222
849.734	21195
849.869	21138
850.004	21017
850.14	21077
850.275	20971
850.41	21051
850.545	21005
850.68	20994
850.815	20994
850.95	20956
851.085	21195
851.22	21165
851.355	21112
851.49	21039
851.625	21089
851.76	21005
851.895	20872
852.03	20925
852.165	20960
852.299	21150
852.434	21195
852.569	20982
852.703	20925
852.838	20979
852.973	21176
853.107	21180
853.242	20967
853.376	20788
853.511	20724
853.645	20883
853.78	20815
853.914	20864
854.048	20826
854.183	20739
854.317	20842
854.451	21028
854.585	20910
854.72	20804
854.854	20785
854.988	20716
855.122	20842
855.256	20697
855.39	20826
855.524	20963
855.658	20906
855.792	20823
855.926	20758
856.06	20895
856.194	20895
856.327	20845
856.461	20807
856.595	20921
856.729	20925
856.862	20929
856.996	20899
857.13	20921
857.263	20975
857.397	20971
857.53	20777
857.664	20876
857.797	20975
857.931	20944
858.064	20933
858.197	20933
858.331	20864
858.464	20883
858.597	20739
858.731	20880
858.864	20754
858.997	20724
859.13	20838
859.263	20872
859.396	20979
859.529	20868
859.662	20849
859.795	20845
859.928	20891
860.061	20941
860.194	21058
860.327	20963
860.46	20830
860.592	20948
860.725	21058
860.858	20864
860.99	20819
861.123	20750
861.256	20785
861.388	20887
861.521	21595
861.653	20625
861.786	20682
861.918	20735
862.05	20689
862.183	20720
862.315	20773
862.447	20872
862.58	20712
862.712	20552
862.844	20469
862.976	20815
863.108	20659
863.24	20979
863.372	20625
863.504	20503
863.636	20606
863.768	20686
863.9	20503
864.032	20503
864.164	20564
864.296	20613
864.428	20621
864.559	20587
864.691	20735
864.823	20606
864.954	20598
865.086	20503
865.217	20545
865.349	20343
865.48	20492
865.612	20621
865.743	20568
865.875	20526
866.006	20415
866.137	20446
866.269	20522
866.4	20469
866.531	20336
866.662	20282
866.793	20370
866.924	20332
867.055	20431
867.186	20366
867.317	20240
867.448	20377
867.579	20385
867.71	20366
867.841	20381
867.972	20423
868.103	20377
868.233	20408
868.364	20442
868.495	20484
868.625	20636
868.756	20800
868.886	20537
869.017	20556
869.147	20785
869.278	20716
869.408	20651
869.539	20598
869.669	20708
869.799	20682
869.929	20727
870.06	20746
870.19	20891
870.32	20921
870.45	20895
870.58	20948
870.71	21161
870.84	21184
870.97	21081
871.1	21100
871.23	21256
871.36	21233
871.489	21096
871.619	21176
871.749	21306
871.879	21302
872.008	21386
872.138	21283
872.267	21252
872.397	21146
872.526	21150
872.656	21135
872.785	21039
872.915	21302
873.044	21279
873.173	21420
873.303	21325
873.432	21340
873.561	21389
873.69	21294
873.819	21226
873.948	21389
874.077	21222
874.206	21085
874.335	21245
874.464	21466
874.593	21553
874.722	21504
874.851	21549
874.979	21568
875.108	21401
875.237	21481
875.365	21401
875.494	21401
875.623	21511
875.751	21443
875.88	21606
876.008	21568
876.136	21766
876.265	21888
876.393	21987
876.521	22010
876.65	21941
876.778	21930
876.906	21759
877.034	21915
877.162	21899
877.29	21827
877.418	21804
877.546	21876
877.674	21899
877.802	21876
877.93	21808
878.058	21759
878.185	21728
878.313	21804
878.441	21835
878.568	21850
878.696	21701
878.824	21892
878.951	21972
879.079	22169
879.206	22017
879.333	21956
879.461	21865
879.588	21998
879.715	21960
879.842	22128
879.97	21880
880.097	21675
880.224	21747
880.351	21652
880.478	21641
880.605	21713
880.732	21800
880.859	21884
880.986	21724
881.112	21686
881.239	21500
881.366	21466
881.493	21367
881.619	21317
881.746	21287
881.872	21272
881.999	21294
882.125	21112
882.252	21294
882.378	21287
882.505	21401
882.631	21104
882.757	21028
882.883	21013
883.01	20944
883.136	20971
883.262	20819
883.388	20944
883.514	20994
883.64	21032
883.766	20994
883.892	20727
884.018	20849
884.143	21005
884.269	20960
884.395	20701
884.52	20533
884.646	20697
884.772	20579
884.897	20571
885.023	20754
885.148	20746
885.274	20796
885.399	20708
885.524	20522
885.65	20659
885.775	20663
885.9	20708
886.025	20663
886.15	20727
886.275	20617
886.4	20522
886.525	20689
886.65	20617
886.775	20503
886.9	20731
887.025	20853
887.149	20663
887.274	20438
887.399	20339
887.523	20446
887.648	20305
887.773	20252
887.897	20374
888.021	20370
888.146	20271
888.27	20434
888.395	20408
888.519	20434
888.643	20522
888.767	20526
888.891	20244
889.015	20210
889.139	20294
889.263	20206
889.387	20355
889.511	20377
889.635	20305
889.759	20225
889.883	20191
890.006	20229
890.13	20313
890.254	20020
890.377	20176
890.501	20012
890.624	19970
890.748	20039
890.871	19875
890.995	19856
891.118	19651
891.241	19696
891.364	19731
891.488	19959
891.611	19833
891.734	19761
891.857	19856
891.98	19708
892.103	19750
892.226	19814
892.349	19769
892.471	19521
892.594	19597
892.717	19552
892.839	19734
892.962	19708
893.085	19662
893.207	19689
893.33	19594
893.452	19635
893.575	19769
893.697	19712
893.819	19852
893.941	19890
894.064	19875
894.186	19609
894.308	19567
894.43	19868
894.552	19734
894.674	19890
894.796	19685
894.918	19689
895.04	19723
895.161	19776
895.283	19704
895.405	19643
895.526	19750
895.648	19662
895.769	19723
895.891	19704
896.012	19689
896.134	19765
896.255	19666
896.376	19734
896.498	19655
896.619	19761
896.74	19738
896.861	19681
896.982	19997
897.103	20069
897.224	19890
897.345	19868
897.466	19788
897.587	19894
897.708	19997
897.828	20020
897.949	19814
898.07	19841
898.19	19761
898.311	20012
898.431	19909
898.552	19871
898.672	20001
898.792	20001
898.913	19974
899.033	19818
899.153	19712
899.273	19597
899.393	19662
899.513	19658
899.633	19731
899.753	19769
899.873	19590
899.993	19719
900.113	19658
900.232	19559
900.352	19563
900.472	19521
900.591	19369
900.711	19506
900.83	19453
900.95	19590
901.069	19491
901.189	19266
901.308	19183
901.427	19076
901.546	19012
901.665	18970
901.784	19057
901.904	18913
902.023	18837
902.141	18726
902.26	18582
902.379	18673
902.498	18566
902.617	18528
902.735	18559
902.854	18551
902.973	18551
903.091	18228
903.21	18277
903.328	18319
903.446	18087
903.565	18038
903.683	18045
903.801	18019
903.919	18011
904.038	17958
904.156	17828
904.274	17847
904.392	17832
904.51	17786
904.627	17805
904.745	17828
904.863	17847
904.981	17619
905.098	17581
905.216	17520
905.334	17471
905.451	17505
905.569	17330
905.686	17376
905.803	17501
905.921	17231
906.038	17326
906.155	17311
906.272	17189
906.389	17197
906.506	17025
906.623	17067
906.74	16999
906.857	17006
906.974	17045
907.091	17117
907.208	17178
907.324	16999
907.441	16919
907.557	16953
907.674	16759
907.79	16782
907.907	16763
908.023	16809
908.139	16816
908.256	16653
908.372	16691
908.488	16538
908.604	16531
908.72	16409
908.836	16622
908.952	16527
909.068	16459
909.184	16531
909.3	16443
909.415	16478
909.531	16451
909.647	16150
909.762	16196
909.878	16169
909.993	16173
910.108	16071
910.224	16078
910.339	16124
910.454	16071
910.57	15934
910.685	15899
910.8	16238
910.915	16078
911.03	16048
911.145	15816
911.259	15759
911.374	15819
911.489	15743
911.604	15675
911.718	15545
911.833	15511
911.947	15454
912.062	15397
912.176	15496
912.291	15564
912.405	15549
912.519	15686
912.633	15709
912.748	15584
912.862	15496
912.976	15363
913.09	15287
913.204	15340
913.318	15367
913.431	15420
913.545	15496
913.659	15389
913.772	15272
913.886	15169
914	15142
914.113	15199
914.226	15199
914.34	15180
914.453	15043
914.566	15180
914.68	15062
914.793	15009
914.906	14796
915.019	14750
915.132	14746
915.245	14765
915.358	14788
915.47	14758
915.583	14739
915.696	14731
915.809	14804
915.921	14967
916.034	14701
916.146	14701
916.259	14606
916.371	14750
916.483	14796
916.595	14610
916.708	14648
916.82	14610
916.932	14541
917.044	14507
917.156	14560
917.268	14442
917.38	14533
917.491	14446
917.603	14522
917.715	14480
917.826	14598
917.938	14328
918.049	14267
918.161	14366
918.272	14484
918.384	14488
918.495	14400
918.606	14313
918.717	14191
918.828	14214
918.939	14248
919.05	14024
919.161	14157
919.272	13989
919.383	14100
919.494	14206
919.604	14339
919.715	14149
919.826	14107
919.936	14103
920.047	14210
920.157	14084
920.267	14419
920.378	14187
920.488	14031
920.598	14358
920.708	14484
920.818	14286
920.928	14221
921.038	14442
921.148	14355
921.258	14134
921.368	14058
921.477	14001
921.587	13864
921.697	13784
921.806	13887
921.916	13795
922.025	13662
922.134	13620
922.244	13533
922.353	13670
922.462	13445
922.571	13358
922.68	13301
922.789	13122
922.898	13274
923.007	13270
923.116	13285
923.224	13126
923.333	13194
923.442	13129
923.55	13122
923.659	13107
923.767	13076
923.876	13034
923.984	13050
924.092	12882
924.201	12966
924.309	12954
924.417	12932
924.525	12924
924.633	12966
924.741	13898
924.849	12677
924.956	12905
925.064	12734
925.172	12574
925.279	12578
925.387	12719
925.494	12711
925.602	12802
925.709	12711
925.816	12593
925.924	12620
926.031	12688
926.138	12616
926.245	12662
926.352	12490
926.459	12719
926.566	12745
926.673	12551
926.779	12429
926.886	12448
926.993	12334
927.099	12281
927.206	12285
927.312	12232
927.419	12258
927.525	12308
927.631	12270
927.737	12117
927.843	12121
927.95	11988
928.056	12106
928.162	12152
928.267	12148
928.373	12650
928.479	12216
928.585	11935
928.69	12030
928.796	12068
928.901	11980
929.007	11783
929.112	11961
929.218	11927
929.323	11874
929.428	11821
929.533	11897
929.638	11756
929.743	11809
929.848	11893
929.953	11809
930.058	11642
930.163	11433
930.267	11490
930.372	11684
930.477	11539
930.581	11737
930.685	11497
930.79	11459
930.894	11440
930.998	11417
931.103	11501
931.207	11128
931.311	11140
931.415	11029
931.519	10885
931.623	10793
