Data from test_V78500241_1413.txt Node
Date: Fri Mar 25 15:19:41 CST 2022
User: usil
Spectrometer: V785-0024
Trigger mode: 0
Integration Time (sec): 4.000000E-1
Scans to average: 1
Nonlinearity correction enabled: false
Boxcar width: 0
Storing dark spectrum: false
XAxis mode: Wavelengths
Number of Pixels in Spectrum: 1024
>>>>>Begin Spectral Data<<<<<
801.071	28242
801.214	28196
801.356	27926
801.499	27827
801.641	27641
801.783	27724
801.926	27648
802.068	27663
802.211	27625
802.353	27587
802.496	27393
802.638	27466
802.78	27260
802.923	27192
803.065	27317
803.208	27283
803.35	27378
803.492	27462
803.635	27561
803.777	27450
803.919	27595
804.061	27937
804.204	27679
804.346	27656
804.488	27469
804.63	27625
804.773	27530
804.915	27576
805.057	27648
805.199	27416
805.341	27774
805.483	27808
805.626	27663
805.768	27591
805.91	27614
806.052	27648
806.194	27675
806.336	27884
806.478	27755
806.62	27618
806.762	27884
806.904	28101
807.046	28093
807.188	28177
807.33	28036
807.472	28204
807.614	28002
807.756	28112
807.898	27922
808.04	28074
808.182	27998
808.324	28032
808.465	28101
808.607	28363
808.749	28421
808.891	28409
809.033	28500
809.174	28538
809.316	28223
809.458	28287
809.6	28280
809.741	28447
809.883	28447
810.025	28641
810.166	28691
810.308	28645
810.45	28645
810.591	28596
810.733	28432
810.875	28455
811.016	28382
811.158	28261
811.299	28421
811.441	28675
811.582	28577
811.724	28398
811.865	28447
812.007	28360
812.148	28413
812.29	28398
812.431	28565
812.573	28824
812.714	28881
812.855	29044
812.997	28972
813.138	29174
813.279	28987
813.421	28980
813.562	28942
813.703	28801
813.845	28713
813.986	28337
814.127	28204
814.268	28249
814.41	28097
814.551	28002
814.692	28192
814.833	27964
814.974	28002
815.115	28128
815.256	28074
815.397	28029
815.539	28025
815.68	27930
815.821	27922
815.962	27956
816.103	27918
816.244	27724
816.385	27720
816.526	27629
816.666	27519
816.807	27538
816.948	27549
817.089	27660
817.23	27435
817.371	27447
817.512	27397
817.653	27378
817.793	27367
817.934	27458
818.075	27416
818.216	27359
818.356	27435
818.497	27393
818.638	27051
818.778	27096
818.919	27317
819.06	27256
819.2	27329
819.341	27336
819.481	27408
819.622	27431
819.762	27770
819.903	27774
820.043	27561
820.184	27500
820.324	27492
820.465	27682
820.605	27488
820.746	27606
820.886	27363
821.026	27526
821.167	27427
821.307	27469
821.447	27496
821.588	27340
821.728	27233
821.868	26933
822.008	26902
822.149	26826
822.289	26819
822.429	26754
822.569	26568
822.709	26526
822.849	26366
822.99	26389
823.13	26221
823.27	26294
823.41	26119
823.55	26058
823.69	26115
823.83	26263
823.97	26058
824.11	25989
824.25	25864
824.389	25917
824.529	26202
824.669	26096
824.809	26107
824.949	26282
825.089	26206
825.228	25978
825.368	25780
825.508	25951
825.648	26027
825.787	25932
825.927	25974
826.067	25932
826.206	25902
826.346	26161
826.485	26024
826.625	25894
826.765	26084
826.904	25913
827.044	25822
827.183	25753
827.323	25605
827.462	25677
827.601	25594
827.741	25586
827.88	25655
828.02	25571
828.159	25677
828.298	25647
828.437	25791
828.577	25533
828.716	25681
828.855	25479
828.994	25327
829.134	25213
829.273	25449
829.412	25346
829.551	25324
829.69	25278
829.829	25320
829.968	25476
830.107	25255
830.246	25335
830.385	25266
830.524	25285
830.663	25145
830.802	25088
830.941	25034
831.08	24943
831.219	24901
831.357	25091
831.496	25145
831.635	24901
831.774	24966
831.913	24814
832.051	24837
832.19	24802
832.329	24745
832.467	24547
832.606	24703
832.744	24623
832.883	24582
833.022	24661
833.16	24578
833.299	24616
833.437	24574
833.576	24692
833.714	24661
833.852	24608
833.991	24760
834.129	24616
834.267	24734
834.406	24749
834.544	24623
834.682	24677
834.821	24589
834.959	24844
835.097	24661
835.235	24665
835.373	24559
835.511	24738
835.65	24525
835.788	24544
835.926	24422
836.064	24376
836.202	24365
836.34	24483
836.478	24574
836.615	24521
836.753	24540
836.891	24517
837.029	24616
837.167	24456
837.305	24509
837.443	24334
837.58	24155
837.718	24467
837.856	24384
837.993	24213
838.131	24330
838.269	24213
838.406	24308
838.544	24163
838.681	24114
838.819	24011
838.956	23950
839.094	23817
839.231	23851
839.369	23832
839.506	24239
839.643	24053
839.781	23813
839.918	23707
840.055	23821
840.193	23863
840.33	23786
840.467	23668
840.604	23775
840.742	23935
840.879	23547
841.016	23665
841.153	23627
841.29	23794
841.427	23809
841.564	23748
841.701	23756
841.838	23562
841.975	23558
842.112	23604
842.249	23414
842.385	23429
842.522	23707
842.659	23452
842.796	23395
842.933	23398
843.069	23356
843.206	23478
843.343	23531
843.479	23524
843.616	23353
843.752	23254
843.889	23315
844.025	23444
844.162	23265
844.298	23326
844.435	23174
844.571	23288
844.708	23322
844.844	23341
844.98	23334
845.117	23372
845.253	23212
845.389	23170
845.525	23143
845.661	22995
845.798	22953
845.934	22942
846.07	22949
846.206	22930
846.342	22984
846.478	22862
846.614	22729
846.75	22599
846.886	22675
847.022	22828
847.158	22694
847.294	22664
847.429	22653
847.565	22611
847.701	22968
847.837	22386
847.972	22318
848.108	22561
848.244	22561
848.379	22375
848.515	22333
848.65	22287
848.786	22325
848.921	22284
849.057	22268
849.192	22344
849.328	22303
849.463	22230
849.598	22318
849.734	22238
849.869	22226
850.004	22078
850.14	22093
850.275	22032
850.41	21831
850.545	21857
850.68	22112
850.815	22025
850.95	22070
851.085	22249
851.22	22173
851.355	21994
851.49	21994
851.625	21937
851.76	22086
851.895	21956
852.03	22002
852.165	22025
852.299	22010
852.434	22234
852.569	22070
852.703	22055
852.838	22078
852.973	22188
853.107	22162
853.242	21987
853.376	21850
853.511	21747
853.645	21835
853.78	21998
853.914	21968
854.048	21785
854.183	21766
854.317	21949
854.451	21960
854.585	21911
854.72	21857
854.854	21983
854.988	21880
855.122	21846
855.256	21644
855.39	21831
855.524	21983
855.658	21922
855.792	21827
855.926	21937
856.06	21827
856.194	21930
856.327	21755
856.461	21819
856.595	21861
856.729	21842
856.862	22010
856.996	21873
857.13	21888
857.263	22029
857.397	21941
857.53	21755
857.664	21808
857.797	21979
857.931	21918
858.064	21819
858.197	22013
858.331	21804
858.464	21713
858.597	21663
858.731	21812
858.864	21778
858.997	21793
859.13	21899
859.263	21793
859.396	21964
859.529	21869
859.662	21785
859.795	21656
859.928	21751
860.061	21861
860.194	22158
860.327	21918
860.46	21903
860.592	21922
860.725	22055
860.858	21964
860.99	21869
861.123	21739
861.256	21918
861.388	21785
861.521	22447
861.653	21686
861.786	21614
861.918	21622
862.05	21652
862.183	21831
862.315	21709
862.447	21869
862.58	21781
862.712	21580
862.844	21515
862.976	21671
863.108	21652
863.24	21823
863.372	21466
863.504	21496
863.636	21553
863.768	21622
863.9	21610
864.032	21545
864.164	21504
864.296	21439
864.428	21610
864.559	21629
864.691	21633
864.823	21496
864.954	21583
865.086	21485
865.217	21431
865.349	21412
865.48	21412
865.612	21519
865.743	21686
865.875	21469
866.006	21530
866.137	21488
866.269	21386
866.4	21466
866.531	21287
866.662	21389
866.793	21408
866.924	21405
867.055	21332
867.186	21431
867.317	21332
867.448	21245
867.579	21325
867.71	21329
867.841	21245
867.972	21363
868.103	21351
868.233	21344
868.364	21367
868.495	21435
868.625	21599
868.756	21686
868.886	21515
869.017	21572
869.147	21736
869.278	21774
869.408	21679
869.539	21564
869.669	21618
869.799	21694
869.929	21762
870.06	21701
870.19	21972
870.32	21854
870.45	22006
870.58	21987
870.71	22093
870.84	22067
870.97	21972
871.1	22059
871.23	22200
871.36	22169
871.489	22021
871.619	21991
871.749	22162
871.879	22253
872.008	22386
872.138	22078
872.267	22238
872.397	22044
872.526	22017
872.656	22090
872.785	22128
872.915	22234
873.044	22287
873.173	22219
873.303	22253
873.432	22219
873.561	22299
873.69	22177
873.819	22207
873.948	22261
874.077	22192
874.206	22150
874.335	22223
874.464	22337
874.593	22379
874.722	22417
874.851	22360
874.979	22413
875.108	22565
875.237	22447
875.365	22303
875.494	22398
875.623	22443
875.751	22440
875.88	22466
876.008	22584
876.136	22687
876.265	22881
876.393	22904
876.521	22911
876.65	22782
876.778	22911
876.906	22820
877.034	22820
877.162	22786
877.29	22721
877.418	22854
877.546	22771
877.674	22797
877.802	22790
877.93	22831
878.058	22733
878.185	22759
878.313	22767
878.441	22744
878.568	22580
878.696	22755
878.824	22850
878.951	22877
879.079	22869
879.206	23086
879.333	22949
879.461	22820
879.588	22847
879.715	22908
879.842	23067
879.97	22790
880.097	22679
880.224	22550
880.351	22656
880.478	22516
880.605	22474
880.732	22481
880.859	22831
880.986	22500
881.112	22462
881.239	22379
881.366	22318
881.493	22192
881.619	22162
881.746	22147
881.872	22207
881.999	22105
882.125	22112
882.252	22261
882.378	22074
882.505	22223
882.631	22192
882.757	21888
882.883	21991
883.01	21838
883.136	21774
883.262	21778
883.388	21644
883.514	21854
883.64	21846
883.766	21785
883.892	21561
884.018	21648
884.143	21781
884.269	21785
884.395	21561
884.52	21428
884.646	21488
884.772	21496
884.897	21408
885.023	21447
885.148	21610
885.274	21709
885.399	21549
885.524	21526
885.65	21488
885.775	21504
885.9	21450
886.025	21564
886.15	21549
886.275	21435
886.4	21378
886.525	21466
886.65	21416
886.775	21496
886.9	21660
887.025	21637
887.149	21526
887.274	21370
887.399	21188
887.523	21264
887.648	21256
887.773	21093
887.897	21302
888.021	21374
888.146	21142
888.27	21272
888.395	21363
888.519	21233
888.643	21188
888.767	21264
888.891	21214
889.015	21032
889.139	21112
889.263	20967
889.387	21146
889.511	21264
889.635	21173
889.759	21108
889.883	21036
890.006	21062
890.13	21089
890.254	20902
890.377	20948
890.501	20800
890.624	20739
890.748	20845
890.871	20693
890.995	20674
891.118	20640
891.241	20632
891.364	20682
891.488	20629
891.611	20644
891.734	20583
891.857	20678
891.98	20587
892.103	20724
892.226	20571
892.349	20644
892.471	20495
892.594	20571
892.717	20503
892.839	20454
892.962	20495
893.085	20651
893.207	20564
893.33	20400
893.452	20362
893.575	20655
893.697	20389
893.819	20621
893.941	20689
894.064	20689
894.186	20587
894.308	20404
894.43	20530
894.552	20807
894.674	20636
894.796	20427
894.918	20385
895.04	20480
895.161	20697
895.283	20541
895.405	20393
895.526	20393
895.648	20412
895.769	20503
895.891	20495
896.012	20541
896.134	20571
896.255	20499
896.376	20507
896.498	20556
896.619	20648
896.74	20469
896.861	20575
896.982	20826
897.103	21039
897.224	20769
897.345	20712
897.466	20678
897.587	20663
897.708	20861
897.828	20705
897.949	20651
898.07	20511
898.19	20697
898.311	20807
898.431	20606
898.552	20743
898.672	20617
898.792	20758
898.913	20602
899.033	20632
899.153	20507
899.273	20351
899.393	20511
899.513	20457
899.633	20454
899.753	20545
899.873	20309
899.993	20549
900.113	20385
900.232	20431
900.352	20389
900.472	20225
900.591	20164
900.711	20259
900.83	20259
900.95	20347
901.069	20252
901.189	20020
901.308	19830
901.427	19784
901.546	19769
901.665	19860
901.784	19772
901.904	19529
902.023	19521
902.141	19392
902.26	19320
902.379	19468
902.498	19289
902.617	19331
902.735	19225
902.854	19225
902.973	19183
903.091	19015
903.21	18928
903.328	18973
903.446	18829
903.565	18749
903.683	18745
903.801	18658
903.919	18745
904.038	18665
904.156	18582
904.274	18582
904.392	18479
904.51	18456
904.627	18441
904.745	18555
904.863	18525
904.981	18285
905.098	18213
905.216	18216
905.334	18308
905.451	18205
905.569	18171
905.686	18323
905.803	18182
905.921	17931
906.038	18140
906.155	17954
906.272	17847
906.389	17863
906.506	17828
906.623	17760
906.74	17718
906.857	17630
906.974	17615
907.091	17885
907.208	17836
907.324	17752
907.441	17684
907.557	17425
907.674	17558
907.79	17383
907.907	17383
908.023	17448
908.139	17421
908.256	17318
908.372	17341
908.488	17334
908.604	17143
908.72	17220
908.836	17208
908.952	17083
909.068	17223
909.184	17258
909.3	17159
909.415	17212
909.531	17143
909.647	16919
909.762	16923
909.878	16908
909.993	16915
910.108	16698
910.224	16881
910.339	16877
910.454	16702
910.57	16668
910.685	16683
910.8	16980
910.915	16801
911.03	16634
911.145	16516
911.259	16348
911.374	16474
911.489	16478
911.604	16363
911.718	16120
911.833	16154
911.947	16093
912.062	16055
912.176	16097
912.291	16173
912.405	16215
912.519	16287
912.633	16390
912.748	16230
912.862	16048
912.976	15968
913.09	15892
913.204	15854
913.318	16067
913.431	16036
913.545	16147
913.659	16021
913.772	16002
913.886	15934
914	15873
914.113	15895
914.226	15922
914.34	15854
914.453	15736
914.566	15892
914.68	15675
914.793	15648
914.906	15564
915.019	15526
915.132	15351
915.245	15351
915.358	15439
915.47	15416
915.583	15386
915.696	15435
915.809	15492
915.921	15568
916.034	15370
916.146	15336
916.259	15310
916.371	15424
916.483	15344
916.595	15218
916.708	15226
916.82	15268
916.932	15298
917.044	15203
917.156	15173
917.268	15100
917.38	15077
917.491	15001
917.603	15028
917.715	15165
917.826	15154
917.938	14994
918.049	14765
918.161	14990
918.272	15036
918.384	14990
918.495	14979
918.606	14872
918.717	14785
918.828	14785
918.939	14849
919.05	14629
919.161	14785
919.272	14670
919.383	14632
919.494	14868
919.604	14963
919.715	14811
919.826	14705
919.936	14720
920.047	14769
920.157	14796
920.267	14906
920.378	14754
920.488	14724
920.598	14956
920.708	15051
920.818	14845
920.928	14910
921.038	15081
921.148	15005
921.258	14670
921.368	14674
921.477	14530
921.587	14469
921.697	14396
921.806	14423
921.916	14339
922.025	14168
922.134	14149
922.244	14084
922.353	14043
922.462	14039
922.571	14035
922.68	13849
922.789	13715
922.898	13784
923.007	13780
923.116	13826
923.224	13693
923.333	13700
923.442	13613
923.55	13616
923.659	13537
923.767	13643
923.876	13529
923.984	13666
924.092	13518
924.201	13525
924.309	13487
924.417	13483
924.525	13293
924.633	13502
924.741	14145
924.849	13270
924.956	13346
925.064	13122
925.172	13145
925.279	13129
925.387	13164
925.494	13217
925.602	13263
925.709	13217
925.816	12962
925.924	13069
926.031	13187
926.138	13095
926.245	13065
926.352	12909
926.459	13129
926.566	13175
926.673	13027
926.779	12894
926.886	12909
926.993	12757
927.099	12711
927.206	12760
927.312	12681
927.419	12810
927.525	12719
927.631	12757
927.737	12631
927.843	12642
927.95	12551
928.056	12597
928.162	12498
928.267	12570
928.373	13042
928.479	12616
928.585	12365
928.69	12509
928.796	12563
928.901	12471
929.007	12224
929.112	12365
929.218	12365
929.323	12311
929.428	12201
929.533	12376
929.638	12262
929.743	12201
929.848	12342
929.953	12140
930.058	12038
930.163	11935
930.267	11984
930.372	12079
930.477	11973
930.581	12140
930.685	11897
930.79	11805
930.894	11904
930.998	11802
931.103	11901
931.207	11577
931.311	11478
931.415	11486
931.519	11128
931.623	11121
