Data from test_V78500241_2606.txt Node
Date: Fri Mar 25 15:28:00 CST 2022
User: usil
Spectrometer: V785-0024
Trigger mode: 0
Integration Time (sec): 4.000000E-1
Scans to average: 1
Nonlinearity correction enabled: false
Boxcar width: 0
Storing dark spectrum: false
XAxis mode: Wavelengths
Number of Pixels in Spectrum: 1024
>>>>>Begin Spectral Data<<<<<
801.071	27180
801.214	27009
801.356	26838
801.499	26724
801.641	26777
801.783	26678
801.926	26750
802.068	26606
802.211	26568
802.353	26552
802.496	26518
802.638	26313
802.78	26298
802.923	26161
803.065	26142
803.208	26187
803.35	26298
803.492	26377
803.635	26393
803.777	26370
803.919	26530
804.061	26712
804.204	26587
804.346	26328
804.488	26396
804.63	26412
804.773	26400
804.915	26450
805.057	26606
805.199	26370
805.341	26533
805.483	26667
805.626	26670
805.768	26347
805.91	26674
806.052	26617
806.194	26385
806.336	26522
806.478	26488
806.62	26629
806.762	26552
806.904	26811
807.046	27146
807.188	27005
807.33	27017
807.472	27005
807.614	26914
807.756	26975
807.898	26807
808.04	26838
808.182	26735
808.324	26842
808.465	26823
808.607	27096
808.749	27188
808.891	27150
809.033	27302
809.174	27230
809.316	27119
809.458	27112
809.6	27096
809.741	27291
809.883	27370
810.025	27321
810.166	27439
810.308	27359
810.45	27389
810.591	27340
810.733	27268
810.875	27142
811.016	27024
811.158	27081
811.299	27252
811.441	27325
811.582	27344
811.724	27081
811.865	27096
812.007	27100
812.148	27066
812.29	27017
812.431	27359
812.573	27435
812.714	27466
812.855	27652
812.997	27739
813.138	27823
813.279	27770
813.421	27762
813.562	27618
813.703	27363
813.845	27214
813.986	27032
814.127	26750
814.268	26663
814.41	26857
814.551	26811
814.692	26895
814.833	26674
814.974	26785
815.115	26727
815.256	26617
815.397	26758
815.539	26621
815.68	26674
815.821	26613
815.962	26617
816.103	26625
816.244	26396
816.385	26385
816.526	26351
816.666	26176
816.807	26149
816.948	26180
817.089	26168
817.23	26119
817.371	25989
817.512	26096
817.653	26031
817.793	26096
817.934	25909
818.075	26084
818.216	26122
818.356	26100
818.497	26069
818.638	25883
818.778	25822
818.919	25818
819.06	25913
819.2	25822
819.341	26103
819.481	26103
819.622	26111
819.762	26396
819.903	26244
820.043	26191
820.184	26301
820.324	26157
820.465	26298
820.605	26180
820.746	26107
820.886	25951
821.026	26062
821.167	26111
821.307	26142
821.447	26012
821.588	25906
821.728	25898
821.868	25761
822.008	25575
822.149	25457
822.289	25571
822.429	25304
822.569	25160
822.709	25285
822.849	25038
822.99	25042
823.13	24894
823.27	24951
823.41	24890
823.55	24776
823.69	24905
823.83	24867
823.97	24692
824.11	24623
824.25	24703
824.389	24597
824.529	24734
824.669	24715
824.809	24821
824.949	24722
825.089	24681
825.228	24661
825.368	24517
825.508	24418
825.648	24604
825.787	24578
825.927	24684
826.067	24509
826.206	24540
826.346	24589
826.485	24578
826.625	24471
826.765	24658
826.904	24604
827.044	24380
827.183	24247
827.323	24167
827.462	24266
827.601	24194
827.741	24304
827.88	24228
828.02	24095
828.159	24194
828.298	24342
828.437	24239
828.577	24216
828.716	24251
828.855	24129
828.994	23912
829.134	23980
829.273	23965
829.412	24079
829.551	23931
829.69	23961
829.829	23992
829.968	24076
830.107	23973
830.246	23897
830.385	23889
830.524	23882
830.663	23767
830.802	23733
830.941	23577
831.08	23547
831.219	23634
831.357	23722
831.496	23805
831.635	23581
831.774	23417
831.913	23406
832.051	23440
832.19	23349
832.329	23406
832.467	23292
832.606	23113
832.744	23284
832.883	23341
833.022	23250
833.16	23284
833.299	23322
833.437	23261
833.576	23299
833.714	23292
833.852	23360
833.991	23269
834.129	23459
834.267	23356
834.406	23315
834.544	23387
834.682	23334
834.821	23406
834.959	23482
835.097	23292
835.235	23391
835.373	23376
835.511	23341
835.65	23273
835.788	23334
835.926	23025
836.064	23025
836.202	23056
836.34	23239
836.478	23128
836.615	23197
836.753	23345
836.891	23337
837.029	23174
837.167	23178
837.305	23090
837.443	23113
837.58	22900
837.718	23041
837.856	23086
837.993	23018
838.131	23033
838.269	22896
838.406	23022
838.544	22828
838.681	22637
838.819	22721
838.956	22546
839.094	22402
839.231	22577
839.369	22561
839.506	22900
839.643	22729
839.781	22493
839.918	22466
840.055	22538
840.193	22493
840.33	22303
840.467	22474
840.604	22516
840.742	22748
840.879	22466
841.016	22284
841.153	22295
841.29	22462
841.427	22360
841.564	22455
841.701	22500
841.838	22386
841.975	22329
842.112	22356
842.249	22268
842.385	22253
842.522	22424
842.659	22226
842.796	22226
842.933	22158
843.069	22204
843.206	22048
843.343	22280
843.479	21983
843.616	22169
843.752	21945
843.889	22040
844.025	22078
844.162	21956
844.298	22116
844.435	21918
844.571	21968
844.708	22120
844.844	22063
844.98	22048
845.117	22109
845.253	21823
845.389	21861
845.525	21876
845.661	21816
845.798	21656
845.934	21690
846.07	21717
846.206	21660
846.342	21770
846.478	21747
846.614	21473
846.75	21412
846.886	21378
847.022	21553
847.158	21351
847.294	21458
847.429	21473
847.565	21416
847.701	21720
847.837	21252
847.972	21203
848.108	21279
848.244	21272
848.379	21051
848.515	20998
848.65	21051
848.786	21070
848.921	21058
849.057	21192
849.192	21135
849.328	21112
849.463	21017
849.598	20982
849.734	20906
849.869	20826
850.004	20880
850.14	20853
850.275	20891
850.41	20807
850.545	20773
850.68	20735
850.815	20739
850.95	20918
851.085	20998
851.22	20849
851.355	20731
851.49	20853
851.625	20678
851.76	20883
851.895	20705
852.03	20705
852.165	20876
852.299	20876
852.434	20777
852.569	20937
852.703	20716
852.838	20838
852.973	20861
853.107	21024
853.242	20781
853.376	20583
853.511	20533
853.645	20533
853.78	20804
853.914	20484
854.048	20609
854.183	20549
854.317	20651
854.451	20872
854.585	20541
854.72	20587
854.854	20815
854.988	20499
855.122	20571
855.256	20625
855.39	20575
855.524	20625
855.658	20632
855.792	20636
855.926	20632
856.06	20739
856.194	20716
856.327	20617
856.461	20564
856.595	20617
856.729	20606
856.862	20842
856.996	20625
857.13	20575
857.263	20693
857.397	20727
857.53	20667
857.664	20602
857.797	20689
857.931	20765
858.064	20697
858.197	20693
858.331	20663
858.464	20659
858.597	20571
858.731	20636
858.864	20560
858.997	20514
859.13	20571
859.263	20632
859.396	20693
859.529	20617
859.662	20609
859.795	20667
859.928	20575
860.061	20670
860.194	20788
860.327	20705
860.46	20762
860.592	20720
860.725	20731
860.858	20708
860.99	20602
861.123	20450
861.256	20530
861.388	20583
861.521	21359
861.653	20568
861.786	20457
861.918	20328
862.05	20530
862.183	20651
862.315	20613
862.447	20659
862.58	20503
862.712	20415
862.844	20267
862.976	20484
863.108	20389
863.24	20842
863.372	20267
863.504	20347
863.636	20252
863.768	20404
863.9	20381
864.032	20358
864.164	20339
864.296	20347
864.428	20495
864.559	20362
864.691	20377
864.823	20374
864.954	20294
865.086	20347
865.217	20275
865.349	20301
865.48	20206
865.612	20313
865.743	20393
865.875	20309
866.006	20115
866.137	20244
866.269	20256
866.4	20286
866.531	20138
866.662	20240
866.793	20210
866.924	20191
867.055	20282
867.186	20221
867.317	20161
867.448	20210
867.579	20153
867.71	20119
867.841	20054
867.972	20237
868.103	20111
868.233	20202
868.364	20229
868.495	20248
868.625	20495
868.756	20484
868.886	20396
869.017	20324
869.147	20552
869.278	20503
869.408	20374
869.539	20465
869.669	20552
869.799	20575
869.929	20594
870.06	20575
870.19	20773
870.32	20712
870.45	20811
870.58	20811
870.71	20948
870.84	20952
870.97	20910
871.1	20830
871.23	21013
871.36	21055
871.489	21058
871.619	21043
871.749	21127
871.879	21173
872.008	21245
872.138	21131
872.267	21119
872.397	21055
872.526	20902
872.656	20861
872.785	20891
872.915	20994
873.044	21150
873.173	21119
873.303	21142
873.432	21260
873.561	21146
873.69	21184
873.819	21108
873.948	21116
874.077	21131
874.206	21043
874.335	21184
874.464	21203
874.593	21287
874.722	21294
874.851	21382
874.979	21401
875.108	21359
875.237	21218
875.365	21157
875.494	21321
875.623	21359
875.751	21351
875.88	21367
876.008	21469
876.136	21477
876.265	21732
876.393	21911
876.521	21846
876.65	21675
876.778	21675
876.906	21614
877.034	21694
877.162	21583
877.29	21641
877.418	21648
877.546	21652
877.674	21671
877.802	21743
877.93	21614
878.058	21660
878.185	21603
878.313	21679
878.441	21736
878.568	21542
878.696	21633
878.824	21663
878.951	21705
879.079	21907
879.206	21968
879.333	21686
879.461	21743
879.588	21816
879.715	21861
879.842	21895
879.97	21656
880.097	21477
880.224	21591
880.351	21416
880.478	21504
880.605	21549
880.732	21466
880.859	21682
880.986	21530
881.112	21530
881.239	21317
881.366	21142
881.493	21074
881.619	21066
881.746	21138
881.872	21093
881.999	20967
882.125	20986
882.252	21077
882.378	21013
882.505	21161
882.631	20842
882.757	20910
882.883	20990
883.01	20727
883.136	20727
883.262	20727
883.388	20682
883.514	20754
883.64	20906
883.766	20746
883.892	20533
884.018	20667
884.143	20788
884.269	20819
884.395	20575
884.52	20355
884.646	20461
884.772	20537
884.897	20427
885.023	20495
885.148	20476
885.274	20492
885.399	20533
885.524	20484
885.65	20362
885.775	20427
885.9	20431
886.025	20552
886.15	20469
886.275	20320
886.4	20271
886.525	20442
886.65	20229
886.775	20347
886.9	20644
887.025	20659
887.149	20434
887.274	20320
887.399	20240
887.523	20202
887.648	20202
887.773	20218
887.897	20332
888.021	20248
888.146	20214
888.27	20282
888.395	20362
888.519	20252
888.643	20240
888.767	20218
888.891	20176
889.015	20001
889.139	20138
889.263	20012
889.387	20111
889.511	20187
889.635	20096
889.759	20024
889.883	20031
890.006	20069
890.13	20103
890.254	19978
890.377	19856
890.501	19780
890.624	19811
890.748	19890
890.871	19685
890.995	19590
891.118	19559
891.241	19594
891.364	19647
891.488	19655
891.611	19594
891.734	19658
891.857	19696
891.98	19613
892.103	19765
892.226	19635
892.349	19597
892.471	19331
892.594	19578
892.717	19594
892.839	19540
892.962	19533
893.085	19635
893.207	19445
893.33	19487
893.452	19301
893.575	19677
893.697	19533
893.819	19590
893.941	19738
894.064	19666
894.186	19499
894.308	19586
894.43	19597
894.552	19742
894.674	19677
894.796	19533
894.918	19491
895.04	19495
895.161	19457
895.283	19567
895.405	19502
895.526	19441
895.648	19438
895.769	19601
895.891	19635
896.012	19613
896.134	19601
896.255	19594
896.376	19502
896.498	19499
896.619	19567
896.74	19487
896.861	19655
896.982	19860
897.103	20084
897.224	19776
897.345	19795
897.466	19658
897.587	19753
897.708	19837
897.828	19772
897.949	19590
898.07	19658
898.19	19689
898.311	19814
898.431	19658
898.552	19757
898.672	19753
898.792	19856
898.913	19613
899.033	19795
899.153	19597
899.273	19419
899.393	19495
899.513	19529
899.633	19518
899.753	19548
899.873	19544
899.993	19525
900.113	19419
900.232	19415
900.352	19487
900.472	19362
900.591	19278
900.711	19282
900.83	19244
900.95	19377
901.069	19422
901.189	19118
901.308	18859
901.427	18901
901.546	18848
901.665	18856
901.784	18935
901.904	18730
902.023	18665
902.141	18547
902.26	18437
902.379	18464
902.498	18365
902.617	18471
902.735	18494
902.854	18426
902.973	18346
903.091	18136
903.21	18102
903.328	18182
903.446	17927
903.565	17901
903.683	18053
903.801	17737
903.919	17882
904.038	17771
904.156	17783
904.274	17733
904.392	17668
904.51	17551
904.627	17634
904.745	17657
904.863	17665
904.981	17490
905.098	17318
905.216	17303
905.334	17463
905.451	17341
905.569	17246
905.686	17425
905.803	17200
905.921	17155
906.038	17227
906.155	17105
906.272	17056
906.389	17121
906.506	16919
906.623	16927
906.74	16847
906.857	16767
906.974	16847
907.091	16911
907.208	17067
907.324	16953
907.441	16752
907.557	16611
907.674	16588
907.79	16508
907.907	16630
908.023	16607
908.139	16592
908.256	16508
908.372	16474
908.488	16451
908.604	16242
908.72	16242
908.836	16462
908.952	16352
909.068	16363
909.184	16367
909.3	16382
909.415	16386
909.531	16295
909.647	16097
909.762	16192
909.878	16032
909.993	16059
910.108	16040
910.224	16055
910.339	15983
910.454	15915
910.57	15846
910.685	15690
910.8	16120
910.915	16063
911.03	15918
911.145	15633
911.259	15576
911.374	15629
911.489	15663
911.604	15519
911.718	15435
911.833	15439
911.947	15378
912.062	15447
912.176	15443
912.291	15629
912.405	15374
912.519	15633
912.633	15587
912.748	15389
912.862	15393
912.976	15317
913.09	15138
913.204	15218
913.318	15260
913.431	15363
913.545	15374
913.659	15291
913.772	15161
913.886	15051
914	15024
914.113	15169
914.226	15150
914.34	15081
914.453	14899
914.566	15047
914.68	15047
914.793	14861
914.906	14632
915.019	14670
915.132	14560
915.245	14625
915.358	14705
915.47	14693
915.583	14651
915.696	14659
915.809	14807
915.921	14731
916.034	14530
916.146	14469
916.259	14541
916.371	14594
916.483	14613
916.595	14404
916.708	14537
916.82	14484
916.932	14385
917.044	14568
917.156	14442
917.268	14286
917.38	14381
917.491	14301
917.603	14256
917.715	14336
917.826	14358
917.938	14267
918.049	14046
918.161	14286
918.272	14412
918.384	14389
918.495	14313
918.606	14164
918.717	14016
918.828	14058
918.939	14096
919.05	14020
919.161	14096
919.272	13852
919.383	13967
919.494	14107
919.604	14240
919.715	14046
919.826	14054
919.936	14043
920.047	14153
920.157	14134
920.267	14172
920.378	14069
920.488	13993
920.598	14210
920.708	14362
920.818	14138
920.928	14259
921.038	14377
921.148	14385
921.258	14024
921.368	13951
921.477	13795
921.587	13791
921.697	13685
921.806	13807
921.916	13636
922.025	13540
922.134	13544
922.244	13373
922.353	13464
922.462	13403
922.571	13316
922.68	13179
922.789	13190
922.898	13076
923.007	12981
923.116	13209
923.224	13107
923.333	13027
923.442	13019
923.55	12989
923.659	12962
923.767	12947
923.876	12848
923.984	12916
924.092	12783
924.201	12871
924.309	12814
924.417	12916
924.525	12734
924.633	12848
924.741	13685
924.849	12563
924.956	12734
925.064	12536
925.172	12464
925.279	12547
925.387	12616
925.494	12525
925.602	12608
925.709	12620
925.816	12403
925.924	12391
926.031	12589
926.138	12570
926.245	12601
926.352	12414
926.459	12452
926.566	12631
926.673	12418
926.779	12380
926.886	12304
926.993	12083
927.099	12083
927.206	12125
927.312	12064
927.419	12197
927.525	12140
927.631	12129
927.737	12064
927.843	11969
927.95	11889
928.056	11874
928.162	12011
928.267	12045
928.373	12471
928.479	12019
928.585	11779
928.69	11882
928.796	11878
928.901	11824
929.007	11649
929.112	11878
929.218	11802
929.323	11722
929.428	11646
929.533	11802
929.638	11623
929.743	11699
929.848	11638
929.953	11646
930.058	11558
930.163	11395
930.267	11478
930.372	11436
930.477	11387
930.581	11592
930.685	11474
930.79	11292
930.894	11307
930.998	11231
931.103	11402
931.207	11075
931.311	10904
931.415	10847
931.519	10729
931.623	10668
