Data from test_V78500241_2868.txt Node
Date: Fri Mar 25 15:29:49 CST 2022
User: usil
Spectrometer: V785-0024
Trigger mode: 0
Integration Time (sec): 4.000000E-1
Scans to average: 1
Nonlinearity correction enabled: false
Boxcar width: 0
Storing dark spectrum: false
XAxis mode: Wavelengths
Number of Pixels in Spectrum: 1024
>>>>>Begin Spectral Data<<<<<
801.071	27260
801.214	27176
801.356	26948
801.499	26914
801.641	26731
801.783	26800
801.926	26773
802.068	26682
802.211	26606
802.353	26537
802.496	26259
802.638	26374
802.78	26286
802.923	26298
803.065	26301
803.208	26278
803.35	26271
803.492	26556
803.635	26613
803.777	26393
803.919	26495
804.061	26891
804.204	26560
804.346	26507
804.488	26434
804.63	26636
804.773	26309
804.915	26518
805.057	26648
805.199	26461
805.341	26530
805.483	26552
805.626	26598
805.768	26469
805.91	26598
806.052	26606
806.194	26564
806.336	26705
806.478	26629
806.62	26609
806.762	26670
806.904	26864
807.046	27135
807.188	27096
807.33	27024
807.472	27173
807.614	26963
807.756	26998
807.898	26796
808.04	26811
808.182	26743
808.324	26963
808.465	26971
808.607	26982
808.749	27184
808.891	27260
809.033	27363
809.174	27386
809.316	27169
809.458	27211
809.6	27138
809.741	27313
809.883	27397
810.025	27485
810.166	27496
810.308	27450
810.45	27344
810.591	27462
810.733	27214
810.875	27287
811.016	27207
811.158	27192
811.299	27439
811.441	27348
811.582	27443
811.724	27218
811.865	27081
812.007	27131
812.148	27211
812.29	27264
812.431	27287
812.573	27447
812.714	27595
812.855	27705
812.997	27797
813.138	27819
813.279	27888
813.421	27705
813.562	27618
813.703	27367
813.845	27397
813.986	27252
814.127	26990
814.268	26792
814.41	27047
814.551	26899
814.692	27009
814.833	26849
814.974	26918
815.115	26826
815.256	26693
815.397	26705
815.539	26727
815.68	26655
815.821	26705
815.962	26640
816.103	26575
816.244	26446
816.385	26377
816.526	26408
816.666	26301
816.807	26168
816.948	26161
817.089	26218
817.23	26119
817.371	26012
817.512	26088
817.653	26130
817.793	25982
817.934	26103
818.075	26149
818.216	26115
818.356	26145
818.497	26027
818.638	25849
818.778	25997
818.919	25852
819.06	25909
819.2	26081
819.341	26126
819.481	26073
819.622	26263
819.762	26480
819.903	26324
820.043	26221
820.184	26172
820.324	26301
820.465	26195
820.605	26313
820.746	26218
820.886	25963
821.026	26164
821.167	26046
821.307	26286
821.447	26119
821.588	25963
821.728	25917
821.868	25693
822.008	25639
822.149	25609
822.289	25563
822.429	25259
822.569	25320
822.709	25099
822.849	25110
822.99	25080
823.13	25160
823.27	25057
823.41	24878
823.55	24791
823.69	24882
823.83	24920
823.97	24875
824.11	24719
824.25	24646
824.389	24745
824.529	24913
824.669	24692
824.809	24852
824.949	24741
825.089	24878
825.228	24753
825.368	24589
825.508	24490
825.648	24540
825.787	24700
825.927	24623
826.067	24566
826.206	24547
826.346	24639
826.485	24654
826.625	24509
826.765	24764
826.904	24441
827.044	24403
827.183	24285
827.323	24273
827.462	24361
827.601	24395
827.741	24129
827.88	24361
828.02	24129
828.159	24323
828.298	24262
828.437	24369
828.577	24213
828.716	24262
828.855	24148
828.994	23984
829.134	23939
829.273	23946
829.412	24015
829.551	23893
829.69	23999
829.829	23927
829.968	24022
830.107	24076
830.246	24007
830.385	23973
830.524	23950
830.663	23855
830.802	23722
830.941	23554
831.08	23482
831.219	23722
831.357	23615
831.496	23710
831.635	23577
831.774	23531
831.913	23551
832.051	23440
832.19	23250
832.329	23212
832.467	23261
832.606	23159
832.744	23151
832.883	23231
833.022	23159
833.16	23353
833.299	23216
833.437	23292
833.576	23349
833.714	23269
833.852	23391
833.991	23395
834.129	23577
834.267	23459
834.406	23239
834.544	23337
834.682	23292
834.821	23284
834.959	23528
835.097	23307
835.235	23334
835.373	23261
835.511	23189
835.65	23220
835.788	23292
835.926	23014
836.064	22919
836.202	23060
836.34	23147
836.478	23303
836.615	23147
836.753	23098
836.891	23181
837.029	23170
837.167	23064
837.305	23018
837.443	23071
837.58	23022
837.718	22934
837.856	22938
837.993	22881
838.131	22847
838.269	22919
838.406	22923
838.544	22854
838.681	22592
838.819	22679
838.956	22580
839.094	22561
839.231	22519
839.369	22664
839.506	22816
839.643	22675
839.781	22489
839.918	22402
840.055	22424
840.193	22443
840.33	22417
840.467	22462
840.604	22489
840.742	22645
840.879	22249
841.016	22360
841.153	22223
841.29	22443
841.427	22382
841.564	22474
841.701	22352
841.838	22219
841.975	22325
842.112	22230
842.249	22272
842.385	22257
842.522	22447
842.659	22074
842.796	21937
842.933	22105
843.069	22036
843.206	22120
843.343	22211
843.479	22131
843.616	22124
843.752	21994
843.889	22010
844.025	22025
844.162	21861
844.298	21956
844.435	21907
844.571	21873
844.708	21934
844.844	22017
844.98	22131
845.117	21975
845.253	21819
845.389	21667
845.525	21759
845.661	21709
845.798	21603
845.934	21751
846.07	21675
846.206	21622
846.342	21701
846.478	21564
846.614	21408
846.75	21386
846.886	21393
847.022	21317
847.158	21367
847.294	21340
847.429	21393
847.565	21321
847.701	21633
847.837	21077
847.972	21093
848.108	21142
848.244	21173
848.379	20982
848.515	20979
848.65	20902
848.786	21066
848.921	20963
849.057	21051
849.192	21066
849.328	20902
849.463	20876
849.598	20937
849.734	20948
849.869	20838
850.004	20678
850.14	20712
850.275	20830
850.41	20705
850.545	20686
850.68	20746
850.815	20682
850.95	20667
851.085	20971
851.22	20921
851.355	20727
851.49	20743
851.625	20769
851.76	20712
851.895	20727
852.03	20545
852.165	20785
852.299	20811
852.434	20838
852.569	20857
852.703	20606
852.838	20731
852.973	20868
853.107	20842
853.242	20720
853.376	20511
853.511	20480
853.645	20571
853.78	20727
853.914	20670
854.048	20537
854.183	20484
854.317	20674
854.451	20781
854.585	20575
854.72	20541
854.854	20629
854.988	20385
855.122	20434
855.256	20427
855.39	20651
855.524	20644
855.658	20720
855.792	20571
855.926	20625
856.06	20632
856.194	20689
856.327	20518
856.461	20598
856.595	20537
856.729	20522
856.862	20632
856.996	20552
857.13	20697
857.263	20731
857.397	20762
857.53	20545
857.664	20621
857.797	20640
857.931	20655
858.064	20579
858.197	20659
858.331	20442
858.464	20590
858.597	20522
858.731	20583
858.864	20549
858.997	20507
859.13	20640
859.263	20625
859.396	20625
859.529	20469
859.662	20412
859.795	20514
859.928	20549
860.061	20823
860.194	20667
860.327	20587
860.46	20564
860.592	20598
860.725	20800
860.858	20663
860.99	20621
861.123	20484
861.256	20514
861.388	20552
861.521	21298
861.653	20408
861.786	20294
861.918	20362
862.05	20450
862.183	20492
862.315	20514
862.447	20492
862.58	20454
862.712	20290
862.844	20202
862.976	20431
863.108	20248
863.24	20712
863.372	20240
863.504	20252
863.636	20415
863.768	20233
863.9	20278
864.032	20119
864.164	20164
864.296	20195
864.428	20385
864.559	20309
864.691	20393
864.823	20240
864.954	20145
865.086	20225
865.217	20206
865.349	20092
865.48	20229
865.612	20153
865.743	20256
865.875	20149
866.006	20183
866.137	20145
866.269	20218
866.4	20282
866.531	20046
866.662	20069
866.793	20103
866.924	20153
867.055	20145
867.186	20092
867.317	20115
867.448	20073
867.579	20035
867.71	20046
867.841	20043
867.972	20107
868.103	20092
868.233	20069
868.364	20195
868.495	20161
868.625	20176
868.756	20370
868.886	20259
869.017	20183
869.147	20495
869.278	20396
869.408	20294
869.539	20362
869.669	20385
869.799	20484
869.929	20473
870.06	20434
870.19	20746
870.32	20682
870.45	20686
870.58	20754
870.71	20804
870.84	20857
870.97	20727
871.1	20686
871.23	21104
871.36	20986
871.489	20834
871.619	20998
871.749	21020
871.879	20979
872.008	21176
872.138	20929
872.267	20952
872.397	20845
872.526	20735
872.656	20773
872.785	20781
872.915	20960
873.044	21043
873.173	21173
873.303	21066
873.432	21047
873.561	21066
873.69	20956
873.819	20986
873.948	20975
874.077	20933
874.206	20899
874.335	20914
874.464	21089
874.593	21272
874.722	21184
874.851	21340
874.979	21329
875.108	21260
875.237	21237
875.365	21161
875.494	21195
875.623	21237
875.751	21188
875.88	21302
876.008	21382
876.136	21526
876.265	21686
876.393	21656
876.521	21743
876.65	21751
876.778	21583
876.906	21576
877.034	21530
877.162	21694
877.29	21504
877.418	21595
877.546	21572
877.674	21637
877.802	21549
877.93	21572
878.058	21485
878.185	21496
878.313	21656
878.441	21561
878.568	21458
878.696	21561
878.824	21641
878.951	21618
879.079	21720
879.206	21785
879.333	21694
879.461	21557
879.588	21644
879.715	21732
879.842	21816
879.97	21652
880.097	21428
880.224	21462
880.351	21473
880.478	21458
880.605	21424
880.732	21351
880.859	21633
880.986	21435
881.112	21420
881.239	21355
881.366	21135
881.493	21051
881.619	20883
881.746	20921
881.872	21089
881.999	20998
882.125	20918
882.252	21058
882.378	20826
882.505	21024
882.631	20933
882.757	20773
882.883	20667
883.01	20636
883.136	20640
883.262	20617
883.388	20594
883.514	20796
883.64	20609
883.766	20609
883.892	20552
884.018	20488
884.143	20602
884.269	20674
884.395	20381
884.52	20267
884.646	20336
884.772	20298
884.897	20252
885.023	20294
885.148	20465
885.274	20473
885.399	20438
885.524	20415
885.65	20309
885.775	20362
885.9	20332
886.025	20579
886.15	20294
886.275	20412
886.4	20263
886.525	20252
886.65	20317
886.775	20282
886.9	20560
887.025	20499
887.149	20263
887.274	20172
887.399	20088
887.523	20161
887.648	20065
887.773	20008
887.897	20237
888.021	20107
888.146	20008
888.27	20218
888.395	20210
888.519	20134
888.643	20100
888.767	20252
888.891	20027
889.015	19959
889.139	19944
889.263	19807
889.387	20039
889.511	20145
889.635	20062
889.759	19940
889.883	19932
890.006	19947
890.13	19989
890.254	19811
890.377	19875
890.501	19712
890.624	19704
890.748	19765
890.871	19601
890.995	19407
891.118	19495
891.241	19480
891.364	19620
891.488	19548
891.611	19506
891.734	19506
891.857	19575
891.98	19506
892.103	19597
892.226	19426
892.349	19441
892.471	19400
892.594	19548
892.717	19453
892.839	19449
892.962	19407
893.085	19502
893.207	19422
893.33	19213
893.452	19422
893.575	19476
893.697	19453
893.819	19582
893.941	19594
894.064	19480
894.186	19369
894.308	19445
894.43	19464
894.552	19540
894.674	19620
894.796	19266
894.918	19453
895.04	19358
895.161	19495
895.283	19521
895.405	19331
895.526	19457
895.648	19460
895.769	19514
895.891	19438
896.012	19525
896.134	19491
896.255	19514
896.376	19388
896.498	19521
896.619	19609
896.74	19483
896.861	19510
896.982	19822
897.103	19936
897.224	19753
897.345	19651
897.466	19590
897.587	19708
897.708	19871
897.828	19639
897.949	19693
898.07	19639
898.19	19700
898.311	19727
898.431	19753
898.552	19704
898.672	19795
898.792	19833
898.913	19700
899.033	19670
899.153	19586
899.273	19388
899.393	19487
899.513	19438
899.633	19487
899.753	19434
899.873	19495
899.993	19533
900.113	19392
900.232	19468
900.352	19476
900.472	19415
900.591	19278
900.711	19289
900.83	19354
900.95	19483
901.069	19343
901.189	19141
901.308	19023
901.427	18829
901.546	18825
901.665	18947
901.784	18806
901.904	18753
902.023	18681
902.141	18437
902.26	18403
902.379	18460
902.498	18498
902.617	18418
902.735	18380
902.854	18300
902.973	18323
903.091	18106
903.21	18068
903.328	18209
903.446	18015
903.565	17870
903.683	17775
903.801	17771
903.919	17920
904.038	17882
904.156	17646
904.274	17802
904.392	17623
904.51	17642
904.627	17573
904.745	17611
904.863	17661
904.981	17501
905.098	17364
905.216	17345
905.334	17334
905.451	17326
905.569	17277
905.686	17318
905.803	17311
905.921	17189
906.038	17220
906.155	17109
906.272	16946
906.389	17052
906.506	16896
906.623	16835
906.74	16824
906.857	16717
906.974	16706
907.091	16889
907.208	16862
907.324	16934
907.441	16687
907.557	16580
907.674	16611
907.79	16504
907.907	16565
908.023	16630
908.139	16519
908.256	16554
908.372	16451
908.488	16413
908.604	16375
908.72	16211
908.836	16261
908.952	16291
909.068	16363
909.184	16413
909.3	16257
909.415	16238
909.531	16219
909.647	15991
909.762	16051
909.878	15895
909.993	16013
910.108	16025
910.224	15937
910.339	16082
910.454	15838
910.57	15838
910.685	15743
910.8	15994
910.915	15892
911.03	15732
911.145	15679
911.259	15656
911.374	15671
911.489	15534
911.604	15515
911.718	15370
911.833	15370
911.947	15192
912.062	15195
912.176	15458
912.291	15424
912.405	15340
912.519	15610
912.633	15591
912.748	15393
912.862	15325
912.976	15218
913.09	14990
913.204	15203
913.318	15165
913.431	15321
913.545	15195
913.659	15249
913.772	15146
913.886	15077
914	15028
914.113	15081
914.226	15199
914.34	15119
914.453	14834
914.566	15020
914.68	14861
914.793	14758
914.906	14712
915.019	14598
915.132	14583
915.245	14629
915.358	14613
915.47	14640
915.583	14598
915.696	14568
915.809	14750
915.921	14743
916.034	14575
916.146	14507
916.259	14495
916.371	14552
916.483	14518
916.595	14404
916.708	14461
916.82	14564
916.932	14404
917.044	14385
917.156	14389
917.268	14320
917.38	14294
917.491	14286
917.603	14328
917.715	14457
917.826	14381
917.938	14214
918.049	14195
918.161	14244
918.272	14450
918.384	14278
918.495	14214
918.606	14058
918.717	13986
918.828	14058
918.939	14096
919.05	13951
919.161	14020
919.272	13887
919.383	13993
919.494	14039
919.604	14298
919.715	14024
919.826	13951
919.936	13967
920.047	14088
920.157	14096
920.267	14214
920.378	14043
920.488	13925
920.598	14218
920.708	14290
920.818	14199
920.928	14157
921.038	14317
921.148	14324
921.258	14008
921.368	13944
921.477	13761
921.587	13826
921.697	13666
921.806	13818
921.916	13727
922.025	13464
922.134	13411
922.244	13533
922.353	13445
922.462	13358
922.571	13266
922.68	13095
922.789	13141
922.898	13126
923.007	12985
923.116	13088
923.224	13137
923.333	13000
923.442	12970
923.55	12916
923.659	12993
923.767	13012
923.876	12829
923.984	12905
924.092	12779
924.201	12833
924.309	12776
924.417	12837
924.525	12783
924.633	12730
924.741	13601
924.849	12669
924.956	12650
925.064	12513
925.172	12502
925.279	12471
925.387	12441
925.494	12506
925.602	12654
925.709	12616
925.816	12311
925.924	12536
926.031	12498
926.138	12467
926.245	12528
926.352	12384
926.459	12429
926.566	12582
926.673	12308
926.779	12289
926.886	12254
926.993	12190
927.099	12117
927.206	12095
927.312	12030
927.419	12159
927.525	12072
927.631	12167
927.737	12038
927.843	11977
927.95	11893
928.056	11923
928.162	11958
928.267	11920
928.373	12547
928.479	12030
928.585	11710
928.69	11908
928.796	11969
928.901	11798
929.007	11714
929.112	11798
929.218	11756
929.323	11748
929.428	11684
929.533	11775
929.638	11630
929.743	11680
929.848	11649
929.953	11676
930.058	11444
930.163	11360
930.267	11356
930.372	11474
930.477	11265
930.581	11589
930.685	11436
930.79	11296
930.894	11303
930.998	11261
931.103	11353
931.207	11033
931.311	11010
931.415	10892
931.519	10767
931.623	10679
