Data from test_V78500241_1059.txt Node
Date: Fri Mar 25 15:17:13 CST 2022
User: usil
Spectrometer: V785-0024
Trigger mode: 0
Integration Time (sec): 4.000000E-1
Scans to average: 1
Nonlinearity correction enabled: false
Boxcar width: 0
Storing dark spectrum: false
XAxis mode: Wavelengths
Number of Pixels in Spectrum: 1024
>>>>>Begin Spectral Data<<<<<
801.071	28211
801.214	28143
801.356	27918
801.499	27797
801.641	27637
801.783	27671
801.926	27656
802.068	27675
802.211	27713
802.353	27633
802.496	27393
802.638	27492
802.78	27306
802.923	27351
803.065	27325
803.208	27294
803.35	27389
803.492	27454
803.635	27386
803.777	27431
803.919	27606
804.061	28025
804.204	27633
804.346	27545
804.488	27504
804.63	27435
804.773	27618
804.915	27610
805.057	27724
805.199	27675
805.341	27644
805.483	27736
805.626	27819
805.768	27599
805.91	27835
806.052	27641
806.194	27682
806.336	27816
806.478	27869
806.62	27755
806.762	27922
806.904	27953
807.046	28360
807.188	28143
807.33	28204
807.472	28169
807.614	28006
807.756	28246
807.898	28116
808.04	28044
808.182	28013
808.324	28051
808.465	27983
808.607	28162
808.749	28303
808.891	28481
809.033	28500
809.174	28394
809.316	28394
809.458	28481
809.6	28398
809.741	28474
809.883	28618
810.025	28664
810.166	28630
810.308	28850
810.45	28656
810.591	28569
810.733	28493
810.875	28329
811.016	28299
811.158	28299
811.299	28675
811.441	28592
811.582	28489
811.724	28421
811.865	28310
812.007	28401
812.148	28329
812.29	28417
812.431	28542
812.573	28717
812.714	28854
812.855	28835
812.997	29075
813.138	29151
813.279	29090
813.421	28953
813.562	28885
813.703	28835
813.845	28778
813.986	28356
814.127	28261
814.268	28040
814.41	28204
814.551	28070
814.692	28272
814.833	28044
814.974	28082
815.115	28055
815.256	28006
815.397	27930
815.539	27987
815.68	27941
815.821	27899
815.962	27922
816.103	28006
816.244	27861
816.385	27789
816.526	27641
816.666	27378
816.807	27348
816.948	27492
817.089	27542
817.23	27492
817.371	27370
817.512	27332
817.653	27466
817.793	27519
817.934	27454
818.075	27466
818.216	27351
818.356	27412
818.497	27329
818.638	27119
818.778	27256
818.919	27226
819.06	27313
819.2	27226
819.341	27317
819.481	27431
819.622	27477
819.762	27709
819.903	27663
820.043	27724
820.184	27576
820.324	27492
820.465	27644
820.605	27614
820.746	27595
820.886	27389
821.026	27523
821.167	27393
821.307	27679
821.447	27549
821.588	27264
821.728	27310
821.868	27207
822.008	26868
822.149	26872
822.289	26872
822.429	26655
822.569	26564
822.709	26469
822.849	26343
822.99	26446
823.13	26355
823.27	26400
823.41	26294
823.55	26096
823.69	26389
823.83	26252
823.97	26107
824.11	26031
824.25	26035
824.389	26005
824.529	26210
824.669	26119
824.809	26252
824.949	26275
825.089	26214
825.228	26195
825.368	25917
825.508	25894
825.648	26073
825.787	25970
825.927	26027
826.067	25921
826.206	25811
826.346	25940
826.485	26024
826.625	25913
826.765	25974
826.904	25974
827.044	25696
827.183	25738
827.323	25685
827.462	25708
827.601	25700
827.741	25586
827.88	25597
828.02	25597
828.159	25784
828.298	25769
828.437	25750
828.577	25537
828.716	25875
828.855	25620
828.994	25468
829.134	25350
829.273	25479
829.412	25415
829.551	25476
829.69	25407
829.829	25419
829.968	25548
830.107	25578
830.246	25400
830.385	25396
830.524	25198
830.663	25244
830.802	25160
830.941	24973
831.08	25042
831.219	25141
831.357	25046
831.496	25103
831.635	24913
831.774	24901
831.913	24977
832.051	24757
832.19	24730
832.329	24741
832.467	24772
832.606	24692
832.744	24593
832.883	24585
833.022	24719
833.16	24703
833.299	24661
833.437	24661
833.576	24703
833.714	24795
833.852	24760
833.991	24871
834.129	24833
834.267	24726
834.406	24639
834.544	24867
834.682	24677
834.821	24719
834.959	24890
835.097	24764
835.235	24772
835.373	24844
835.511	24795
835.65	24696
835.788	24681
835.926	24513
836.064	24407
836.202	24391
836.34	24631
836.478	24749
836.615	24650
836.753	24642
836.891	24715
837.029	24707
837.167	24570
837.305	24414
837.443	24388
837.58	24471
837.718	24547
837.856	24486
837.993	24369
838.131	24361
838.269	24342
838.406	24403
838.544	24243
838.681	24133
838.819	23946
838.956	23927
839.094	23935
839.231	23961
839.369	24041
839.506	24273
839.643	24171
839.781	23893
839.918	23840
840.055	23874
840.193	23805
840.33	23855
840.467	23813
840.604	23904
840.742	24125
840.879	23710
841.016	23665
841.153	23741
841.29	23863
841.427	23870
841.564	23771
841.701	23752
841.838	23741
841.975	23847
842.112	23809
842.249	23676
842.385	23562
842.522	23805
842.659	23482
842.796	23433
842.933	23547
843.069	23585
843.206	23596
843.343	23638
843.479	23581
843.616	23531
843.752	23398
843.889	23277
844.025	23429
844.162	23212
844.298	23528
844.435	23296
844.571	23387
844.708	23360
844.844	23436
844.98	23509
845.117	23391
845.253	23231
845.389	23174
845.525	23349
845.661	23242
845.798	23056
845.934	23105
846.07	22938
846.206	23140
846.342	23113
846.478	22995
846.614	22995
846.75	22908
846.886	22946
847.022	22763
847.158	22790
847.294	22725
847.429	22911
847.565	22816
847.701	22976
847.837	22519
847.972	22615
848.108	22660
848.244	22550
848.379	22466
848.515	22310
848.65	22341
848.786	22363
848.921	22394
849.057	22474
849.192	22413
849.328	22508
849.463	22314
849.598	22276
849.734	22265
849.869	22257
850.004	22120
850.14	22314
850.275	22185
850.41	21968
850.545	22310
850.68	22124
850.815	22097
850.95	22112
851.085	22272
851.22	22325
851.355	22158
851.49	22059
851.625	22150
851.76	22226
851.895	22101
852.03	22154
852.165	22158
852.299	22196
852.434	22162
852.569	22158
852.703	22082
852.838	22268
852.973	22257
853.107	22352
853.242	22158
853.376	22032
853.511	21903
853.645	22070
853.78	22234
853.914	22070
854.048	21994
854.183	21861
854.317	21972
854.451	22101
854.585	22063
854.72	22044
854.854	22021
854.988	21918
855.122	21873
855.256	21907
855.39	21903
855.524	22021
855.658	22120
855.792	22010
855.926	21953
856.06	21949
856.194	22044
856.327	21926
856.461	21922
856.595	21930
856.729	21861
856.862	22109
856.996	21968
857.13	21953
857.263	22097
857.397	22048
857.53	21884
857.664	22032
857.797	22048
857.931	22051
858.064	21937
858.197	22074
858.331	22055
858.464	21960
858.597	21968
858.731	21930
858.864	21956
858.997	21968
859.13	22074
859.263	21880
859.396	21972
859.529	21899
859.662	21964
859.795	21949
859.928	22032
860.061	22086
860.194	22120
860.327	22051
860.46	21972
860.592	22192
860.725	22116
860.858	22067
860.99	22006
861.123	21876
861.256	21972
861.388	21953
861.521	22565
861.653	21827
861.786	21945
861.918	21717
862.05	21865
862.183	21903
862.315	21854
862.447	21979
862.58	21911
862.712	21663
862.844	21633
862.976	21793
863.108	21842
863.24	22223
863.372	21561
863.504	21622
863.636	21549
863.768	21835
863.9	21732
864.032	21580
864.164	21622
864.296	21736
864.428	21770
864.559	21755
864.691	21732
864.823	21610
864.954	21770
865.086	21633
865.217	21542
865.349	21534
865.48	21526
865.612	21534
865.743	21812
865.875	21568
866.006	21469
866.137	21519
866.269	21603
866.4	21443
866.531	21534
866.662	21473
866.793	21473
866.924	21473
867.055	21538
867.186	21504
867.317	21374
867.448	21435
867.579	21382
867.71	21370
867.841	21412
867.972	21496
868.103	21488
868.233	21538
868.364	21542
868.495	21561
868.625	21625
868.756	21854
868.886	21618
869.017	21667
869.147	21895
869.278	21819
869.408	21778
869.539	21781
869.669	21728
869.799	21682
869.929	21819
870.06	21964
870.19	21949
870.32	22010
870.45	22082
870.58	22154
870.71	22181
870.84	22207
870.97	22010
871.1	22185
871.23	22299
871.36	22192
871.489	22287
871.619	22272
871.749	22257
871.879	22325
872.008	22394
872.138	22310
872.267	22310
872.397	22044
872.526	22196
872.656	22200
872.785	22131
872.915	22310
873.044	22371
873.173	22371
873.303	22386
873.432	22500
873.561	22356
873.69	22344
873.819	22310
873.948	22409
874.077	22325
874.206	22242
874.335	22303
874.464	22478
874.593	22481
874.722	22478
874.851	22660
874.979	22527
875.108	22634
875.237	22527
875.365	22360
875.494	22497
875.623	22645
875.751	22493
875.88	22554
876.008	22645
876.136	22706
876.265	22850
876.393	23014
876.521	22995
876.65	22900
876.778	23022
876.906	22896
877.034	22942
877.162	22953
877.29	23010
877.418	22869
877.546	23014
877.674	22915
877.802	22710
877.93	22942
878.058	22873
878.185	22820
878.313	22740
878.441	22862
878.568	22698
878.696	22839
878.824	22843
878.951	22968
879.079	23060
879.206	23170
879.333	23060
879.461	22858
879.588	23033
879.715	23113
879.842	23166
879.97	22854
880.097	22672
880.224	22656
880.351	22634
880.478	22786
880.605	22687
880.732	22702
880.859	23086
880.986	22748
881.112	22664
881.239	22675
881.366	22382
881.493	22424
881.619	22421
881.746	22341
881.872	22379
881.999	22325
882.125	22112
882.252	22337
882.378	22158
882.505	22379
882.631	22105
882.757	22067
882.883	22051
883.01	22029
883.136	21922
883.262	21945
883.388	21816
883.514	22040
883.64	22002
883.766	21888
883.892	21793
884.018	21857
884.143	21930
884.269	21975
884.395	21618
884.52	21633
884.646	21633
884.772	21538
884.897	21507
885.023	21728
885.148	21850
885.274	21759
885.399	21869
885.524	21610
885.65	21724
885.775	21698
885.9	21713
886.025	21701
886.15	21641
886.275	21675
886.4	21412
886.525	21568
886.65	21694
886.775	21523
886.9	21720
887.025	21869
887.149	21534
887.274	21469
887.399	21268
887.523	21530
887.648	21397
887.773	21397
887.897	21469
888.021	21447
888.146	21302
888.27	21504
888.395	21469
888.519	21298
888.643	21488
888.767	21435
888.891	21439
889.015	21237
889.139	21340
889.263	21123
889.387	21374
889.511	21378
889.635	21363
889.759	21157
889.883	21100
890.006	21241
890.13	21355
890.254	21100
890.377	21089
890.501	20906
890.624	20899
890.748	21043
890.871	20971
890.995	20731
891.118	20758
891.241	20651
891.364	20887
891.488	20864
891.611	20883
891.734	20785
891.857	20739
891.98	20773
892.103	20750
892.226	20880
892.349	20598
892.471	20461
892.594	20708
892.717	20716
892.839	20807
892.962	20701
893.085	20743
893.207	20750
893.33	20552
893.452	20602
893.575	20644
893.697	20545
893.819	20716
893.941	20758
894.064	20720
894.186	20522
894.308	20419
894.43	20697
894.552	20815
894.674	20849
894.796	20575
894.918	20590
895.04	20663
895.161	20720
895.283	20648
895.405	20765
895.526	20587
895.648	20533
895.769	20613
895.891	20708
896.012	20765
896.134	20724
896.255	20560
896.376	20549
896.498	20606
896.619	20659
896.74	20674
896.861	20697
896.982	20929
897.103	20982
897.224	20804
897.345	20804
897.466	20750
897.587	20792
897.708	20956
897.828	20906
897.949	20804
898.07	20663
898.19	20781
898.311	21017
898.431	20792
898.552	20872
898.672	20910
898.792	20914
898.913	20925
899.033	20716
899.153	20701
899.273	20541
899.393	20552
899.513	20602
899.633	20560
899.753	20549
899.873	20602
899.993	20575
900.113	20518
900.232	20492
900.352	20469
900.472	20427
900.591	20324
900.711	20305
900.83	20275
900.95	20370
901.069	20419
901.189	20214
901.308	20103
901.427	19894
901.546	19845
901.665	19947
901.784	19989
901.904	19700
902.023	19601
902.141	19464
902.26	19460
902.379	19647
902.498	19476
902.617	19407
902.735	19384
902.854	19403
902.973	19422
903.091	19148
903.21	19080
903.328	19046
903.446	19008
903.565	18932
903.683	18958
903.801	18810
903.919	18783
904.038	18859
904.156	18696
904.274	18829
904.392	18661
904.51	18517
904.627	18616
904.745	18688
904.863	18627
904.981	18536
905.098	18407
905.216	18327
905.334	18399
905.451	18384
905.569	18350
905.686	18296
905.803	18315
905.921	18262
906.038	18205
906.155	18133
906.272	17965
906.389	17999
906.506	17969
906.623	17870
906.74	17817
906.857	17657
906.974	17767
907.091	17843
907.208	17973
907.324	17916
907.441	17760
907.557	17665
907.674	17551
907.79	17520
907.907	17471
908.023	17524
908.139	17619
908.256	17665
908.372	17463
908.488	17349
908.604	17356
908.72	17337
908.836	17303
908.952	17246
909.068	17372
909.184	17368
909.3	17193
909.415	17311
909.531	17387
909.647	17018
909.762	16923
909.878	17060
909.993	17109
910.108	17052
910.224	16919
910.339	16938
910.454	16930
910.57	16892
910.685	16752
910.8	17105
910.915	16885
911.03	16889
911.145	16634
911.259	16622
911.374	16603
911.489	16516
911.604	16493
911.718	16337
911.833	16333
911.947	16303
912.062	16082
912.176	16261
912.291	16306
912.405	16287
912.519	16424
912.633	16493
912.748	16386
912.862	16402
912.976	16204
913.09	15953
913.204	16078
913.318	16101
913.431	16238
913.545	16185
913.659	16287
913.772	16067
913.886	15956
914	16006
914.113	15945
914.226	15972
914.34	15960
914.453	15895
914.566	15934
914.68	15865
914.793	15793
914.906	15584
915.019	15549
915.132	15507
915.245	15523
915.358	15534
915.47	15454
915.583	15523
915.696	15572
915.809	15671
915.921	15747
916.034	15462
916.146	15393
916.259	15268
916.371	15485
916.483	15439
916.595	15355
916.708	15382
916.82	15359
916.932	15291
917.044	15302
917.156	15245
917.268	15119
917.38	15180
917.491	15100
917.603	15127
917.715	15252
917.826	15222
917.938	15112
918.049	15024
918.161	15112
918.272	15237
918.384	15195
918.495	15142
918.606	15001
918.717	14872
918.828	14845
918.939	15009
919.05	14861
919.161	14883
919.272	14701
919.383	14777
919.494	14975
919.604	15055
919.715	14849
919.826	14765
919.936	14861
920.047	14906
920.157	14823
920.267	14975
920.378	14925
920.488	14773
920.598	15005
920.708	15252
920.818	15032
920.928	15104
921.038	15161
921.148	15066
921.258	14819
921.368	14712
921.477	14587
921.587	14610
921.697	14533
921.806	14659
921.916	14450
922.025	14256
922.134	14221
922.244	14210
922.353	14282
922.462	14172
922.571	14024
922.68	13860
922.789	13826
922.898	13909
923.007	13799
923.116	13898
923.224	13898
923.333	13879
923.442	13769
923.55	13643
923.659	13643
923.767	13803
923.876	13666
923.984	13620
924.092	13590
924.201	13609
924.309	13632
924.417	13563
924.525	13544
924.633	13438
924.741	14575
924.849	13324
924.956	13556
925.064	13255
925.172	13232
925.279	13251
925.387	13377
925.494	13331
925.602	13331
925.709	13263
925.816	13228
925.924	13110
926.031	13327
926.138	13209
926.245	13160
926.352	13179
926.459	13171
926.566	13213
926.673	13091
926.779	13019
926.886	13019
926.993	12844
927.099	12844
927.206	12749
927.312	12795
927.419	12993
927.525	12806
927.631	12760
927.737	12719
927.843	12669
927.95	12528
928.056	12589
928.162	12650
928.267	12681
928.373	13164
928.479	12677
928.585	12490
928.69	12521
928.796	12582
928.901	12528
929.007	12357
929.112	12456
929.218	12452
929.323	12357
929.428	12353
929.533	12506
929.638	12258
929.743	12292
929.848	12334
929.953	12270
930.058	12201
930.163	12041
930.267	12015
930.372	12159
930.477	11939
930.581	12182
930.685	12148
930.79	11988
930.894	11908
930.998	11832
931.103	12041
931.207	11570
931.311	11577
931.415	11543
931.519	11341
931.623	11307
