Data from test_V78500241_2552.txt Node
Date: Fri Mar 25 15:27:37 CST 2022
User: usil
Spectrometer: V785-0024
Trigger mode: 0
Integration Time (sec): 4.000000E-1
Scans to average: 1
Nonlinearity correction enabled: false
Boxcar width: 0
Storing dark spectrum: false
XAxis mode: Wavelengths
Number of Pixels in Spectrum: 1024
>>>>>Begin Spectral Data<<<<<
801.071	27256
801.214	27207
801.356	26979
801.499	26883
801.641	26819
801.783	26940
801.926	26823
802.068	26792
802.211	26823
802.353	26727
802.496	26473
802.638	26545
802.78	26492
802.923	26400
803.065	26351
803.208	26461
803.35	26556
803.492	26518
803.635	26488
803.777	26556
803.919	26568
804.061	26891
804.204	26682
804.346	26564
804.488	26583
804.63	26697
804.773	26594
804.915	26552
805.057	26678
805.199	26518
805.341	26727
805.483	26663
805.626	26868
805.768	26621
805.91	26613
806.052	26724
806.194	26590
806.336	26857
806.478	26788
806.62	26686
806.762	26887
806.904	26937
807.046	27283
807.188	27104
807.33	27237
807.472	27192
807.614	27047
807.756	27157
807.898	26925
808.04	26838
808.182	26940
808.324	26960
808.465	27005
808.607	27233
808.749	27367
808.891	27412
809.033	27515
809.174	27359
809.316	27291
809.458	27287
809.6	27195
809.741	27454
809.883	27382
810.025	27557
810.166	27595
810.308	27534
810.45	27629
810.591	27458
810.733	27351
810.875	27233
811.016	27230
811.158	27245
811.299	27530
811.441	27591
811.582	27458
811.724	27458
811.865	27408
812.007	27222
812.148	27374
812.29	27389
812.431	27389
812.573	27648
812.714	27709
812.855	27755
812.997	27934
813.138	27987
813.279	27926
813.421	27846
813.562	27732
813.703	27553
813.845	27439
813.986	27123
814.127	26998
814.268	26929
814.41	26929
814.551	26891
814.692	27074
814.833	26918
814.974	26918
815.115	26979
815.256	26872
815.397	26864
815.539	26796
815.68	26769
815.821	26762
815.962	26796
816.103	26777
816.244	26552
816.385	26530
816.526	26552
816.666	26343
816.807	26351
816.948	26237
817.089	26313
817.23	26389
817.371	26161
817.512	26187
817.653	26111
817.793	26149
817.934	26183
818.075	26271
818.216	26073
818.356	26122
818.497	26237
818.638	25993
818.778	25951
818.919	25966
819.06	26183
819.2	26065
819.341	26168
819.481	26202
819.622	26313
819.762	26571
819.903	26385
820.043	26415
820.184	26412
820.324	26324
820.465	26412
820.605	26408
820.746	26305
820.886	26153
821.026	26282
821.167	26301
821.307	26317
821.447	26153
821.588	26043
821.728	26054
821.868	26050
822.008	25738
822.149	25734
822.289	25578
822.429	25438
822.569	25362
822.709	25316
822.849	25274
822.99	25232
823.13	25152
823.27	25198
823.41	25084
823.55	24920
823.69	24973
823.83	25000
823.97	24916
824.11	24882
824.25	24890
824.389	24871
824.529	24905
824.669	24741
824.809	24962
824.949	24928
825.089	24856
825.228	24871
825.368	24776
825.508	24490
825.648	24719
825.787	24791
825.927	24863
826.067	24738
826.206	24677
826.346	24795
826.485	24738
826.625	24817
826.765	24840
826.904	24882
827.044	24528
827.183	24395
827.323	24445
827.462	24475
827.601	24452
827.741	24380
827.88	24582
828.02	24281
828.159	24323
828.298	24414
828.437	24437
828.577	24391
828.716	24616
828.855	24254
828.994	24216
829.134	24167
829.273	24125
829.412	24072
829.551	23969
829.69	24087
829.829	24133
829.968	24121
830.107	24167
830.246	24205
830.385	24129
830.524	24003
830.663	24064
830.802	23878
830.941	23748
831.08	23638
831.219	23927
831.357	23946
831.496	23980
831.635	23836
831.774	23615
831.913	23714
832.051	23589
832.19	23395
832.329	23573
832.467	23509
832.606	23417
832.744	23376
832.883	23512
833.022	23326
833.16	23368
833.299	23463
833.437	23486
833.576	23490
833.714	23448
833.852	23627
833.991	23638
834.129	23516
834.267	23604
834.406	23493
834.544	23516
834.682	23585
834.821	23436
834.959	23608
835.097	23509
835.235	23509
835.373	23478
835.511	23334
835.65	23520
835.788	23383
835.926	23242
836.064	23193
836.202	23334
836.34	23315
836.478	23425
836.615	23337
836.753	23337
836.891	23402
837.029	23429
837.167	23341
837.305	23277
837.443	23261
837.58	23242
837.718	23220
837.856	23113
837.993	23185
838.131	23204
838.269	23056
838.406	23033
838.544	23041
838.681	22843
838.819	22786
838.956	22721
839.094	22691
839.231	22782
839.369	22782
839.506	23109
839.643	22839
839.781	22691
839.918	22611
840.055	22721
840.193	22683
840.33	22584
840.467	22660
840.604	22812
840.742	23052
840.879	22630
841.016	22573
841.153	22607
841.29	22706
841.427	22618
841.564	22683
841.701	22717
841.838	22481
841.975	22641
842.112	22500
842.249	22519
842.385	22542
842.522	22637
842.659	22573
842.796	22371
842.933	22402
843.069	22318
843.206	22386
843.343	22322
843.479	22257
843.616	22348
843.752	22265
843.889	22226
844.025	22333
844.162	22067
844.298	22360
844.435	22169
844.571	22063
844.708	22200
844.844	22299
844.98	22272
845.117	22268
845.253	22162
845.389	22021
845.525	22055
845.661	21979
845.798	21793
845.934	21991
846.07	21808
846.206	21880
846.342	22017
846.478	21880
846.614	21736
846.75	21690
846.886	21709
847.022	21641
847.158	21671
847.294	21625
847.429	21667
847.565	21644
847.701	21876
847.837	21359
847.972	21294
848.108	21492
848.244	21557
848.379	21241
848.515	21283
848.65	21188
848.786	21291
848.921	21211
849.057	21180
849.192	21359
849.328	21363
849.463	21195
849.598	21127
849.734	21047
849.869	21112
850.004	20986
850.14	20952
850.275	20887
850.41	20933
850.545	20899
850.68	20960
850.815	20986
850.95	20979
851.085	21096
851.22	21195
851.355	21112
851.49	20857
851.625	20944
851.76	20979
851.895	20929
852.03	20849
852.165	21093
852.299	21028
852.434	21100
852.569	21001
852.703	20982
852.838	21100
852.973	21039
853.107	21074
853.242	20899
853.376	20849
853.511	20777
853.645	20765
853.78	20967
853.914	20765
854.048	20754
854.183	20819
854.317	20826
854.451	20929
854.585	20724
854.72	20845
854.854	20842
854.988	20629
855.122	20788
855.256	20731
855.39	20823
855.524	20975
855.658	20883
855.792	20842
855.926	20849
856.06	20864
856.194	20823
856.327	20792
856.461	20853
856.595	20788
856.729	20735
856.862	20910
856.996	20826
857.13	20826
857.263	20899
857.397	20914
857.53	20807
857.664	20895
857.797	21009
857.931	21032
858.064	20708
858.197	20956
858.331	20861
858.464	20792
858.597	20636
858.731	20758
858.864	20773
858.997	20773
859.13	20864
859.263	20876
859.396	20937
859.529	20762
859.662	20689
859.795	20686
859.928	20754
860.061	20929
860.194	21005
860.327	20895
860.46	20807
860.592	20876
860.725	20838
860.858	20963
860.99	20853
861.123	20754
861.256	20781
861.388	20796
861.521	21526
861.653	20743
861.786	20609
861.918	20716
862.05	20598
862.183	20762
862.315	20765
862.447	20872
862.58	20743
862.712	20423
862.844	20454
862.976	20530
863.108	20644
863.24	20944
863.372	20396
863.504	20454
863.636	20511
863.768	20533
863.9	20636
864.032	20514
864.164	20492
864.296	20590
864.428	20568
864.559	20609
864.691	20602
864.823	20549
864.954	20507
865.086	20602
865.217	20404
865.349	20412
865.48	20412
865.612	20518
865.743	20583
865.875	20404
866.006	20328
866.137	20423
866.269	20336
866.4	20419
866.531	20355
866.662	20423
866.793	20362
866.924	20317
867.055	20328
867.186	20366
867.317	20366
867.448	20301
867.579	20427
867.71	20324
867.841	20275
867.972	20492
868.103	20431
868.233	20309
868.364	20408
868.495	20408
868.625	20499
868.756	20613
868.886	20560
869.017	20594
869.147	20785
869.278	20727
869.408	20689
869.539	20594
869.669	20659
869.799	20689
869.929	20701
870.06	20792
870.19	21009
870.32	20967
870.45	20872
870.58	21108
870.71	21039
870.84	21066
870.97	21032
871.1	20944
871.23	21188
871.36	21135
871.489	21131
871.619	21195
871.749	21199
871.879	21173
872.008	21363
872.138	21230
872.267	21325
872.397	21123
872.526	20975
872.656	21047
872.785	21058
872.915	21245
873.044	21332
873.173	21047
873.303	21321
873.432	21275
873.561	21313
873.69	21245
873.819	21264
873.948	21275
874.077	21317
874.206	21237
874.335	21260
874.464	21447
874.593	21450
874.722	21386
874.851	21606
874.979	21545
875.108	21603
875.237	21511
875.365	21469
875.494	21431
875.623	21561
875.751	21488
875.88	21545
876.008	21553
876.136	21561
876.265	21857
876.393	22021
876.521	21960
876.65	21972
876.778	21899
876.906	21743
877.034	21812
877.162	21903
877.29	21759
877.418	21823
877.546	21915
877.674	21812
877.802	21827
877.93	21732
878.058	21797
878.185	21713
878.313	21656
878.441	21915
878.568	21564
878.696	21785
878.824	21869
878.951	21861
879.079	22021
879.206	22181
879.333	22025
879.461	21899
879.588	22017
879.715	21994
879.842	22128
879.97	21922
880.097	21724
880.224	21591
880.351	21633
880.478	21671
880.605	21553
880.732	21606
880.859	21808
880.986	21622
881.112	21720
881.239	21603
881.366	21393
881.493	21374
881.619	21279
881.746	21241
881.872	21306
881.999	21207
882.125	21165
882.252	21332
882.378	21199
882.505	21268
882.631	21017
882.757	21036
882.883	21024
883.01	20941
883.136	20918
883.262	20834
883.388	20853
883.514	20952
883.64	20872
883.766	20899
883.892	20613
884.018	20731
884.143	20918
884.269	20952
884.395	20731
884.52	20602
884.646	20590
884.772	20537
884.897	20476
885.023	20469
885.148	20762
885.274	20705
885.399	20750
885.524	20659
885.65	20511
885.775	20598
885.9	20488
886.025	20731
886.15	20579
886.275	20632
886.4	20541
886.525	20522
886.65	20549
886.775	20549
886.9	20651
887.025	20815
887.149	20507
887.274	20332
887.399	20362
887.523	20419
887.648	20320
887.773	20408
887.897	20473
888.021	20431
888.146	20252
888.27	20438
888.395	20495
888.519	20347
888.643	20290
888.767	20343
888.891	20313
889.015	20164
889.139	20183
889.263	20138
889.387	20218
889.511	20377
889.635	20298
889.759	20081
889.883	20221
890.006	20172
890.13	20191
890.254	20096
890.377	19955
890.501	20027
890.624	19837
890.748	20001
890.871	19784
890.995	19643
891.118	19643
891.241	19791
891.364	19734
891.488	19902
891.611	19734
891.734	19860
891.857	19875
891.98	19811
892.103	19769
892.226	19757
892.349	19635
892.471	19601
892.594	19700
892.717	19689
892.839	19601
892.962	19632
893.085	19712
893.207	19605
893.33	19518
893.452	19468
893.575	19681
893.697	19620
893.819	19811
893.941	19963
894.064	19738
894.186	19624
894.308	19457
894.43	19750
894.552	19814
894.674	19628
894.796	19567
894.918	19693
895.04	19609
895.161	19677
895.283	19655
895.405	19643
895.526	19655
895.648	19582
895.769	19681
895.891	19727
896.012	19742
896.134	19772
896.255	19647
896.376	19681
896.498	19681
896.619	19750
896.74	19635
896.861	19708
896.982	19963
897.103	20096
897.224	19951
897.345	19795
897.466	19883
897.587	19890
897.708	19974
897.828	19849
897.949	19875
898.07	19677
898.19	19731
898.311	19967
898.431	19879
898.552	19928
898.672	20008
898.792	19974
898.913	19932
899.033	19719
899.153	19712
899.273	19651
899.393	19662
899.513	19708
899.633	19731
899.753	19655
899.873	19670
899.993	19639
900.113	19586
900.232	19704
900.352	19620
900.472	19422
900.591	19343
900.711	19449
900.83	19324
900.95	19403
901.069	19476
901.189	19278
901.308	19129
901.427	18973
901.546	18913
901.665	18928
901.784	19019
901.904	18897
902.023	18783
902.141	18517
902.26	18517
902.379	18502
902.498	18544
902.617	18494
902.735	18604
902.854	18471
902.973	18346
903.091	18220
903.21	18182
903.328	18186
903.446	18140
903.565	18087
903.683	17996
903.801	17843
903.919	18110
904.038	17931
904.156	17824
904.274	17821
904.392	17836
904.51	17649
904.627	17775
904.745	17824
904.863	17828
904.981	17589
905.098	17493
905.216	17410
905.334	17455
905.451	17452
905.569	17448
905.686	17425
905.803	17356
905.921	17315
906.038	17318
906.155	17318
906.272	17254
906.389	17052
906.506	16930
906.623	17010
906.74	17083
906.857	16805
906.974	16801
907.091	17067
907.208	17143
907.324	16961
907.441	16877
907.557	16615
907.674	16725
907.79	16649
907.907	16733
908.023	16698
908.139	16634
908.256	16618
908.372	16561
908.488	16634
908.604	16474
908.72	16485
908.836	16466
908.952	16466
909.068	16493
909.184	16577
909.3	16329
909.415	16519
909.531	16504
909.647	16177
909.762	16188
909.878	16135
909.993	16109
910.108	16139
910.224	16105
910.339	16162
910.454	16029
910.57	15934
910.685	15880
910.8	16200
910.915	16204
911.03	15998
911.145	15759
911.259	15698
911.374	15629
911.489	15698
911.604	15580
911.718	15545
911.833	15599
911.947	15469
912.062	15443
912.176	15576
912.291	15603
912.405	15584
912.519	15732
912.633	15736
912.748	15530
912.862	15530
912.976	15386
913.09	15283
913.204	15249
913.318	15275
913.431	15397
913.545	15348
913.659	15428
913.772	15275
913.886	15062
914	15062
914.113	15184
914.226	15211
914.34	15180
914.453	14960
914.566	15195
914.68	14998
914.793	15013
914.906	14796
915.019	14762
915.132	14613
915.245	14678
915.358	14762
915.47	14682
915.583	14868
915.696	14815
915.809	14880
915.921	14815
916.034	14720
916.146	14655
916.259	14651
916.371	14678
916.483	14629
916.595	14606
916.708	14526
916.82	14610
916.932	14522
917.044	14526
917.156	14522
917.268	14438
917.38	14389
917.491	14408
917.603	14351
917.715	14454
917.826	14381
917.938	14370
918.049	14271
918.161	14271
918.272	14533
918.384	14412
918.495	14408
918.606	14176
918.717	14164
918.828	14191
918.939	14240
919.05	14020
919.161	14142
919.272	13917
919.383	14046
919.494	14286
919.604	14282
919.715	14103
919.826	14092
919.936	14115
920.047	14180
920.157	14107
920.267	14343
920.378	14214
920.488	14024
920.598	14328
920.708	14457
920.818	14275
920.928	14221
921.038	14324
921.148	14454
921.258	14065
921.368	14084
921.477	13902
921.587	13833
921.697	13765
921.806	13887
921.916	13772
922.025	13597
922.134	13712
922.244	13559
922.353	13632
922.462	13388
922.571	13327
922.68	13221
922.789	13110
922.898	13206
923.007	13160
923.116	13266
923.224	13190
923.333	13110
923.442	13065
923.55	13050
923.659	13034
923.767	13065
923.876	12973
923.984	12977
924.092	12920
924.201	12958
924.309	12928
924.417	12840
924.525	12977
924.633	12863
924.741	13830
924.849	12654
924.956	12814
925.064	12654
925.172	12589
925.279	12589
925.387	12669
925.494	12566
925.602	12837
925.709	12540
925.816	12486
925.924	12578
926.031	12734
926.138	12597
926.245	12635
926.352	12456
926.459	12646
926.566	12620
926.673	12471
926.779	12308
926.886	12471
926.993	12190
927.099	12235
927.206	12125
927.312	12216
927.419	12228
927.525	12186
927.631	12167
927.737	12049
927.843	12015
927.95	11874
928.056	12083
928.162	12045
928.267	12155
928.373	12650
928.479	12167
928.585	11912
928.69	11992
928.796	12057
928.901	11916
929.007	11790
929.112	11863
929.218	11901
929.323	11756
929.428	11756
929.533	11870
929.638	11703
929.743	11672
929.848	11748
929.953	11767
930.058	11592
930.163	11436
930.267	11532
930.372	11604
930.477	11425
930.581	11615
930.685	11452
930.79	11296
930.894	11417
930.998	11273
931.103	11505
931.207	11045
931.311	11014
931.415	10877
931.519	10691
931.623	10755
