Data from test_V78500241_3161.txt Node
Date: Fri Mar 25 15:31:52 CST 2022
User: usil
Spectrometer: V785-0024
Trigger mode: 0
Integration Time (sec): 4.000000E-1
Scans to average: 1
Nonlinearity correction enabled: false
Boxcar width: 0
Storing dark spectrum: false
XAxis mode: Wavelengths
Number of Pixels in Spectrum: 1024
>>>>>Begin Spectral Data<<<<<
801.071	27211
801.214	27165
801.356	27017
801.499	26769
801.641	26853
801.783	26686
801.926	26861
802.068	26739
802.211	26746
802.353	26598
802.496	26427
802.638	26393
802.78	26446
802.923	26286
803.065	26248
803.208	26278
803.35	26172
803.492	26358
803.635	26545
803.777	26438
803.919	26396
804.061	26861
804.204	26552
804.346	26533
804.488	26385
804.63	26552
804.773	26484
804.915	26583
805.057	26571
805.199	26423
805.341	26560
805.483	26689
805.626	26746
805.768	26530
805.91	26686
806.052	26587
806.194	26594
806.336	26727
806.478	26762
806.62	26583
806.762	26674
806.904	26899
807.046	27237
807.188	26967
807.33	27142
807.472	27013
807.614	26925
807.756	27028
807.898	26918
808.04	26853
808.182	26758
808.324	26891
808.465	26891
808.607	27131
808.749	27180
808.891	27332
809.033	27329
809.174	27389
809.316	27287
809.458	27317
809.6	27317
809.741	27226
809.883	27378
810.025	27447
810.166	27557
810.308	27622
810.45	27477
810.591	27408
810.733	27233
810.875	27138
811.016	27127
811.158	27211
811.299	27374
811.441	27332
811.582	27405
811.724	27214
811.865	27127
812.007	27157
812.148	27070
812.29	27279
812.431	27427
812.573	27435
812.714	27519
812.855	27663
812.997	27831
813.138	27914
813.279	27808
813.421	27717
813.562	27793
813.703	27542
813.845	27264
813.986	27199
814.127	27039
814.268	26895
814.41	26800
814.551	26823
814.692	26902
814.833	26880
814.974	26872
815.115	26838
815.256	26853
815.397	26773
815.539	26743
815.68	26682
815.821	26598
815.962	26762
816.103	26640
816.244	26564
816.385	26252
816.526	26385
816.666	26347
816.807	26039
816.948	26225
817.089	26164
817.23	26149
817.371	26183
817.512	25993
817.653	26111
817.793	26069
817.934	26122
818.075	26115
818.216	26103
818.356	26142
818.497	26031
818.638	25871
818.778	25970
818.919	25959
819.06	26046
819.2	26122
819.341	26122
819.481	26016
819.622	26317
819.762	26450
819.903	26377
820.043	26396
820.184	26145
820.324	26263
820.465	26366
820.605	26214
820.746	26134
820.886	26058
821.026	26214
821.167	26081
821.307	26263
821.447	26267
821.588	26016
821.728	25852
821.868	25791
822.008	25666
822.149	25632
822.289	25639
822.429	25282
822.569	25247
822.709	25335
822.849	25160
822.99	25076
823.13	24935
823.27	25080
823.41	25095
823.55	24985
823.69	24928
823.83	24856
823.97	24848
824.11	24726
824.25	24620
824.389	24867
824.529	24795
824.669	24760
824.809	24829
824.949	24802
825.089	24806
825.228	24719
825.368	24612
825.508	24551
825.648	24646
825.787	24616
825.927	24631
826.067	24544
826.206	24555
826.346	24654
826.485	24631
826.625	24559
826.765	24700
826.904	24582
827.044	24285
827.183	24323
827.323	24266
827.462	24372
827.601	24319
827.741	24422
827.88	24194
828.02	24190
828.159	24220
828.298	24353
828.437	24464
828.577	24327
828.716	24296
828.855	24190
828.994	24125
829.134	23999
829.273	23977
829.412	24030
829.551	23984
829.69	23859
829.829	24102
829.968	24114
830.107	24087
830.246	24057
830.385	24041
830.524	23893
830.663	23817
830.802	23836
830.941	23687
831.08	23516
831.219	23710
831.357	23703
831.496	23783
831.635	23634
831.774	23516
831.913	23566
832.051	23406
832.19	23383
832.329	23383
832.467	23231
832.606	23254
832.744	23277
832.883	23345
833.022	23265
833.16	23311
833.299	23326
833.437	23349
833.576	23318
833.714	23337
833.852	23337
833.991	23395
834.129	23406
834.267	23493
834.406	23440
834.544	23341
834.682	23391
834.821	23288
834.959	23623
835.097	23284
835.235	23383
835.373	23391
835.511	23497
835.65	23269
835.788	23174
835.926	23052
836.064	22991
836.202	23048
836.34	23143
836.478	23322
836.615	23208
836.753	23143
836.891	23216
837.029	23273
837.167	23090
837.305	23071
837.443	23071
837.58	22991
837.718	23132
837.856	23292
837.993	23010
838.131	22980
838.269	22911
838.406	23022
838.544	22911
838.681	22820
838.819	22596
838.956	22455
839.094	22622
839.231	22459
839.369	22752
839.506	22809
839.643	22820
839.781	22508
839.918	22527
840.055	22516
840.193	22516
840.33	22497
840.467	22500
840.604	22523
840.742	22767
840.879	22325
841.016	22352
841.153	22284
841.29	22497
841.427	22466
841.564	22527
841.701	22375
841.838	22474
841.975	22360
842.112	22421
842.249	22379
842.385	22291
842.522	22413
842.659	22386
842.796	22242
842.933	22173
843.069	22093
843.206	22272
843.343	22261
843.479	22124
843.616	22253
843.752	21930
843.889	22006
844.025	22070
844.162	22006
844.298	22074
844.435	21945
844.571	21911
844.708	22044
844.844	22147
844.98	22120
845.117	22097
845.253	21915
845.389	21831
845.525	22013
845.661	21797
845.798	21747
845.934	21819
846.07	21717
846.206	21686
846.342	21812
846.478	21686
846.614	21519
846.75	21405
846.886	21549
847.022	21519
847.158	21428
847.294	21557
847.429	21504
847.565	21450
847.701	21660
847.837	21207
847.972	21096
848.108	21154
848.244	21336
848.379	21214
848.515	21032
848.65	20982
848.786	21058
848.921	21005
849.057	21142
849.192	21116
849.328	21055
849.463	21214
849.598	20990
849.734	21024
849.869	20887
850.004	20902
850.14	20891
850.275	20933
850.41	20720
850.545	20750
850.68	20804
850.815	20845
850.95	20857
851.085	20952
851.22	20941
851.355	20811
851.49	20765
851.625	20834
851.76	20842
851.895	20712
852.03	20834
852.165	20811
852.299	20899
852.434	20861
852.569	20739
852.703	20887
852.838	20933
852.973	20990
853.107	20975
853.242	20838
853.376	20708
853.511	20556
853.645	20579
853.78	20819
853.914	20739
854.048	20701
854.183	20636
854.317	20849
854.451	20861
854.585	20663
854.72	20724
854.854	20712
854.988	20716
855.122	20697
855.256	20568
855.39	20644
855.524	20819
855.658	20743
855.792	20689
855.926	20701
856.06	20613
856.194	20750
856.327	20670
856.461	20579
856.595	20712
856.729	20674
856.862	20743
856.996	20689
857.13	20716
857.263	20724
857.397	20788
857.53	20613
857.664	20773
857.797	20644
857.931	20743
858.064	20792
858.197	20716
858.331	20648
858.464	20724
858.597	20590
858.731	20701
858.864	20602
858.997	20636
859.13	20686
859.263	20579
859.396	20792
859.529	20663
859.662	20636
859.795	20606
859.928	20598
860.061	20739
860.194	20758
860.327	20705
860.46	20629
860.592	20819
860.725	20842
860.858	20765
860.99	20655
861.123	20693
861.256	20594
861.388	20689
861.521	21287
861.653	20564
861.786	20431
861.918	20385
862.05	20514
862.183	20636
862.315	20659
862.447	20667
862.58	20541
862.712	20313
862.844	20240
862.976	20533
863.108	20393
863.24	20720
863.372	20286
863.504	20457
863.636	20396
863.768	20511
863.9	20374
864.032	20328
864.164	20362
864.296	20419
864.428	20457
864.559	20473
864.691	20419
864.823	20351
864.954	20473
865.086	20415
865.217	20400
865.349	20240
865.48	20328
865.612	20305
865.743	20419
865.875	20351
866.006	20271
866.137	20324
866.269	20290
866.4	20161
866.531	20305
866.662	20225
866.793	20237
866.924	20233
867.055	20256
867.186	20263
867.317	20229
867.448	20088
867.579	20180
867.71	20084
867.841	20084
867.972	20301
868.103	20290
868.233	20275
868.364	20191
868.495	20286
868.625	20503
868.756	20518
868.886	20480
869.017	20434
869.147	20533
869.278	20556
869.408	20541
869.539	20556
869.669	20632
869.799	20537
869.929	20613
870.06	20530
870.19	20876
870.32	20769
870.45	20883
870.58	20842
870.71	20929
870.84	20925
870.97	20876
871.1	20891
871.23	21077
871.36	21089
871.489	20948
871.619	21020
871.749	21020
871.879	21268
872.008	21112
872.138	21047
872.267	21013
872.397	21017
872.526	20876
872.656	20960
872.785	21005
872.915	21180
873.044	21180
873.173	21093
873.303	21150
873.432	21142
873.561	21203
873.69	21180
873.819	21146
873.948	21116
874.077	21108
874.206	21085
874.335	21112
874.464	21195
874.593	21340
874.722	21218
874.851	21408
874.979	21420
875.108	21367
875.237	21291
875.365	21275
875.494	21359
875.623	21431
875.751	21203
875.88	21450
876.008	21504
876.136	21454
876.265	21831
876.393	21991
876.521	21819
876.65	21774
876.778	21675
876.906	21781
877.034	21694
877.162	21827
877.29	21663
877.418	21595
877.546	21606
877.674	21789
877.802	21766
877.93	21717
878.058	21690
878.185	21644
878.313	21679
878.441	21766
878.568	21511
878.696	21675
878.824	21793
878.951	21770
879.079	21934
879.206	22051
879.333	21831
879.461	21682
879.588	21850
879.715	21778
879.842	22059
879.97	21686
880.097	21701
880.224	21549
880.351	21545
880.478	21629
880.605	21561
880.732	21591
880.859	21812
880.986	21469
881.112	21618
881.239	21386
881.366	21302
881.493	21150
881.619	21119
881.746	21161
881.872	21154
881.999	21123
882.125	21001
882.252	21180
882.378	21154
882.505	21195
882.631	20979
882.757	20845
882.883	20944
883.01	20826
883.136	20750
883.262	20727
883.388	20670
883.514	20899
883.64	20853
883.766	20811
883.892	20606
884.018	20739
884.143	20895
884.269	20895
884.395	20511
884.52	20461
884.646	20530
884.772	20503
884.897	20442
885.023	20446
885.148	20686
885.274	20644
885.399	20526
885.524	20632
885.65	20492
885.775	20511
885.9	20461
886.025	20735
886.15	20511
886.275	20454
886.4	20499
886.525	20423
886.65	20408
886.775	20446
886.9	20648
887.025	20781
887.149	20423
887.274	20259
887.399	20313
887.523	20385
887.648	20214
887.773	20294
887.897	20320
888.021	20298
888.146	20332
888.27	20454
888.395	20355
888.519	20370
888.643	20328
888.767	20339
888.891	20183
889.015	19978
889.139	20153
889.263	19974
889.387	20377
889.511	20290
889.635	20153
889.759	20103
889.883	20024
890.006	20062
890.13	20081
890.254	20069
890.377	20039
890.501	19826
890.624	19753
890.748	19906
890.871	19689
890.995	19700
891.118	19628
891.241	19734
891.364	19620
891.488	19818
891.611	19632
891.734	19597
891.857	19662
891.98	19681
892.103	19681
892.226	19693
892.349	19696
892.471	19491
892.594	19468
892.717	19529
892.839	19499
892.962	19529
893.085	19575
893.207	19480
893.33	19487
893.452	19575
893.575	19491
893.697	19544
893.819	19738
893.941	19704
894.064	19712
894.186	19468
894.308	19464
894.43	19609
894.552	19746
894.674	19693
894.796	19537
894.918	19525
895.04	19567
895.161	19639
895.283	19571
895.405	19495
895.526	19491
895.648	19453
895.769	19582
895.891	19544
896.012	19681
896.134	19567
896.255	19518
896.376	19506
896.498	19533
896.619	19609
896.74	19559
896.861	19632
896.982	19913
897.103	20050
897.224	19856
897.345	19769
897.466	19769
897.587	19864
897.708	20122
897.828	19883
897.949	19788
898.07	19521
898.19	19791
898.311	19799
898.431	19727
898.552	19811
898.672	19818
898.792	19811
898.913	19765
899.033	19712
899.153	19651
899.273	19571
899.393	19525
899.513	19639
899.633	19506
899.753	19601
899.873	19426
899.993	19491
900.113	19487
900.232	19586
900.352	19495
900.472	19434
900.591	19362
900.711	19407
900.83	19369
900.95	19411
901.069	19453
901.189	19285
901.308	19118
901.427	18939
901.546	18886
901.665	18875
901.784	18954
901.904	18901
902.023	18677
902.141	18513
902.26	18456
902.379	18654
902.498	18506
902.617	18437
902.735	18445
902.854	18361
902.973	18380
903.091	18079
903.21	18163
903.328	18083
903.446	18110
903.565	18034
903.683	17935
903.801	17767
903.919	17783
904.038	17851
904.156	17638
904.274	17718
904.392	17733
904.51	17691
904.627	17642
904.745	17897
904.863	17756
904.981	17501
905.098	17433
905.216	17406
905.334	17421
905.451	17341
905.569	17383
905.686	17360
905.803	17364
905.921	17216
906.038	17178
906.155	17170
906.272	16995
906.389	17025
906.506	16896
906.623	16953
906.74	17041
906.857	16824
906.974	16862
907.091	16923
907.208	16987
907.324	16957
907.441	16892
907.557	16725
907.674	16687
907.79	16641
907.907	16554
908.023	16656
908.139	16664
908.256	16672
908.372	16615
908.488	16577
908.604	16356
908.72	16371
908.836	16466
908.952	16341
909.068	16367
909.184	16504
909.3	16405
909.415	16314
909.531	16344
909.647	16158
909.762	16173
909.878	16082
909.993	16036
910.108	16013
910.224	16063
910.339	16059
910.454	15880
910.57	15934
910.685	15819
910.8	16071
910.915	15983
911.03	15892
911.145	15759
911.259	15671
911.374	15671
911.489	15675
911.604	15549
911.718	15458
911.833	15500
911.947	15405
912.062	15351
912.176	15393
912.291	15496
912.405	15523
912.519	15641
912.633	15599
912.748	15564
912.862	15458
912.976	15310
913.09	15123
913.204	15089
913.318	15222
913.431	15439
913.545	15321
913.659	15359
913.772	15241
913.886	15131
914	15043
914.113	15150
914.226	15237
914.34	15058
914.453	14902
914.566	15154
914.68	14914
914.793	14944
914.906	14640
915.019	14648
915.132	14697
915.245	14705
915.358	14697
915.47	14746
915.583	14701
915.696	14697
915.809	14701
915.921	14796
916.034	14632
916.146	14632
916.259	14575
916.371	14659
916.483	14575
916.595	14484
916.708	14526
916.82	14423
916.932	14446
917.044	14537
917.156	14469
917.268	14381
917.38	14374
917.491	14320
917.603	14389
917.715	14419
917.826	14427
917.938	14305
918.049	14161
918.161	14286
918.272	14476
918.384	14446
918.495	14252
918.606	14073
918.717	14065
918.828	14111
918.939	14111
919.05	14043
919.161	14111
919.272	13989
919.383	14001
919.494	14111
919.604	14347
919.715	14024
919.826	14043
919.936	14008
920.047	14149
920.157	14100
920.267	14229
920.378	14008
920.488	14062
920.598	14263
920.708	14465
920.818	14153
920.928	14320
921.038	14362
921.148	14377
921.258	14084
921.368	13970
921.477	13951
921.587	13795
921.697	13655
921.806	13864
921.916	13731
922.025	13510
922.134	13628
922.244	13407
922.353	13464
922.462	13327
922.571	13365
922.68	13126
922.789	13084
922.898	13137
923.007	13137
923.116	13129
923.224	13152
923.333	13076
923.442	13004
923.55	13004
923.659	13053
923.767	13034
923.876	12989
923.984	12935
924.092	12890
924.201	12882
924.309	12935
924.417	12970
924.525	12760
924.633	12791
924.741	13681
924.849	12642
924.956	12810
925.064	12513
925.172	12585
925.279	12604
925.387	12616
925.494	12486
925.602	12700
925.709	12623
925.816	12536
925.924	12475
926.031	12612
926.138	12544
926.245	12578
926.352	12494
926.459	12570
926.566	12566
926.673	12490
926.779	12399
926.886	12353
926.993	12148
927.099	12129
927.206	12194
927.312	12083
927.419	12213
927.525	12144
927.631	12201
927.737	11999
927.843	12038
927.95	11889
928.056	11958
928.162	12019
928.267	12083
928.373	12616
928.479	12003
928.585	11870
928.69	11912
928.796	12019
928.901	11939
929.007	11661
929.112	11893
929.218	11805
929.323	11729
929.428	11703
929.533	11832
929.638	11630
929.743	11722
929.848	11733
929.953	11604
930.058	11512
930.163	11376
930.267	11398
930.372	11474
930.477	11349
930.581	11585
930.685	11395
930.79	11334
930.894	11307
930.998	11299
931.103	11497
931.207	11075
931.311	10984
931.415	10885
931.519	10767
931.623	10702
