Data from test_V78500241_1513.txt Node
Date: Fri Mar 25 15:20:23 CST 2022
User: usil
Spectrometer: V785-0024
Trigger mode: 0
Integration Time (sec): 4.000000E-1
Scans to average: 1
Nonlinearity correction enabled: false
Boxcar width: 0
Storing dark spectrum: false
XAxis mode: Wavelengths
Number of Pixels in Spectrum: 1024
>>>>>Begin Spectral Data<<<<<
801.071	27869
801.214	27823
801.356	27587
801.499	27481
801.641	27439
801.783	27412
801.926	27431
802.068	27469
802.211	27416
802.353	27230
802.496	27199
802.638	27123
802.78	27138
802.923	26914
803.065	26990
803.208	27112
803.35	27169
803.492	27207
803.635	27214
803.777	27096
803.919	27214
804.061	27496
804.204	27401
804.346	27283
804.488	27298
804.63	27340
804.773	27135
804.915	27207
805.057	27447
805.199	27207
805.341	27291
805.483	27435
805.626	27481
805.768	27382
805.91	27447
806.052	27420
806.194	27298
806.336	27599
806.478	27443
806.62	27329
806.762	27500
806.904	27766
807.046	28055
807.188	27934
807.33	28036
807.472	27797
807.614	27827
807.756	27682
807.898	27652
808.04	27701
808.182	27606
808.324	27759
808.465	27644
808.607	27914
808.749	28139
808.891	28002
809.033	28120
809.174	28219
809.316	28109
809.458	28010
809.6	27937
809.741	28162
809.883	28048
810.025	28303
810.166	28261
810.308	28367
810.45	28512
810.591	28211
810.733	28070
810.875	28109
811.016	28010
811.158	27888
811.299	28090
811.441	28150
811.582	28181
811.724	28048
811.865	28150
812.007	28032
812.148	28105
812.29	28124
812.431	28219
812.573	28462
812.714	28455
812.855	28577
812.997	28687
813.138	28733
813.279	28824
813.421	28801
813.562	28481
813.703	28287
813.845	28234
813.986	28051
814.127	27873
814.268	27701
814.41	27865
814.551	27736
814.692	27774
814.833	27583
814.974	27793
815.115	27793
815.256	27641
815.397	27690
815.539	27614
815.68	27545
815.821	27367
815.962	27553
816.103	27443
816.244	27397
816.385	27355
816.526	27256
816.666	27135
816.807	27051
816.948	27066
817.089	27165
817.23	27058
817.371	26849
817.512	27013
817.653	26902
817.793	26906
817.934	27036
818.075	27024
818.216	26899
818.356	26994
818.497	26895
818.638	26842
818.778	26796
818.919	26777
819.06	26804
819.2	26902
819.341	26960
819.481	27039
819.622	27203
819.762	27450
819.903	27127
820.043	27306
820.184	27165
820.324	27222
820.465	27237
820.605	27039
820.746	27123
820.886	27176
821.026	26929
821.167	27100
821.307	27077
821.447	27043
821.588	26986
821.728	26887
821.868	26621
822.008	26602
822.149	26602
822.289	26480
822.429	26313
822.569	26130
822.709	26240
822.849	25875
822.99	26035
823.13	25925
823.27	25993
823.41	25822
823.55	25677
823.69	25791
823.83	25765
823.97	25811
824.11	25609
824.25	25529
824.389	25712
824.529	25712
824.669	25567
824.809	25849
824.949	25696
825.089	25715
825.228	25841
825.368	25445
825.508	25590
825.648	25590
825.787	25559
825.927	25548
826.067	25502
826.206	25556
826.346	25559
826.485	25578
826.625	25438
826.765	25537
826.904	25575
827.044	25304
827.183	25343
827.323	25232
827.462	25308
827.601	25289
827.741	25202
827.88	25247
828.02	25179
828.159	25160
828.298	25221
828.437	25278
828.577	25187
828.716	25301
828.855	25088
828.994	24875
829.134	24939
829.273	25000
829.412	24673
829.551	24894
829.69	25015
829.829	24821
829.968	24932
830.107	25031
830.246	25031
830.385	24875
830.524	24787
830.663	24772
830.802	24658
830.941	24525
831.08	24532
831.219	24631
831.357	24715
831.496	24776
831.635	24525
831.774	24403
831.913	24410
832.051	24243
832.19	24342
832.329	24426
832.467	24224
832.606	24121
832.744	24133
832.883	24194
833.022	24049
833.16	24243
833.299	24194
833.437	24209
833.576	24159
833.714	24232
833.852	24292
833.991	24224
834.129	24323
834.267	24304
834.406	24197
834.544	24319
834.682	24247
834.821	24262
834.959	24471
835.097	24224
835.235	24277
835.373	24220
835.511	24159
835.65	24121
835.788	24171
835.926	23973
836.064	23992
836.202	23999
836.34	24216
836.478	24247
836.615	24038
836.753	24045
836.891	24254
837.029	24155
837.167	24140
837.305	23984
837.443	23927
837.58	24030
837.718	23988
837.856	23942
837.993	23805
838.131	23961
838.269	23790
838.406	23885
838.544	23707
838.681	23501
838.819	23596
838.956	23353
839.094	23471
839.231	23417
839.369	23452
839.506	23859
839.643	23722
839.781	23433
839.918	23254
840.055	23383
840.193	23433
840.33	23197
840.467	23292
840.604	23311
840.742	23611
840.879	23223
841.016	23227
841.153	23189
841.29	23277
841.427	23383
841.564	23292
841.701	23307
841.838	23269
841.975	23223
842.112	23113
842.249	23014
842.385	23018
842.522	23368
842.659	23121
842.796	23079
842.933	23052
843.069	23044
843.206	22915
843.343	23117
843.479	22968
843.616	23121
843.752	22763
843.889	22915
844.025	23052
844.162	22816
844.298	22968
844.435	22740
844.571	22839
844.708	22854
844.844	22881
844.98	22900
845.117	22869
845.253	22847
845.389	22611
845.525	22805
845.661	22721
845.798	22584
845.934	22679
846.07	22630
846.206	22634
846.342	22626
846.478	22660
846.614	22390
846.75	22265
846.886	22169
847.022	22394
847.158	22238
847.294	22150
847.429	22379
847.565	22246
847.701	22413
847.837	22109
847.972	22006
848.108	22078
848.244	22181
848.379	22002
848.515	21911
848.65	21846
848.786	21873
848.921	21876
849.057	21934
849.192	21915
849.328	21907
849.463	21922
849.598	21892
849.734	21819
849.869	21709
850.004	21682
850.14	21614
850.275	21732
850.41	21587
850.545	21686
850.68	21709
850.815	21663
850.95	21629
851.085	21884
851.22	21698
851.355	21724
851.49	21595
851.625	21622
851.76	21618
851.895	21439
852.03	21515
852.165	21618
852.299	21698
852.434	21652
852.569	21667
852.703	21698
852.838	21663
852.973	21781
853.107	21812
853.242	21561
853.376	21511
853.511	21435
853.645	21458
853.78	21549
853.914	21439
854.048	21500
854.183	21378
854.317	21534
854.451	21652
854.585	21599
854.72	21447
854.854	21625
854.988	21412
855.122	21469
855.256	21344
855.39	21359
855.524	21530
855.658	21515
855.792	21473
855.926	21542
856.06	21564
856.194	21454
856.327	21447
856.461	21313
856.595	21378
856.729	21332
856.862	21515
856.996	21477
857.13	21420
857.263	21481
857.397	21564
857.53	21466
857.664	21504
857.797	21534
857.931	21435
858.064	21443
858.197	21603
858.331	21564
858.464	21321
858.597	21351
858.731	21393
858.864	21496
858.997	21363
859.13	21431
859.263	21496
859.396	21568
859.529	21439
859.662	21370
859.795	21374
859.928	21401
860.061	21648
860.194	21595
860.327	21466
860.46	21450
860.592	21587
860.725	21625
860.858	21572
860.99	21412
861.123	21370
861.256	21325
861.388	21428
861.521	22025
861.653	21485
861.786	21351
861.918	21424
862.05	21378
862.183	21222
862.315	21393
862.447	21386
862.58	21260
862.712	21176
862.844	21211
862.976	21355
863.108	21245
863.24	21633
863.372	21043
863.504	21272
863.636	21135
863.768	21233
863.9	21192
864.032	20967
864.164	21100
864.296	21176
864.428	21218
864.559	21306
864.691	21218
864.823	21116
864.954	21104
865.086	20994
865.217	20956
865.349	20975
865.48	21001
865.612	21043
865.743	21176
865.875	21020
866.006	21081
866.137	21028
866.269	21074
866.4	21039
866.531	21017
866.662	21013
866.793	20857
866.924	21108
867.055	21062
867.186	21047
867.317	20918
867.448	20830
867.579	20929
867.71	20872
867.841	20880
867.972	20986
868.103	21039
868.233	21024
868.364	20899
868.495	21085
868.625	21070
868.756	21241
868.886	21157
869.017	21245
869.147	21355
869.278	21272
869.408	21222
869.539	21184
869.669	21321
869.799	21214
869.929	21302
870.06	21260
870.19	21587
870.32	21618
870.45	21511
870.58	21428
870.71	21648
870.84	21671
870.97	21599
871.1	21488
871.23	21656
871.36	21785
871.489	21705
871.619	21789
871.749	21797
871.879	21850
872.008	21968
872.138	21827
872.267	21838
872.397	21717
872.526	21485
872.656	21804
872.785	21728
872.915	21808
873.044	21994
873.173	21876
873.303	21823
873.432	21964
873.561	21895
873.69	21793
873.819	21816
873.948	21850
874.077	21812
874.206	21679
874.335	21884
874.464	21953
874.593	22143
874.722	21964
874.851	22200
874.979	22036
875.108	22128
875.237	21930
875.365	21968
875.494	21991
875.623	22196
875.751	21968
875.88	22055
876.008	22162
876.136	22295
876.265	22451
876.393	22569
876.521	22455
876.65	22478
876.778	22322
876.906	22485
877.034	22360
877.162	22386
877.29	22398
877.418	22436
877.546	22417
877.674	22504
877.802	22352
877.93	22272
878.058	22287
878.185	22322
878.313	22272
878.441	22398
878.568	22276
878.696	22306
878.824	22379
878.951	22390
879.079	22565
879.206	22683
879.333	22508
879.461	22481
879.588	22512
879.715	22569
879.842	22725
879.97	22512
880.097	22215
880.224	22211
880.351	22284
880.478	22246
880.605	22196
880.732	22207
880.859	22379
880.986	22181
881.112	22177
881.239	22093
881.366	22044
881.493	21797
881.619	21789
881.746	21800
881.872	21751
881.999	21766
882.125	21610
882.252	21713
882.378	21739
882.505	21934
882.631	21587
882.757	21599
882.883	21534
883.01	21469
883.136	21370
883.262	21321
883.388	21397
883.514	21428
883.64	21507
883.766	21386
883.892	21233
884.018	21359
884.143	21431
884.269	21466
884.395	21192
884.52	21154
884.646	21161
884.772	21218
884.897	20986
885.023	21180
885.148	21275
885.274	21275
885.399	21264
885.524	21188
885.65	21131
885.775	21142
885.9	21165
886.025	21211
886.15	21188
886.275	21104
886.4	21024
886.525	20979
886.65	20982
886.775	21074
886.9	21363
887.025	21237
887.149	21085
887.274	20956
887.399	20902
887.523	20952
887.648	20830
887.773	20758
887.897	20933
888.021	20990
888.146	20819
888.27	20895
888.395	20994
888.519	20914
888.643	20982
888.767	20872
888.891	20838
889.015	20602
889.139	20689
889.263	20651
889.387	20743
889.511	20838
889.635	20792
889.759	20644
889.883	20686
890.006	20686
890.13	20712
890.254	20583
890.377	20629
890.501	20434
890.624	20434
890.748	20492
890.871	20423
890.995	20286
891.118	20176
891.241	20381
891.364	20149
891.488	20362
891.611	20275
891.734	20278
891.857	20195
891.98	20301
892.103	20233
892.226	20240
892.349	20122
892.471	20012
892.594	20199
892.717	20282
892.839	20039
892.962	20145
893.085	20142
893.207	20187
893.33	20077
893.452	20069
893.575	20339
893.697	20176
893.819	20240
893.941	20336
894.064	20218
894.186	20046
894.308	20164
894.43	20237
894.552	20339
894.674	20142
894.796	19997
894.918	20088
895.04	20115
895.161	20191
895.283	20267
895.405	20096
895.526	20206
895.648	20229
895.769	20058
895.891	20153
896.012	20248
896.134	20153
896.255	20195
896.376	20180
896.498	20142
896.619	20199
896.74	20126
896.861	20282
896.982	20522
897.103	20606
897.224	20446
897.345	20404
897.466	20309
897.587	20419
897.708	20526
897.828	20442
897.949	20301
898.07	20202
898.19	20355
898.311	20415
898.431	20309
898.552	20332
898.672	20423
898.792	20457
898.913	20351
899.033	20206
899.153	20107
899.273	20100
899.393	20107
899.513	20286
899.633	20225
899.753	20168
899.873	20024
899.993	20214
900.113	19989
900.232	20157
900.352	20035
900.472	19913
900.591	19852
900.711	19925
900.83	19890
900.95	20043
901.069	19989
901.189	19849
901.308	19628
901.427	19518
901.546	19453
901.665	19438
901.784	19518
901.904	19388
902.023	19324
902.141	19103
902.26	19072
902.379	19110
902.498	19072
902.617	18981
902.735	19046
902.854	18966
902.973	18859
903.091	18760
903.21	18631
903.328	18719
903.446	18532
903.565	18395
903.683	18563
903.801	18327
903.919	18372
904.038	18346
904.156	18247
904.274	18319
904.392	18224
904.51	18167
904.627	18277
904.745	18308
904.863	18285
904.981	17954
905.098	17908
905.216	17874
905.334	17897
905.451	17870
905.569	17836
905.686	17920
905.803	17954
905.921	17710
906.038	17794
906.155	17767
906.272	17570
906.389	17630
906.506	17395
906.623	17493
906.74	17402
906.857	17368
906.974	17353
907.091	17421
907.208	17577
907.324	17436
907.441	17307
907.557	17242
907.674	17121
907.79	17155
907.907	17090
908.023	17155
908.139	17208
908.256	17090
908.372	17018
908.488	17014
908.604	16965
908.72	16877
908.836	16908
908.952	16736
909.068	16889
909.184	16904
909.3	16873
909.415	16786
909.531	16957
909.647	16577
909.762	16653
909.878	16489
909.993	16622
910.108	16546
910.224	16558
910.339	16626
910.454	16413
910.57	16322
910.685	16322
910.8	16626
910.915	16558
911.03	16360
911.145	16143
911.259	16124
911.374	16082
911.489	16086
911.604	16105
911.718	15960
911.833	15979
911.947	15736
912.062	15739
912.176	15930
912.291	15835
912.405	15857
912.519	16082
912.633	16044
912.748	15861
912.862	15873
912.976	15778
913.09	15580
913.204	15770
913.318	15686
913.431	15861
913.545	15751
913.659	15660
913.772	15660
913.886	15477
914	15515
914.113	15652
914.226	15663
914.34	15576
914.453	15431
914.566	15580
914.68	15370
914.793	15355
914.906	15138
915.019	15184
915.132	15089
915.245	15085
915.358	15150
915.47	15100
915.583	15036
915.696	15207
915.809	15218
915.921	15199
916.034	15024
916.146	15028
916.259	15024
916.371	15100
916.483	14982
916.595	15009
916.708	15020
916.82	15039
916.932	14975
917.044	14982
917.156	14883
917.268	14823
917.38	14849
917.491	14758
917.603	14769
917.715	14872
917.826	14834
917.938	14758
918.049	14682
918.161	14743
918.272	14891
918.384	14902
918.495	14716
918.606	14636
918.717	14533
918.828	14556
918.939	14594
919.05	14480
919.161	14606
919.272	14343
919.383	14423
919.494	14560
919.604	14686
919.715	14556
919.826	14442
919.936	14404
920.047	14427
920.157	14511
920.267	14674
920.378	14499
920.488	14396
920.598	14659
920.708	14842
920.818	14678
920.928	14568
921.038	14819
921.148	14773
921.258	14514
921.368	14328
921.477	14225
921.587	14305
921.697	14138
921.806	14339
921.916	14046
922.025	13913
922.134	13883
922.244	13849
922.353	13936
922.462	13769
922.571	13765
922.68	13609
922.789	13533
922.898	13559
923.007	13533
923.116	13556
923.224	13495
923.333	13480
923.442	13445
923.55	13346
923.659	13381
923.767	13422
923.876	13232
923.984	13354
924.092	13278
924.201	13213
924.309	13240
924.417	13331
924.525	13228
924.633	13228
924.741	13963
924.849	13008
924.956	13251
925.064	13069
925.172	12852
925.279	12935
925.387	13023
925.494	12913
925.602	13126
925.709	13038
925.816	12909
925.924	12920
926.031	13012
926.138	12871
926.245	12932
926.352	12791
926.459	12928
926.566	12981
926.673	12741
926.779	12696
926.886	12719
926.993	12635
927.099	12475
927.206	12410
927.312	12426
927.419	12604
927.525	12570
927.631	12604
927.737	12486
927.843	12369
927.95	12155
928.056	12388
928.162	12357
928.267	12429
928.373	13050
928.479	12452
928.585	12159
928.69	12304
928.796	12327
928.901	12159
929.007	12079
929.112	12205
929.218	12194
929.323	12167
929.428	12049
929.533	12258
929.638	12049
929.743	12068
929.848	12060
929.953	12068
930.058	11897
930.163	11752
930.267	11813
930.372	11901
930.477	11710
930.581	11923
930.685	11843
930.79	11680
930.894	11745
930.998	11615
931.103	11767
931.207	11364
931.311	11326
931.415	11254
931.519	11109
931.623	10976
