Data from test_V78500241_1765.txt Node
Date: Fri Mar 25 15:22:08 CST 2022
User: usil
Spectrometer: V785-0024
Trigger mode: 0
Integration Time (sec): 4.000000E-1
Scans to average: 1
Nonlinearity correction enabled: false
Boxcar width: 0
Storing dark spectrum: false
XAxis mode: Wavelengths
Number of Pixels in Spectrum: 1024
>>>>>Begin Spectral Data<<<<<
801.071	27934
801.214	27835
801.356	27652
801.499	27618
801.641	27504
801.783	27515
801.926	27462
802.068	27450
802.211	27378
802.353	27542
802.496	27077
802.638	27070
802.78	27283
802.923	27062
803.065	27070
803.208	27032
803.35	27074
803.492	27135
803.635	27386
803.777	27340
803.919	27412
804.061	27580
804.204	27351
804.346	27264
804.488	27279
804.63	27435
804.773	27344
804.915	27294
805.057	27386
805.199	27405
805.341	27481
805.483	27496
805.626	27523
805.768	27534
805.91	27454
806.052	27568
806.194	27332
806.336	27660
806.478	27507
806.62	27511
806.762	27682
806.904	27759
807.046	28021
807.188	27937
807.33	27812
807.472	28002
807.614	27880
807.756	27846
807.898	27789
808.04	27701
808.182	27656
808.324	27793
808.465	27766
808.607	27907
808.749	28101
808.891	28207
809.033	28287
809.174	28093
809.316	28223
809.458	28150
809.6	28131
809.741	28265
809.883	28211
810.025	28344
810.166	28280
810.308	28443
810.45	28386
810.591	28318
810.733	28086
810.875	28112
811.016	28067
811.158	27884
811.299	28093
811.441	28204
811.582	28242
811.724	28143
811.865	28074
812.007	27964
812.148	28059
812.29	28025
812.431	28363
812.573	28497
812.714	28565
812.855	28580
812.997	28736
813.138	28930
813.279	28801
813.421	28569
813.562	28588
813.703	28470
813.845	28325
813.986	27994
814.127	28002
814.268	27713
814.41	27907
814.551	27823
814.692	28051
814.833	27804
814.974	27876
815.115	27717
815.256	27644
815.397	27660
815.539	27549
815.68	27538
815.821	27648
815.962	27732
816.103	27469
816.244	27595
816.385	27488
816.526	27427
816.666	27077
816.807	27161
816.948	27070
817.089	27180
817.23	27146
817.371	27017
817.512	27047
817.653	27032
817.793	26952
817.934	27131
818.075	27043
818.216	27009
818.356	26891
818.497	26948
818.638	26830
818.778	26853
818.919	26838
819.06	26842
819.2	26921
819.341	27135
819.481	27058
819.622	27192
819.762	27427
819.903	27256
820.043	27230
820.184	27306
820.324	27222
820.465	27268
820.605	27195
820.746	27123
820.886	27180
821.026	27222
821.167	27074
821.307	27150
821.447	27058
821.588	27047
821.728	26994
821.868	26659
822.008	26689
822.149	26568
822.289	26571
822.429	26362
822.569	26199
822.709	26191
822.849	26001
822.99	26088
823.13	26084
823.27	26065
823.41	25860
823.55	25750
823.69	25906
823.83	25974
823.97	25887
824.11	25628
824.25	25605
824.389	25715
824.529	25681
824.669	25655
824.809	25841
824.949	25704
825.089	25731
825.228	25909
825.368	25537
825.508	25601
825.648	25540
825.787	25685
825.927	25719
826.067	25556
826.206	25533
826.346	25590
826.485	25559
826.625	25620
826.765	25715
826.904	25544
827.044	25324
827.183	25441
827.323	25259
827.462	25255
827.601	25445
827.741	25297
827.88	25365
828.02	25187
828.159	25362
828.298	25373
828.437	25377
828.577	25137
828.716	25403
828.855	25259
828.994	24928
829.134	25091
829.273	25168
829.412	24939
829.551	24981
829.69	25088
829.829	25038
829.968	25027
830.107	25152
830.246	24981
830.385	24954
830.524	24932
830.663	24890
830.802	24833
830.941	24635
831.08	24604
831.219	24745
831.357	24810
831.496	24867
831.635	24661
831.774	24498
831.913	24642
832.051	24437
832.19	24513
832.329	24422
832.467	24407
832.606	24186
832.744	24273
832.883	24384
833.022	24319
833.16	24319
833.299	24315
833.437	24380
833.576	24407
833.714	24399
833.852	24403
833.991	24426
834.129	24410
834.267	24479
834.406	24323
834.544	24426
834.682	24308
834.821	24353
834.959	24536
835.097	24388
835.235	24460
835.373	24369
835.511	24213
835.65	24258
835.788	24273
835.926	24015
836.064	23920
836.202	24095
836.34	24201
836.478	24292
836.615	24171
836.753	24266
836.891	24213
837.029	24285
837.167	24011
837.305	24057
837.443	24087
837.58	24026
837.718	24239
837.856	24026
837.993	23927
838.131	24087
838.269	23946
838.406	24057
838.544	23999
838.681	23741
838.819	23615
838.956	23463
839.094	23490
839.231	23566
839.369	23661
839.506	23851
839.643	23783
839.781	23505
839.918	23490
840.055	23471
840.193	23497
840.33	23410
840.467	23383
840.604	23528
840.742	23722
840.879	23318
841.016	23356
841.153	23299
841.29	23520
841.427	23421
841.564	23490
841.701	23425
841.838	23406
841.975	23376
842.112	23318
842.249	23303
842.385	23223
842.522	23364
842.659	23299
842.796	23044
842.933	23212
843.069	23140
843.206	23109
843.343	23204
843.479	23189
843.616	23151
843.752	23041
843.889	23044
844.025	23185
844.162	22961
844.298	23041
844.435	23014
844.571	22961
844.708	23052
844.844	22915
844.98	23143
845.117	23018
845.253	22904
845.389	23010
845.525	22991
845.661	22828
845.798	22611
845.934	22733
846.07	22653
846.206	22672
846.342	22801
846.478	22706
846.614	22489
846.75	22375
846.886	22443
847.022	22470
847.158	22519
847.294	22470
847.429	22379
847.565	22409
847.701	22729
847.837	22360
847.972	22124
848.108	22276
848.244	22219
848.379	22090
848.515	22067
848.65	21983
848.786	21922
848.921	22090
849.057	22158
849.192	22120
849.328	22032
849.463	21979
849.598	22021
849.734	21922
849.869	21831
850.004	21778
850.14	21679
850.275	21835
850.41	21751
850.545	21732
850.68	21667
850.815	21717
850.95	21823
851.085	22017
851.22	21827
851.355	21835
851.49	21827
851.625	21911
851.76	21915
851.895	21778
852.03	21736
852.165	21724
852.299	21797
852.434	21937
852.569	21823
852.703	21816
852.838	21895
852.973	21907
853.107	21903
853.242	21766
853.376	21667
853.511	21587
853.645	21564
853.78	21747
853.914	21705
854.048	21557
854.183	21614
854.317	21633
854.451	21816
854.585	21660
854.72	21690
854.854	21720
854.988	21576
855.122	21625
855.256	21561
855.39	21595
855.524	21637
855.658	21614
855.792	21705
855.926	21625
856.06	21679
856.194	21660
856.327	21488
856.461	21576
856.595	21511
856.729	21542
856.862	21603
856.996	21542
857.13	21564
857.263	21694
857.397	21690
857.53	21591
857.664	21747
857.797	21663
857.931	21831
858.064	21610
858.197	21701
858.331	21454
858.464	21568
858.597	21561
858.731	21599
858.864	21603
858.997	21599
859.13	21572
859.263	21622
859.396	21652
859.529	21625
859.662	21553
859.795	21629
859.928	21492
860.061	21827
860.194	21854
860.327	21614
860.46	21682
860.592	21755
860.725	21823
860.858	21675
860.99	21724
861.123	21488
861.256	21504
861.388	21610
861.521	22310
861.653	21511
861.786	21363
861.918	21431
862.05	21469
862.183	21545
862.315	21568
862.447	21580
862.58	21412
862.712	21424
862.844	21283
862.976	21515
863.108	21382
863.24	21720
863.372	21207
863.504	21325
863.636	21355
863.768	21351
863.9	21252
864.032	21325
864.164	21283
864.296	21325
864.428	21443
864.559	21336
864.691	21523
864.823	21348
864.954	21397
865.086	21291
865.217	21173
865.349	21089
865.48	21298
865.612	21245
865.743	21408
865.875	21157
866.006	21302
866.137	21199
866.269	21252
866.4	21081
866.531	21074
866.662	21055
866.793	21184
866.924	21188
867.055	21096
867.186	21131
867.317	21157
867.448	21013
867.579	21070
867.71	21108
867.841	20952
867.972	21100
868.103	21112
868.233	21188
868.364	21154
868.495	21249
868.625	21416
868.756	21481
868.886	21291
869.017	21412
869.147	21462
869.278	21412
869.408	21439
869.539	21469
869.669	21454
869.799	21481
869.929	21534
870.06	21435
870.19	21755
870.32	21694
870.45	21667
870.58	21857
870.71	21823
870.84	21793
870.97	21762
871.1	21838
871.23	21903
871.36	22017
871.489	21854
871.619	21907
871.749	21960
871.879	21899
872.008	22124
872.138	21903
872.267	21918
872.397	21865
872.526	21781
872.656	21812
872.785	21793
872.915	22063
873.044	22059
873.173	21979
873.303	22010
873.432	22010
873.561	22112
873.69	21956
873.819	22002
873.948	22006
874.077	21983
874.206	21930
874.335	21934
874.464	22112
874.593	22147
874.722	22204
874.851	22158
874.979	22306
875.108	22306
875.237	22310
875.365	22124
875.494	22078
875.623	22306
875.751	22314
875.88	22207
876.008	22306
876.136	22512
876.265	22656
876.393	22752
876.521	22622
876.65	22748
876.778	22710
876.906	22584
877.034	22592
877.162	22523
877.29	22672
877.418	22565
877.546	22588
877.674	22565
877.802	22527
877.93	22527
878.058	22405
878.185	22447
878.313	22516
878.441	22508
878.568	22417
878.696	22428
878.824	22512
878.951	22649
879.079	22729
879.206	22877
879.333	22854
879.461	22546
879.588	22809
879.715	22755
879.842	22835
879.97	22672
880.097	22394
880.224	22394
880.351	22432
880.478	22375
880.605	22386
880.732	22470
880.859	22599
880.986	22299
881.112	22634
881.239	22299
881.366	22017
881.493	22036
881.619	21884
881.746	21926
881.872	21892
881.999	21991
882.125	21934
882.252	21926
882.378	21987
882.505	22040
882.631	21857
882.757	21595
882.883	21770
883.01	21679
883.136	21568
883.262	21431
883.388	21454
883.514	21641
883.64	21614
883.766	21576
883.892	21511
884.018	21488
884.143	21698
884.269	21713
884.395	21416
884.52	21294
884.646	21454
884.772	21264
884.897	21195
885.023	21340
885.148	21504
885.274	21447
885.399	21439
885.524	21332
885.65	21279
885.775	21359
885.9	21298
886.025	21412
886.15	21351
886.275	21298
886.4	21245
886.525	21249
886.65	21165
886.775	21233
886.9	21268
887.025	21561
887.149	21188
887.274	21264
887.399	21032
887.523	21001
887.648	20948
887.773	20986
887.897	21233
888.021	21192
888.146	21024
888.27	21173
888.395	21116
888.519	21123
888.643	21066
888.767	21146
888.891	20921
889.015	20975
889.139	20979
889.263	20899
889.387	20967
889.511	21146
889.635	21085
889.759	20864
889.883	20826
890.006	20788
890.13	20952
890.254	20796
890.377	20773
890.501	20621
890.624	20613
890.748	20693
890.871	20606
890.995	20499
891.118	20473
891.241	20522
891.364	20492
891.488	20678
891.611	20431
891.734	20522
891.857	20488
891.98	20499
892.103	20571
892.226	20446
892.349	20457
892.471	20153
892.594	20374
892.717	20393
892.839	20374
892.962	20351
893.085	20442
893.207	20313
893.33	20317
893.452	20202
893.575	20412
893.697	20202
893.819	20499
893.941	20549
894.064	20484
894.186	20267
894.308	20419
894.43	20423
894.552	20568
894.674	20469
894.796	20290
894.918	20366
895.04	20214
895.161	20495
895.283	20374
895.405	20374
895.526	20396
895.648	20290
895.769	20461
895.891	20495
896.012	20408
896.134	20294
896.255	20358
896.376	20183
896.498	20248
896.619	20381
896.74	20431
896.861	20351
896.982	20655
897.103	20739
897.224	20678
897.345	20594
897.466	20503
897.587	20598
897.708	20659
897.828	20579
897.949	20438
898.07	20290
898.19	20461
898.311	20670
898.431	20511
898.552	20454
898.672	20651
898.792	20670
898.913	20450
899.033	20415
899.153	20237
899.273	20282
899.393	20290
899.513	20313
899.633	20286
899.753	20309
899.873	20210
899.993	20434
900.113	20176
900.232	20263
900.352	20221
900.472	20073
900.591	19993
900.711	20069
900.83	20008
900.95	20100
901.069	20168
901.189	19906
901.308	19731
901.427	19506
901.546	19563
901.665	19571
901.784	19738
901.904	19506
902.023	19388
902.141	19168
902.26	19057
902.379	19225
902.498	19027
902.617	19004
902.735	19133
902.854	19145
902.973	19042
903.091	18825
903.21	18707
903.328	18856
903.446	18772
903.565	18566
903.683	18646
903.801	18502
903.919	18612
904.038	18669
904.156	18391
904.274	18346
904.392	18319
904.51	18369
904.627	18395
904.745	18384
904.863	18498
904.981	18190
905.098	18003
905.216	18045
905.334	18057
905.451	18133
905.569	18041
905.686	18087
905.803	18072
905.921	17904
906.038	17923
906.155	17916
906.272	17718
906.389	17760
906.506	17726
906.623	17573
906.74	17676
906.857	17570
906.974	17440
907.091	17646
907.208	17627
907.324	17554
907.441	17528
907.557	17326
907.674	17280
907.79	17242
907.907	17174
908.023	17303
908.139	17349
908.256	17239
908.372	17132
908.488	17197
908.604	17090
908.72	16987
908.836	17079
908.952	17056
909.068	16999
909.184	17094
909.3	17075
909.415	17067
909.531	17052
909.647	16801
909.762	16786
909.878	16782
909.993	16778
910.108	16706
910.224	16672
910.339	16649
910.454	16516
910.57	16546
910.685	16455
910.8	16725
910.915	16713
911.03	16546
911.145	16398
911.259	16280
911.374	16272
911.489	16318
911.604	16272
911.718	16048
911.833	16051
911.947	15915
912.062	15831
912.176	16021
912.291	16021
912.405	16090
912.519	16188
912.633	16242
912.748	15979
912.862	15968
912.976	16013
913.09	15827
913.204	15876
913.318	15922
913.431	16048
913.545	15953
913.659	15895
913.772	15800
913.886	15675
914	15622
914.113	15770
914.226	15816
914.34	15698
914.453	15682
914.566	15739
914.68	15542
914.793	15488
914.906	15447
915.019	15291
915.132	15264
915.245	15237
915.358	15397
915.47	15310
915.583	15340
915.696	15393
915.809	15378
915.921	15336
916.034	15272
916.146	15195
916.259	15047
916.371	15184
916.483	15199
916.595	15173
916.708	15066
916.82	15058
916.932	15211
917.044	15089
917.156	15043
917.268	14933
917.38	14956
917.491	14975
917.603	14933
917.715	14967
917.826	15024
917.938	14800
918.049	14765
918.161	14857
918.272	14994
918.384	15081
918.495	14788
918.606	14727
918.717	14571
918.828	14765
918.939	14689
919.05	14484
919.161	14556
919.272	14381
919.383	14423
919.494	14693
919.604	14918
919.715	14735
919.826	14556
919.936	14613
920.047	14682
920.157	14636
920.267	14891
920.378	14613
920.488	14590
920.598	14826
920.708	14853
920.818	14773
920.928	14735
921.038	14868
921.148	14845
921.258	14625
921.368	14442
921.477	14438
921.587	14339
921.697	14309
921.806	14434
921.916	14183
922.025	14123
922.134	14001
922.244	13887
922.353	14084
922.462	13890
922.571	13799
922.68	13636
922.789	13605
922.898	13628
923.007	13601
923.116	13651
923.224	13734
923.333	13628
923.442	13544
923.55	13472
923.659	13521
923.767	13563
923.876	13441
923.984	13499
924.092	13377
924.201	13480
924.309	13449
924.417	13460
924.525	13339
924.633	13301
924.741	14138
924.849	13206
924.956	13266
925.064	13107
925.172	12989
925.279	13095
925.387	13053
925.494	13069
925.602	13198
925.709	13103
925.816	13099
925.924	12989
926.031	13038
926.138	12920
926.245	13015
926.352	12916
926.459	13008
926.566	13141
926.673	12943
926.779	12935
926.886	12798
926.993	12646
927.099	12688
927.206	12574
927.312	12551
927.419	12631
927.525	12578
927.631	12696
927.737	12521
927.843	12414
927.95	12388
928.056	12452
928.162	12490
928.267	12506
928.373	13156
928.479	12528
928.585	12281
928.69	12483
928.796	12410
928.901	12319
929.007	12045
929.112	12285
929.218	12292
929.323	12277
929.428	12152
929.533	12304
929.638	12121
929.743	12213
929.848	12121
929.953	12064
930.058	12072
930.163	11836
930.267	11821
930.372	12068
930.477	11802
930.581	12072
930.685	11843
930.79	11707
930.894	11737
930.998	11699
931.103	11923
931.207	11539
931.311	11402
931.415	11311
931.519	11117
931.623	11075
