Data from test_V78500241_2554.txt Node
Date: Fri Mar 25 15:27:38 CST 2022
User: usil
Spectrometer: V785-0024
Trigger mode: 0
Integration Time (sec): 4.000000E-1
Scans to average: 1
Nonlinearity correction enabled: false
Boxcar width: 0
Storing dark spectrum: false
XAxis mode: Wavelengths
Number of Pixels in Spectrum: 1024
>>>>>Begin Spectral Data<<<<<
801.071	27325
801.214	27241
801.356	27005
801.499	26994
801.641	26754
801.783	26842
801.926	26834
802.068	26769
802.211	26674
802.353	26724
802.496	26621
802.638	26362
802.78	26412
802.923	26415
803.065	26400
803.208	26499
803.35	26488
803.492	26480
803.635	26613
803.777	26526
803.919	26693
804.061	26887
804.204	26678
804.346	26511
804.488	26560
804.63	26609
804.773	26560
804.915	26514
805.057	26739
805.199	26606
805.341	26609
805.483	26849
805.626	26712
805.768	26663
805.91	26735
806.052	26769
806.194	26720
806.336	26895
806.478	26739
806.62	26697
806.762	26880
806.904	26986
807.046	27176
807.188	27154
807.33	27203
807.472	27154
807.614	27131
807.756	27157
807.898	26990
808.04	26880
808.182	26929
808.324	26963
808.465	27077
808.607	27112
808.749	27230
808.891	27435
809.033	27580
809.174	27367
809.316	27416
809.458	27348
809.6	27207
809.741	27386
809.883	27450
810.025	27663
810.166	27610
810.308	27755
810.45	27591
810.591	27492
810.733	27443
810.875	27203
811.016	27332
811.158	27275
811.299	27427
811.441	27462
811.582	27564
811.724	27294
811.865	27230
812.007	27173
812.148	27264
812.29	27275
812.431	27507
812.573	27648
812.714	27671
812.855	27785
812.997	27869
813.138	28097
813.279	27869
813.421	27778
813.562	27800
813.703	27641
813.845	27629
813.986	27279
814.127	27093
814.268	26940
814.41	26918
814.551	26895
814.692	27081
814.833	27062
814.974	26971
815.115	27017
815.256	26880
815.397	26792
815.539	26876
815.68	26834
815.821	26708
815.962	26796
816.103	26720
816.244	26727
816.385	26644
816.526	26541
816.666	26332
816.807	26218
816.948	26309
817.089	26385
817.23	26374
817.371	26267
817.512	26149
817.653	26294
817.793	26122
817.934	26336
818.075	26221
818.216	26298
818.356	26259
818.497	26077
818.638	25849
818.778	25970
818.919	25932
819.06	26001
819.2	26191
819.341	26320
819.481	26134
819.622	26233
819.762	26571
819.903	26404
820.043	26415
820.184	26404
820.324	26320
820.465	26263
820.605	26412
820.746	26370
820.886	26225
821.026	26362
821.167	26237
821.307	26419
821.447	26423
821.588	26161
821.728	26035
821.868	25921
822.008	25761
822.149	25708
822.289	25780
822.429	25457
822.569	25270
822.709	25582
822.849	25168
822.99	25240
823.13	25148
823.27	25164
823.41	25122
823.55	24905
823.69	24920
823.83	25057
823.97	24958
824.11	24840
824.25	24852
824.389	24882
824.529	24977
824.669	24772
824.809	24844
824.949	24981
825.089	24878
825.228	24871
825.368	24825
825.508	24711
825.648	24787
825.787	24787
825.927	24798
826.067	24776
826.206	24741
826.346	24837
826.485	24814
826.625	24787
826.765	24741
826.904	24890
827.044	24528
827.183	24395
827.323	24426
827.462	24536
827.601	24490
827.741	24369
827.88	24494
828.02	24315
828.159	24380
828.298	24498
828.437	24376
828.577	24490
828.716	24585
828.855	24433
828.994	24152
829.134	24194
829.273	24224
829.412	24178
829.551	24095
829.69	24011
829.829	24258
829.968	24155
830.107	24270
830.246	24228
830.385	24133
830.524	23954
830.663	23916
830.802	23813
830.941	23794
831.08	23798
831.219	23840
831.357	23878
831.496	23935
831.635	23870
831.774	23847
831.913	23699
832.051	23615
832.19	23558
832.329	23604
832.467	23509
832.606	23387
832.744	23455
832.883	23395
833.022	23448
833.16	23471
833.299	23535
833.437	23596
833.576	23634
833.714	23581
833.852	23596
833.991	23615
834.129	23619
834.267	23551
834.406	23551
834.544	23474
834.682	23680
834.821	23395
834.959	23638
835.097	23516
835.235	23691
835.373	23577
835.511	23531
835.65	23402
835.788	23372
835.926	23277
836.064	23185
836.202	23200
836.34	23360
836.478	23398
836.615	23334
836.753	23395
836.891	23406
837.029	23383
837.167	23482
837.305	23273
837.443	23113
837.58	23254
837.718	23326
837.856	23334
837.993	23200
838.131	23204
838.269	23003
838.406	23071
838.544	23060
838.681	22820
838.819	22869
838.956	22862
839.094	22778
839.231	22873
839.369	22797
839.506	23174
839.643	22972
839.781	22767
839.918	22622
840.055	22592
840.193	22645
840.33	22641
840.467	22702
840.604	22672
840.742	22972
840.879	22588
841.016	22554
841.153	22512
841.29	22809
841.427	22546
841.564	22664
841.701	22752
841.838	22630
841.975	22573
842.112	22573
842.249	22577
842.385	22382
842.522	22546
842.659	22546
842.796	22337
842.933	22337
843.069	22325
843.206	22291
843.343	22504
843.479	22394
843.616	22390
843.752	22249
843.889	22131
844.025	22226
844.162	22150
844.298	22363
844.435	22166
844.571	22242
844.708	22173
844.844	22314
844.98	22276
845.117	22181
845.253	22078
845.389	21888
845.525	22101
845.661	22067
845.798	21854
845.934	21991
846.07	21857
846.206	21922
846.342	21937
846.478	21911
846.614	21652
846.75	21591
846.886	21690
847.022	21831
847.158	21682
847.294	21690
847.429	21724
847.565	21637
847.701	21823
847.837	21389
847.972	21336
848.108	21523
848.244	21408
848.379	21367
848.515	21188
848.65	21249
848.786	21237
848.921	21199
849.057	21260
849.192	21310
849.328	21264
849.463	21264
849.598	21188
849.734	21074
849.869	21100
850.004	20967
850.14	21066
850.275	21081
850.41	20895
850.545	20944
850.68	20891
850.815	21066
850.95	21013
851.085	21161
851.22	21131
851.355	20914
851.49	20975
851.625	21089
851.76	20990
851.895	21116
852.03	20876
852.165	21127
852.299	21036
852.434	21062
852.569	20990
852.703	21157
852.838	21009
852.973	21211
853.107	21055
853.242	20887
853.376	20811
853.511	20746
853.645	20762
853.78	20952
853.914	20686
854.048	20834
854.183	20720
854.317	20899
854.451	21066
854.585	20781
854.72	20739
854.854	20823
854.988	20731
855.122	20701
855.256	20697
855.39	20769
855.524	20918
855.658	20861
855.792	20872
855.926	20823
856.06	20864
856.194	20986
856.327	20815
856.461	20735
856.595	20788
856.729	20986
856.862	20933
856.996	20792
857.13	20842
857.263	20971
857.397	20941
857.53	20826
857.664	20921
857.797	20899
857.931	20864
858.064	20868
858.197	20921
858.331	20830
858.464	20777
858.597	20739
858.731	20914
858.864	20872
858.997	20792
859.13	20830
859.263	20849
859.396	20998
859.529	20834
859.662	20792
859.795	20842
859.928	20830
860.061	20990
860.194	21066
860.327	20876
860.46	20830
860.592	20960
860.725	21024
860.858	20941
860.99	20880
861.123	20762
861.256	20716
861.388	20773
861.521	21408
861.653	20792
861.786	20682
861.918	20667
862.05	20727
862.183	20826
862.315	20823
862.447	20746
862.58	20689
862.712	20530
862.844	20514
862.976	20750
863.108	20758
863.24	21138
863.372	20503
863.504	20663
863.636	20609
863.768	20644
863.9	20514
864.032	20484
864.164	20461
864.296	20511
864.428	20594
864.559	20613
864.691	20575
864.823	20571
864.954	20442
865.086	20549
865.217	20549
865.349	20389
865.48	20377
865.612	20480
865.743	20503
865.875	20404
866.006	20446
866.137	20522
866.269	20347
866.4	20476
866.531	20446
866.662	20374
866.793	20442
866.924	20404
867.055	20347
867.186	20423
867.317	20404
867.448	20317
867.579	20393
867.71	20400
867.841	20229
867.972	20438
868.103	20328
868.233	20408
868.364	20400
868.495	20480
868.625	20594
868.756	20819
868.886	20560
869.017	20640
869.147	20739
869.278	20739
869.408	20541
869.539	20621
869.669	20693
869.799	20731
869.929	20686
870.06	20826
870.19	21005
870.32	20849
870.45	21119
870.58	20994
870.71	21093
870.84	21142
870.97	20998
871.1	21009
871.23	21085
871.36	21207
871.489	21108
871.619	21245
871.749	21119
871.879	21272
872.008	21340
872.138	21283
872.267	21222
872.397	21138
872.526	21039
872.656	21173
872.785	21093
872.915	21245
873.044	21405
873.173	21298
873.303	21313
873.432	21386
873.561	21336
873.69	21275
873.819	21176
873.948	21359
874.077	21329
874.206	21157
874.335	21279
874.464	21389
874.593	21572
874.722	21424
874.851	21534
874.979	21515
875.108	21614
875.237	21587
875.365	21469
875.494	21462
875.623	21568
875.751	21481
875.88	21439
876.008	21644
876.136	21705
876.265	21778
876.393	22029
876.521	22082
876.65	21964
876.778	21903
876.906	21804
877.034	21842
877.162	21827
877.29	21762
877.418	21857
877.546	21937
877.674	21865
877.802	21713
877.93	21736
878.058	21857
878.185	21766
878.313	21766
878.441	21831
878.568	21675
878.696	21907
878.824	21816
878.951	21838
879.079	22002
879.206	22169
879.333	22036
879.461	21873
879.588	21960
879.715	22021
879.842	22116
879.97	22048
880.097	21694
880.224	21705
880.351	21751
880.478	21644
880.605	21747
880.732	21739
880.859	21842
880.986	21705
881.112	21701
881.239	21447
881.366	21504
881.493	21264
881.619	21211
881.746	21252
881.872	21207
881.999	21264
882.125	21241
882.252	21264
882.378	21351
882.505	21313
882.631	21154
882.757	21070
882.883	21100
883.01	20880
883.136	20823
883.262	20678
883.388	20849
883.514	20979
883.64	20853
883.766	20819
883.892	20724
884.018	20762
884.143	20914
884.269	21024
884.395	20655
884.52	20533
884.646	20629
884.772	20606
884.897	20625
885.023	20632
885.148	20754
885.274	20739
885.399	20765
885.524	20629
885.65	20636
885.775	20602
885.9	20621
886.025	20746
886.15	20617
886.275	20629
886.4	20632
886.525	20587
886.65	20484
886.775	20571
886.9	20701
887.025	20853
887.149	20518
887.274	20469
887.399	20366
887.523	20336
887.648	20465
887.773	20199
887.897	20431
888.021	20370
888.146	20309
888.27	20408
888.395	20541
888.519	20366
888.643	20332
888.767	20393
888.891	20278
889.015	20149
889.139	20339
889.263	20008
889.387	20324
889.511	20419
889.635	20252
889.759	20187
889.883	20225
890.006	20286
890.13	20271
890.254	20081
890.377	20122
890.501	19982
890.624	19932
890.748	20046
890.871	19902
890.995	19803
891.118	19765
891.241	19719
891.364	19784
891.488	19822
891.611	19772
891.734	19731
891.857	19913
891.98	19784
892.103	19666
892.226	19868
892.349	19906
892.471	19476
892.594	19708
892.717	19651
892.839	19556
892.962	19788
893.085	19700
893.207	19632
893.33	19567
893.452	19544
893.575	19651
893.697	19559
893.819	19871
893.941	19845
894.064	19814
894.186	19693
894.308	19651
894.43	19761
894.552	19871
894.674	19681
894.796	19624
894.918	19571
895.04	19616
895.161	19712
895.283	19750
895.405	19620
895.526	19727
895.648	19696
895.769	19685
895.891	19708
896.012	19784
896.134	19776
896.255	19719
896.376	19567
896.498	19681
896.619	19715
896.74	19738
896.861	19712
896.982	19989
897.103	20050
897.224	20012
897.345	19811
897.466	19887
897.587	19913
897.708	19997
897.828	19989
897.949	19879
898.07	19655
898.19	19879
898.311	19970
898.431	19852
898.552	19871
898.672	20020
898.792	19894
898.913	19818
899.033	19822
899.153	19830
899.273	19643
899.393	19700
899.513	19719
899.633	19651
899.753	19655
899.873	19578
899.993	19552
900.113	19620
900.232	19601
900.352	19567
900.472	19449
900.591	19438
900.711	19331
900.83	19457
900.95	19624
901.069	19495
901.189	19343
901.308	19255
901.427	19031
901.546	19072
901.665	19034
901.784	18951
901.904	19000
902.023	18814
902.141	18479
902.26	18563
902.379	18620
902.498	18551
902.617	18452
902.735	18555
902.854	18574
902.973	18452
903.091	18289
903.21	18232
903.328	18239
903.446	18144
903.565	18163
903.683	17999
903.801	17939
903.919	17992
904.038	17965
904.156	17771
904.274	17923
904.392	17668
904.51	17840
904.627	17901
904.745	17851
904.863	17798
904.981	17520
905.098	17592
905.216	17471
905.334	17520
905.451	17459
905.569	17486
905.686	17417
905.803	17482
905.921	17284
906.038	17326
906.155	17280
906.272	17197
906.389	17212
906.506	16961
906.623	17014
906.74	16976
906.857	16908
906.974	16927
907.091	17083
907.208	17162
907.324	17037
907.441	16889
907.557	16691
907.674	16793
907.79	16763
907.907	16664
908.023	16812
908.139	16797
908.256	16653
908.372	16641
908.488	16554
908.604	16409
908.72	16443
908.836	16443
908.952	16405
909.068	16516
909.184	16618
909.3	16375
909.415	16481
909.531	16337
909.647	16192
909.762	16215
909.878	16211
909.993	16166
910.108	16112
910.224	16128
910.339	16192
910.454	16055
910.57	15983
910.685	15953
910.8	16211
910.915	16211
911.03	16017
911.145	15800
911.259	15675
911.374	15850
911.489	15736
911.604	15652
911.718	15576
911.833	15568
911.947	15511
912.062	15466
912.176	15576
912.291	15720
912.405	15606
912.519	15793
912.633	15713
912.748	15682
912.862	15488
912.976	15367
913.09	15154
913.204	15272
913.318	15389
913.431	15523
913.545	15389
913.659	15481
913.772	15321
913.886	15176
914	15127
914.113	15184
914.226	15275
914.34	15165
914.453	15009
914.566	15260
914.68	15077
914.793	14944
914.906	14842
915.019	14796
915.132	14632
915.245	14708
915.358	14781
915.47	14701
915.583	14758
915.696	14750
915.809	14891
915.921	14937
916.034	14705
916.146	14697
916.259	14670
916.371	14735
916.483	14686
916.595	14621
916.708	14564
916.82	14575
916.932	14636
917.044	14606
917.156	14499
917.268	14400
917.38	14503
917.491	14362
917.603	14446
917.715	14522
917.826	14568
917.938	14396
918.049	14278
918.161	14412
918.272	14537
918.384	14518
918.495	14362
918.606	14191
918.717	14096
918.828	14195
918.939	14229
919.05	14145
919.161	14157
919.272	13967
919.383	14077
919.494	14237
919.604	14393
919.715	14206
919.826	14058
919.936	14126
920.047	14252
920.157	14210
920.267	14377
920.378	14225
920.488	14202
920.598	14339
920.708	14492
920.818	14275
920.928	14313
921.038	14461
921.148	14419
921.258	13989
921.368	14138
921.477	13944
921.587	13837
921.697	13738
921.806	13909
921.916	13628
922.025	13647
922.134	13658
922.244	13575
922.353	13594
922.462	13487
922.571	13320
922.68	13255
922.789	13293
922.898	13202
923.007	13076
923.116	13236
923.224	13141
923.333	13126
923.442	13012
923.55	13103
923.659	13126
923.767	13129
923.876	12966
923.984	13065
924.092	12954
924.201	13031
924.309	12981
924.417	13076
924.525	12852
924.633	12905
924.741	13856
924.849	12696
924.956	12779
925.064	12620
925.172	12631
925.279	12642
925.387	12662
925.494	12616
925.602	12715
925.709	12741
925.816	12563
925.924	12578
926.031	12738
926.138	12612
926.245	12654
926.352	12475
926.459	12570
926.566	12665
926.673	12490
926.779	12353
926.886	12429
926.993	12205
927.099	12144
927.206	12159
927.312	12194
927.419	12277
927.525	12167
927.631	12216
927.737	12083
927.843	12083
927.95	12003
928.056	12068
928.162	12102
928.267	12095
928.373	12772
928.479	12095
928.585	11821
928.69	12019
928.796	12060
928.901	11961
929.007	11802
929.112	11863
929.218	11893
929.323	11786
929.428	11813
929.533	11817
929.638	11775
929.743	11756
929.848	11710
929.953	11703
930.058	11573
930.163	11532
930.267	11482
930.372	11604
930.477	11410
930.581	11676
930.685	11558
930.79	11360
930.894	11318
930.998	11364
931.103	11516
931.207	11159
931.311	11083
931.415	10923
931.519	10801
931.623	10755
