Data from test_V78500241_3195.txt Node
Date: Fri Mar 25 15:32:06 CST 2022
User: usil
Spectrometer: V785-0024
Trigger mode: 0
Integration Time (sec): 4.000000E-1
Scans to average: 1
Nonlinearity correction enabled: false
Boxcar width: 0
Storing dark spectrum: false
XAxis mode: Wavelengths
Number of Pixels in Spectrum: 1024
>>>>>Begin Spectral Data<<<<<
801.071	27150
801.214	26990
801.356	26686
801.499	26636
801.641	26537
801.783	26617
801.926	26545
802.068	26590
802.211	26404
802.353	26305
802.496	26305
802.638	26267
802.78	25993
802.923	26077
803.065	26092
803.208	25978
803.35	26191
803.492	26237
803.635	26366
803.777	26221
803.919	26328
804.061	26564
804.204	26252
804.346	26240
804.488	26180
804.63	26271
804.773	26161
804.915	26180
805.057	26412
805.199	26244
805.341	26328
805.483	26313
805.626	26366
805.768	26240
805.91	26366
806.052	26374
806.194	26267
806.336	26693
806.478	26461
806.62	26324
806.762	26442
806.904	26617
807.046	26990
807.188	26819
807.33	26815
807.472	26880
807.614	26651
807.756	26678
807.898	26590
808.04	26419
808.182	26625
808.324	26602
808.465	26549
808.607	26678
808.749	26849
808.891	27024
809.033	27165
809.174	27100
809.316	26921
809.458	27017
809.6	26940
809.741	27051
809.883	26967
810.025	27275
810.166	27192
810.308	27188
810.45	27116
810.591	27154
810.733	27009
810.875	26861
811.016	26785
811.158	26777
811.299	26906
811.441	27173
811.582	27104
811.724	26868
811.865	26838
812.007	26895
812.148	26773
812.29	26956
812.431	27123
812.573	27192
812.714	27256
812.855	27424
812.997	27466
813.138	27625
813.279	27515
813.421	27488
813.562	27344
813.703	27249
813.845	26967
813.986	26876
814.127	26655
814.268	26556
814.41	26579
814.551	26617
814.692	26674
814.833	26507
814.974	26651
815.115	26537
815.256	26465
815.397	26332
815.539	26252
815.68	26320
815.821	26282
815.962	26358
816.103	26404
816.244	26263
816.385	26115
816.526	26122
816.666	25879
816.807	25689
816.948	25978
817.089	25970
817.23	25799
817.371	25875
817.512	25738
817.653	25776
817.793	25689
817.934	25837
818.075	25712
818.216	25849
818.356	25738
818.497	25658
818.638	25483
818.778	25514
818.919	25586
819.06	25613
819.2	25674
819.341	25906
819.481	25822
819.622	25936
819.762	25917
819.903	26020
820.043	26035
820.184	25913
820.324	25940
820.465	25974
820.605	25993
820.746	25830
820.886	25700
821.026	25849
821.167	25784
821.307	25902
821.447	25833
821.588	25643
821.728	25578
821.868	25434
822.008	25335
822.149	25365
822.289	25289
822.429	24939
822.569	25065
822.709	24863
822.849	24741
822.99	24810
823.13	24833
823.27	24798
823.41	24623
823.55	24544
823.69	24620
823.83	24661
823.97	24513
824.11	24380
824.25	24407
824.389	24551
824.529	24475
824.669	24433
824.809	24456
824.949	24528
825.089	24509
825.228	24448
825.368	24334
825.508	24197
825.648	24213
825.787	24311
825.927	24346
826.067	24171
826.206	24201
826.346	24395
826.485	24296
826.625	24315
826.765	24357
826.904	24304
827.044	24163
827.183	24068
827.323	23999
827.462	24106
827.601	23946
827.741	23969
827.88	24022
828.02	23901
828.159	23939
828.298	23946
828.437	24083
828.577	23874
828.716	24076
828.855	23859
828.994	23634
829.134	23752
829.273	23707
829.412	23699
829.551	23589
829.69	23691
829.829	23722
829.968	23821
830.107	23756
830.246	23684
830.385	23596
830.524	23672
830.663	23467
830.802	23478
830.941	23220
831.08	23261
831.219	23436
831.357	23406
831.496	23505
831.635	23356
831.774	23265
831.913	23086
832.051	23071
832.19	23044
832.329	23079
832.467	23159
832.606	22885
832.744	22984
832.883	23086
833.022	22911
833.16	23086
833.299	23018
833.437	23109
833.576	23071
833.714	23052
833.852	23197
833.991	23113
834.129	23189
834.267	23140
834.406	23159
834.544	23166
834.682	23006
834.821	23113
834.959	23181
835.097	22995
835.235	23048
835.373	23060
835.511	23102
835.65	22984
835.788	22965
835.926	22915
836.064	22736
836.202	22713
836.34	22869
836.478	23159
836.615	22824
836.753	22892
836.891	22927
837.029	22991
837.167	22911
837.305	22778
837.443	22713
837.58	22778
837.718	22771
837.856	22831
837.993	22805
838.131	22812
838.269	22645
838.406	22698
838.544	22645
838.681	22421
838.819	22382
838.956	22299
839.094	22204
839.231	22200
839.369	22379
839.506	22599
839.643	22557
839.781	22223
839.918	22120
840.055	22268
840.193	22246
840.33	22059
840.467	22192
840.604	22181
840.742	22440
840.879	22070
841.016	22131
841.153	22181
841.29	22200
841.427	22226
841.564	22284
841.701	22185
841.838	22074
841.975	22010
842.112	22135
842.249	22063
842.385	21968
842.522	22204
842.659	22036
842.796	21884
842.933	21911
843.069	21819
843.206	21850
843.343	21926
843.479	21854
843.616	22002
843.752	21732
843.889	21751
844.025	21816
844.162	21720
844.298	21941
844.435	21713
844.571	21641
844.708	21797
844.844	21964
844.98	21880
845.117	21827
845.253	21637
845.389	21618
845.525	21690
845.661	21549
845.798	21519
845.934	21435
846.07	21389
846.206	21469
846.342	21526
846.478	21439
846.614	21317
846.75	21176
846.886	21222
847.022	21245
847.158	21161
847.294	21123
847.429	21222
847.565	21173
847.701	21431
847.837	20891
847.972	20891
848.108	20975
848.244	20990
848.379	20883
848.515	20895
848.65	20872
848.786	20902
848.921	20819
849.057	20883
849.192	20902
849.328	20830
849.463	20880
849.598	20697
849.734	20667
849.869	20674
850.004	20480
850.14	20575
850.275	20522
850.41	20446
850.545	20461
850.68	20499
850.815	20644
850.95	20556
851.085	20651
851.22	20476
851.355	20537
851.49	20655
851.625	20552
851.76	20556
851.895	20454
852.03	20499
852.165	20450
852.299	20518
852.434	20602
852.569	20556
852.703	20541
852.838	20606
852.973	20678
853.107	20754
853.242	20423
853.376	20412
853.511	20339
853.645	20305
853.78	20564
853.914	20408
854.048	20328
854.183	20473
854.317	20419
854.451	20644
854.585	20385
854.72	20446
854.854	20434
854.988	20294
855.122	20298
855.256	20164
855.39	20412
855.524	20454
855.658	20393
855.792	20495
855.926	20339
856.06	20457
856.194	20454
856.327	20442
856.461	20400
856.595	20221
856.729	20423
856.862	20370
856.996	20347
857.13	20423
857.263	20476
857.397	20473
857.53	20358
857.664	20446
857.797	20488
857.931	20419
858.064	20454
858.197	20511
858.331	20393
858.464	20351
858.597	20275
858.731	20438
858.864	20419
858.997	20320
859.13	20377
859.263	20488
859.396	20370
859.529	20370
859.662	20324
859.795	20286
859.928	20469
860.061	20450
860.194	20648
860.327	20446
860.46	20339
860.592	20385
860.725	20530
860.858	20514
860.99	20336
861.123	20381
861.256	20347
861.388	20351
861.521	20998
861.653	20183
861.786	20031
861.918	20229
862.05	20317
862.183	20278
862.315	20336
862.447	20389
862.58	20282
862.712	20130
862.844	20016
862.976	20191
863.108	20126
863.24	20495
863.372	20225
863.504	20050
863.636	20054
863.768	20237
863.9	20077
864.032	20096
864.164	20031
864.296	20122
864.428	20233
864.559	20005
864.691	20202
864.823	20065
864.954	20142
865.086	20119
865.217	20043
865.349	19959
865.48	19947
865.612	20054
865.743	20176
865.875	20119
866.006	19982
866.137	19936
866.269	19928
866.4	20084
866.531	19959
866.662	19989
866.793	19982
866.924	20016
867.055	19917
867.186	19890
867.317	19917
867.448	19822
867.579	19944
867.71	19856
867.841	19921
867.972	19967
868.103	19830
868.233	20005
868.364	20031
868.495	20069
868.625	20183
868.756	20282
868.886	20191
869.017	20191
869.147	20442
869.278	20446
869.408	20252
869.539	20275
869.669	20294
869.799	20164
869.929	20256
870.06	20263
870.19	20457
870.32	20412
870.45	20526
870.58	20716
870.71	20689
870.84	20670
870.97	20564
871.1	20674
871.23	20792
871.36	20796
871.489	20708
871.619	20727
871.749	20861
871.879	20868
872.008	20811
872.138	20811
872.267	20632
872.397	20697
872.526	20663
872.656	20655
872.785	20667
872.915	20823
873.044	20902
873.173	20689
873.303	20921
873.432	20785
873.561	20918
873.69	20891
873.819	20777
873.948	20868
874.077	20857
874.206	20750
874.335	20720
874.464	20963
874.593	21013
874.722	20990
874.851	21169
874.979	21146
875.108	21192
875.237	21077
875.365	20963
875.494	21028
875.623	21051
875.751	21051
875.88	21207
876.008	21192
876.136	21287
876.265	21420
876.393	21618
876.521	21469
876.65	21572
876.778	21580
876.906	21488
877.034	21389
877.162	21450
877.29	21351
877.418	21458
877.546	21519
877.674	21466
877.802	21526
877.93	21473
878.058	21370
878.185	21218
878.313	21336
878.441	21344
878.568	21252
878.696	21370
878.824	21412
878.951	21538
879.079	21656
879.206	21736
879.333	21515
879.461	21329
879.588	21534
879.715	21568
879.842	21606
879.97	21447
880.097	21279
880.224	21218
880.351	21355
880.478	21359
880.605	21226
880.732	21252
880.859	21526
880.986	21363
881.112	21306
881.239	21058
881.366	21051
881.493	20944
881.619	20800
881.746	20823
881.872	20804
881.999	20887
882.125	20804
882.252	20933
882.378	20811
882.505	20800
882.631	20777
882.757	20575
882.883	20769
883.01	20629
883.136	20427
883.262	20412
883.388	20355
883.514	20549
883.64	20594
883.766	20480
883.892	20317
884.018	20396
884.143	20480
884.269	20579
884.395	20336
884.52	20233
884.646	20301
884.772	20168
884.897	20100
885.023	20278
885.148	20202
885.274	20252
885.399	20229
885.524	20164
885.65	20103
885.775	20199
885.9	20157
886.025	20377
886.15	20389
886.275	20164
886.4	20119
886.525	20214
886.65	20138
886.775	20191
886.9	20374
887.025	20473
887.149	20191
887.274	19925
887.399	19913
887.523	19947
887.648	20020
887.773	19822
887.897	20111
888.021	20005
888.146	19936
888.27	19989
888.395	20122
888.519	19955
888.643	19993
888.767	20107
888.891	19932
889.015	19761
889.139	19814
889.263	19635
889.387	19890
889.511	20039
889.635	19871
889.759	19742
889.883	19670
890.006	19856
890.13	19837
890.254	19620
890.377	19715
890.501	19537
890.624	19499
890.748	19628
890.871	19445
890.995	19263
891.118	19240
891.241	19377
891.364	19350
891.488	19441
891.611	19468
891.734	19358
891.857	19343
891.98	19343
892.103	19373
892.226	19312
892.349	19358
892.471	19206
892.594	19266
892.717	19354
892.839	19251
892.962	19346
893.085	19327
893.207	19263
893.33	19240
893.452	19209
893.575	19426
893.697	19304
893.819	19384
893.941	19331
894.064	19381
894.186	19270
894.308	19255
894.43	19384
894.552	19346
894.674	19282
894.796	19141
894.918	19202
895.04	19213
895.161	19381
895.283	19381
895.405	19266
895.526	19247
895.648	19255
895.769	19251
895.891	19388
896.012	19438
896.134	19415
896.255	19236
896.376	19331
896.498	19282
896.619	19339
896.74	19285
896.861	19396
896.982	19552
897.103	19761
897.224	19552
897.345	19483
897.466	19403
897.587	19544
897.708	19704
897.828	19525
897.949	19400
898.07	19350
898.19	19510
898.311	19655
898.431	19445
898.552	19514
898.672	19491
898.792	19609
898.913	19635
899.033	19510
899.153	19331
899.273	19244
899.393	19419
899.513	19453
899.633	19350
899.753	19365
899.873	19126
899.993	19362
900.113	19335
900.232	19225
900.352	19221
900.472	19160
900.591	19103
900.711	18977
900.83	19129
900.95	19255
901.069	19141
901.189	18996
901.308	18715
901.427	18677
901.546	18703
901.665	18696
901.784	18696
901.904	18661
902.023	18513
902.141	18235
902.26	18258
902.379	18315
902.498	18266
902.617	18144
902.735	18140
902.854	18148
902.973	18026
903.091	17958
903.21	17832
903.328	17916
903.446	17832
903.565	17703
903.683	17714
903.801	17638
903.919	17672
904.038	17695
904.156	17566
904.274	17547
904.392	17345
904.51	17425
904.627	17364
904.745	17497
904.863	17474
904.981	17296
905.098	17185
905.216	17178
905.334	17113
905.451	17132
905.569	17113
905.686	17113
905.803	17064
905.921	16942
906.038	17079
906.155	16987
906.272	16877
906.389	16885
906.506	16637
906.623	16698
906.74	16615
906.857	16634
906.974	16596
907.091	16805
907.208	16816
907.324	16691
907.441	16565
907.557	16500
907.674	16421
907.79	16341
907.907	16310
908.023	16409
908.139	16432
908.256	16379
908.372	16303
908.488	16291
908.604	16101
908.72	16105
908.836	16150
908.952	16166
909.068	16169
909.184	16242
909.3	16055
909.415	16013
909.531	16071
909.647	15888
909.762	15778
909.878	15701
909.993	15899
910.108	15854
910.224	15743
910.339	15781
910.454	15656
910.57	15656
910.685	15743
910.8	15789
910.915	15781
911.03	15549
911.145	15523
911.259	15435
911.374	15500
911.489	15386
911.604	15348
911.718	15272
911.833	15188
911.947	15097
912.062	15009
912.176	15291
912.291	15157
912.405	15150
912.519	15416
912.633	15447
912.748	15203
912.862	15207
912.976	15051
913.09	14979
913.204	15028
913.318	15032
913.431	14994
913.545	15085
913.659	15169
913.772	14979
913.886	14868
914	14773
914.113	14918
914.226	14963
914.34	14891
914.453	14773
914.566	14925
914.68	14785
914.793	14648
914.906	14549
915.019	14442
915.132	14427
915.245	14484
915.358	14427
915.47	14415
915.583	14423
915.696	14526
915.809	14594
915.921	14678
916.034	14476
916.146	14412
916.259	14263
916.371	14446
916.483	14362
916.595	14423
916.708	14252
916.82	14362
916.932	14256
917.044	14221
917.156	14252
917.268	14191
917.38	14233
917.491	14142
917.603	14149
917.715	14176
917.826	14164
917.938	14168
918.049	13871
918.161	14096
918.272	14233
918.384	14225
918.495	14046
918.606	13887
918.717	13841
918.828	13921
918.939	13955
919.05	13799
919.161	13921
919.272	13719
919.383	13765
919.494	13906
919.604	14050
919.715	13890
919.826	13784
919.936	13856
920.047	13940
920.157	13936
920.267	14096
920.378	13909
920.488	13856
920.598	14005
920.708	14172
920.818	13978
920.928	14031
921.038	14202
921.148	14172
921.258	13841
921.368	13761
921.477	13674
921.587	13613
921.697	13487
921.806	13696
921.916	13495
922.025	13259
922.134	13384
922.244	13362
922.353	13339
922.462	13164
922.571	13152
922.68	13000
922.789	12943
922.898	12989
923.007	12840
923.116	12901
923.224	12859
923.333	12913
923.442	12749
923.55	12768
923.659	12776
923.767	12890
923.876	12722
923.984	12711
924.092	12559
924.201	12700
924.309	12768
924.417	12654
924.525	12570
924.633	12635
924.741	13521
924.849	12380
924.956	12570
925.064	12361
925.172	12338
925.279	12365
925.387	12456
925.494	12388
925.602	12445
925.709	12494
925.816	12365
925.924	12365
926.031	12456
926.138	12350
926.245	12429
926.352	12190
926.459	12376
926.566	12403
926.673	12258
926.779	12205
926.886	12190
926.993	12110
927.099	11965
927.206	11866
927.312	11942
927.419	11942
927.525	12060
927.631	12083
927.737	11889
927.843	11821
927.95	11691
928.056	11783
928.162	11870
928.267	11824
928.373	12479
928.479	11912
928.585	11615
928.69	11779
928.796	11855
928.901	11668
929.007	11535
929.112	11634
929.218	11688
929.323	11535
929.428	11573
929.533	11634
929.638	11433
929.743	11539
929.848	11638
929.953	11505
930.058	11387
930.163	11223
930.267	11231
930.372	11395
930.477	11227
930.581	11532
930.685	11284
930.79	11117
930.894	11193
930.998	11105
931.103	11250
931.207	10904
931.311	10809
931.415	10850
931.519	10516
931.623	10554
