Data from test_V78500241_619.txt Node
Date: Fri Mar 25 15:14:10 CST 2022
User: usil
Spectrometer: V785-0024
Trigger mode: 0
Integration Time (sec): 4.000000E-1
Scans to average: 1
Nonlinearity correction enabled: false
Boxcar width: 0
Storing dark spectrum: false
XAxis mode: Wavelengths
Number of Pixels in Spectrum: 1024
>>>>>Begin Spectral Data<<<<<
801.071	27622
801.214	27663
801.356	27435
801.499	27348
801.641	27214
801.783	27344
801.926	27306
802.068	27252
802.211	27112
802.353	27058
802.496	26883
802.638	26914
802.78	26849
802.923	26872
803.065	26788
803.208	26823
803.35	26921
803.492	26925
803.635	27013
803.777	26933
803.919	27089
804.061	27264
804.204	27074
804.346	26963
804.488	27055
804.63	27074
804.773	26899
804.915	26990
805.057	27218
805.199	26944
805.341	27043
805.483	27230
805.626	27157
805.768	27119
805.91	26975
806.052	27199
806.194	27051
806.336	27291
806.478	27340
806.62	27188
806.762	27348
806.904	27507
807.046	27701
807.188	27679
807.33	27603
807.472	27686
807.614	27545
807.756	27542
807.898	27492
808.04	27473
808.182	27553
808.324	27420
808.465	27443
808.607	27717
808.749	27880
808.891	27816
809.033	27865
809.174	27945
809.316	27914
809.458	27854
809.6	27808
809.741	27892
809.883	27903
810.025	28166
810.166	28147
810.308	28048
810.45	28093
810.591	28025
810.733	27972
810.875	27922
811.016	27747
811.158	27682
811.299	27998
811.441	28131
811.582	28139
811.724	27789
811.865	27907
812.007	27690
812.148	27800
812.29	27873
812.431	27991
812.573	28238
812.714	28325
812.855	28329
812.997	28478
813.138	28656
813.279	28535
813.421	28398
813.562	28344
813.703	28166
813.845	28086
813.986	27922
814.127	27747
814.268	27618
814.41	27462
814.551	27523
814.692	27606
814.833	27370
814.974	27435
815.115	27644
815.256	27435
815.397	27344
815.539	27450
815.68	27401
815.821	27135
815.962	27348
816.103	27283
816.244	27184
816.385	27070
816.526	27138
816.666	26967
816.807	26857
816.948	26845
817.089	26872
817.23	26811
817.371	26891
817.512	26834
817.653	26933
817.793	26769
817.934	26788
818.075	26842
818.216	26773
818.356	26849
818.497	26621
818.638	26571
818.778	26511
818.919	26560
819.06	26598
819.2	26762
819.341	26933
819.481	26807
819.622	26921
819.762	27150
819.903	27096
820.043	26998
820.184	26979
820.324	27085
820.465	27009
820.605	26975
820.746	26849
820.886	26792
821.026	26940
821.167	27013
821.307	27005
821.447	26887
821.588	26716
821.728	26518
821.868	26423
822.008	26400
822.149	26271
822.289	26161
822.429	25997
822.569	25982
822.709	26020
822.849	25837
822.99	25803
823.13	25715
823.27	25791
823.41	25632
823.55	25590
823.69	25674
823.83	25540
823.97	25487
824.11	25426
824.25	25396
824.389	25316
824.529	25419
824.669	25419
824.809	25521
824.949	25533
825.089	25662
825.228	25388
825.368	25274
825.508	25190
825.648	25251
825.787	25293
825.927	25263
826.067	25194
826.206	25312
826.346	25339
826.485	25324
826.625	25259
826.765	25533
826.904	25373
827.044	25053
827.183	25187
827.323	24939
827.462	25107
827.601	25042
827.741	24970
827.88	24954
828.02	25000
828.159	24958
828.298	24909
828.437	25198
828.577	24886
828.716	25175
828.855	24894
828.994	24688
829.134	24749
829.273	24696
829.412	24692
829.551	24612
829.69	24707
829.829	24726
829.968	24749
830.107	24677
830.246	24639
830.385	24669
830.524	24665
830.663	24448
830.802	24490
830.941	24372
831.08	24403
831.219	24505
831.357	24407
831.496	24559
831.635	24273
831.774	24342
831.913	24213
832.051	24030
832.19	24140
832.329	24121
832.467	24129
832.606	24076
832.744	24045
832.883	24068
833.022	23977
833.16	23904
833.299	24038
833.437	23984
833.576	24091
833.714	23992
833.852	24186
833.991	24095
834.129	24186
834.267	24197
834.406	24041
834.544	24034
834.682	23912
834.821	24110
834.959	24254
835.097	24174
835.235	24163
835.373	24011
835.511	24007
835.65	24038
835.788	23961
835.926	23824
836.064	23684
836.202	23703
836.34	24026
836.478	24110
836.615	23939
836.753	23859
836.891	24068
837.029	23851
837.167	23893
837.305	23809
837.443	23904
837.58	23764
837.718	23882
837.856	23741
837.993	23824
838.131	23783
838.269	23516
838.406	23646
838.544	23493
838.681	23417
838.819	23334
838.956	23166
839.094	23113
839.231	23250
839.369	23391
839.506	23543
839.643	23391
839.781	23227
839.918	23231
840.055	23121
840.193	23250
840.33	23121
840.467	23105
840.604	23140
840.742	23364
840.879	22961
841.016	23132
841.153	22991
841.29	23322
841.427	23117
841.564	23143
841.701	23166
841.838	23071
841.975	23014
842.112	23105
842.249	22900
842.385	22873
842.522	23090
842.659	22961
842.796	22877
842.933	23052
843.069	22896
843.206	22778
843.343	22786
843.479	22927
843.616	22816
843.752	22710
843.889	22645
844.025	22831
844.162	22637
844.298	22767
844.435	22596
844.571	22653
844.708	22736
844.844	22820
844.98	22843
845.117	22763
845.253	22679
845.389	22550
845.525	22603
845.661	22618
845.798	22356
845.934	22447
846.07	22405
846.206	22443
846.342	22447
846.478	22310
846.614	22204
846.75	22044
846.886	22101
847.022	22360
847.158	22074
847.294	22177
847.429	22219
847.565	22086
847.701	22249
847.837	21968
847.972	21854
848.108	21926
848.244	21941
848.379	21838
848.515	21751
848.65	21759
848.786	21720
848.921	21610
849.057	21789
849.192	21816
849.328	21717
849.463	21720
849.598	21629
849.734	21523
849.869	21568
850.004	21397
850.14	21599
850.275	21568
850.41	21329
850.545	21477
850.68	21507
850.815	21469
850.95	21485
851.085	21633
851.22	21622
851.355	21545
851.49	21538
851.625	21329
851.76	21481
851.895	21424
852.03	21389
852.165	21523
852.299	21443
852.434	21603
852.569	21454
852.703	21557
852.838	21545
852.973	21561
853.107	21679
853.242	21542
853.376	21256
853.511	21306
853.645	21249
853.78	21507
853.914	21329
854.048	21222
854.183	21279
854.317	21344
854.451	21450
854.585	21195
854.72	21325
854.854	21408
854.988	21325
855.122	21428
855.256	21123
855.39	21374
855.524	21370
855.658	21424
855.792	21310
855.926	21363
856.06	21306
856.194	21313
856.327	21310
856.461	21241
856.595	21275
856.729	21389
856.862	21469
856.996	21462
857.13	21344
857.263	21447
857.397	21378
857.53	21245
857.664	21382
857.797	21431
857.931	21332
858.064	21233
858.197	21389
858.331	21230
858.464	21283
858.597	21245
858.731	21291
858.864	21245
858.997	21298
859.13	21382
859.263	21256
859.396	21370
859.529	21310
859.662	21275
859.795	21199
859.928	21298
860.061	21420
860.194	21530
860.327	21462
860.46	21294
860.592	21416
860.725	21408
860.858	21428
860.99	21233
861.123	21275
861.256	21233
861.388	21214
861.521	22093
861.653	21207
861.786	21036
861.918	21089
862.05	21173
862.183	21249
862.315	21264
862.447	21401
862.58	21199
862.712	20998
862.844	20868
862.976	21150
863.108	21116
863.24	21454
863.372	20914
863.504	21100
863.636	21013
863.768	20979
863.9	21047
864.032	20921
864.164	21085
864.296	21024
864.428	21150
864.559	20979
864.691	21142
864.823	21089
864.954	20842
865.086	21017
865.217	20937
865.349	20807
865.48	20956
865.612	20956
865.743	21066
865.875	20933
866.006	20815
866.137	20857
866.269	20883
866.4	20785
866.531	20883
866.662	20727
866.793	20899
866.924	20891
867.055	20948
867.186	20842
867.317	20834
867.448	20815
867.579	20830
867.71	20811
867.841	20765
867.972	20781
868.103	20918
868.233	20838
868.364	20906
868.495	20967
868.625	21085
868.756	21207
868.886	20918
869.017	21150
869.147	21249
869.278	21127
869.408	21188
869.539	21146
869.669	21127
869.799	21070
869.929	21203
870.06	21214
870.19	21340
870.32	21317
870.45	21428
870.58	21477
870.71	21526
870.84	21580
870.97	21443
871.1	21351
871.23	21713
871.36	21622
871.489	21576
871.619	21580
871.749	21671
871.879	21644
872.008	21842
872.138	21679
872.267	21622
872.397	21481
872.526	21545
872.656	21443
872.785	21454
872.915	21629
873.044	21709
873.173	21641
873.303	21713
873.432	21641
873.561	21785
873.69	21800
873.819	21625
873.948	21812
874.077	21629
874.206	21660
874.335	21705
874.464	21831
874.593	22078
874.722	21873
874.851	22029
874.979	21922
875.108	21895
875.237	21808
875.365	21880
875.494	21873
875.623	22013
875.751	21876
875.88	22040
876.008	22105
876.136	22154
876.265	22337
876.393	22379
876.521	22417
876.65	22451
876.778	22402
876.906	22196
877.034	22276
877.162	22322
877.29	22204
877.418	22291
877.546	22246
877.674	22261
877.802	22310
877.93	22367
878.058	22371
878.185	22215
878.313	22173
878.441	22207
878.568	22086
878.696	22284
878.824	22196
878.951	22318
879.079	22531
879.206	22531
879.333	22481
879.461	22314
879.588	22417
879.715	22466
879.842	22577
879.97	22287
880.097	22177
880.224	22055
880.351	22150
880.478	22051
880.605	22021
880.732	22131
880.859	22409
880.986	22196
881.112	22082
881.239	22021
881.366	21838
881.493	21766
881.619	21694
881.746	21652
881.872	21637
881.999	21637
882.125	21644
882.252	21679
882.378	21606
882.505	21766
882.631	21549
882.757	21557
882.883	21511
883.01	21443
883.136	21336
883.262	21241
883.388	21116
883.514	21462
883.64	21450
883.766	21222
883.892	21062
884.018	21165
884.143	21378
884.269	21443
884.395	21047
884.52	21108
884.646	21043
884.772	21020
884.897	20952
885.023	21028
885.148	21165
885.274	21154
885.399	21146
885.524	21070
885.65	21009
885.775	21043
885.9	20979
886.025	21214
886.15	20990
886.275	21047
886.4	20891
886.525	20887
886.65	20941
886.775	20868
886.9	21192
887.025	21199
887.149	20975
887.274	20857
887.399	20830
887.523	20689
887.648	20720
887.773	20689
887.897	20921
888.021	20906
888.146	20758
888.27	20880
888.395	20929
888.519	20720
888.643	20861
888.767	20853
888.891	20697
889.015	20663
889.139	20689
889.263	20568
889.387	20701
889.511	20819
889.635	20701
889.759	20579
889.883	20617
890.006	20552
890.13	20682
890.254	20571
890.377	20594
890.501	20400
890.624	20305
890.748	20442
890.871	20206
890.995	20024
891.118	20039
891.241	20138
891.364	20221
891.488	20301
891.611	20237
891.734	20240
891.857	20275
891.98	20248
892.103	20229
892.226	20176
892.349	20218
892.471	20069
892.594	20191
892.717	19986
892.839	20046
892.962	20065
893.085	20168
893.207	19974
893.33	20027
893.452	20024
893.575	20161
893.697	20035
893.819	20248
893.941	20343
894.064	20138
894.186	20027
894.308	19989
894.43	20115
894.552	20225
894.674	20119
894.796	20077
894.918	20031
895.04	20020
895.161	20088
895.283	19963
895.405	20012
895.526	20111
895.648	19978
895.769	20157
895.891	20138
896.012	20088
896.134	20126
896.255	20103
896.376	19986
896.498	20054
896.619	20001
896.74	19944
896.861	20229
896.982	20469
897.103	20503
897.224	20442
897.345	20294
897.466	20183
897.587	20309
897.708	20457
897.828	20427
897.949	20229
898.07	20218
898.19	20187
898.311	20366
898.431	20278
898.552	20320
898.672	20339
898.792	20347
898.913	20328
899.033	20237
899.153	19993
899.273	19940
899.393	20024
899.513	20214
899.633	20142
899.753	20126
899.873	19989
899.993	20100
900.113	19925
900.232	19947
900.352	19970
900.472	20069
900.591	19864
900.711	19852
900.83	19700
900.95	19890
901.069	19841
901.189	19723
901.308	19620
901.427	19491
901.546	19483
901.665	19464
901.784	19400
901.904	19304
902.023	19145
902.141	18996
902.26	19004
902.379	18985
902.498	19015
902.617	18772
902.735	19038
902.854	18844
902.973	18897
903.091	18639
903.21	18563
903.328	18513
903.446	18433
903.565	18243
903.683	18395
903.801	18247
903.919	18376
904.038	18315
904.156	18190
904.274	18174
904.392	18178
904.51	18163
904.627	18133
904.745	18247
904.863	18197
904.981	17920
905.098	17798
905.216	17821
905.334	17870
905.451	17859
905.569	17824
905.686	17832
905.803	17828
905.921	17615
906.038	17630
906.155	17649
906.272	17547
906.389	17566
906.506	17524
906.623	17364
906.74	17391
906.857	17239
906.974	17265
907.091	17395
907.208	17425
907.324	17372
907.441	17258
907.557	17151
907.674	17071
907.79	16923
907.907	17098
908.023	17060
908.139	17052
908.256	16961
908.372	16972
908.488	16877
908.604	16733
908.72	16748
908.836	16854
908.952	16820
909.068	16843
909.184	16980
909.3	16786
909.415	16934
909.531	16858
909.647	16641
909.762	16424
909.878	16470
909.993	16554
910.108	16516
910.224	16371
910.339	16470
910.454	16341
910.57	16291
910.685	16181
910.8	16478
910.915	16440
911.03	16295
911.145	16128
911.259	16055
911.374	16120
911.489	16120
911.604	15998
911.718	15941
911.833	15899
911.947	15774
912.062	15663
912.176	15857
912.291	15804
912.405	15705
912.519	16063
912.633	16067
912.748	15949
912.862	15800
912.976	15690
913.09	15519
913.204	15576
913.318	15580
913.431	15778
913.545	15614
913.659	15876
913.772	15701
913.886	15526
914	15488
914.113	15523
914.226	15610
914.34	15580
914.453	15321
914.566	15564
914.68	15291
914.793	15393
914.906	15119
915.019	15119
915.132	15024
915.245	15085
915.358	15039
915.47	15070
915.583	15119
915.696	15180
915.809	15169
915.921	15195
916.034	15055
916.146	15005
916.259	14971
916.371	14982
916.483	14937
916.595	14883
916.708	14853
916.82	14849
916.932	14891
917.044	14895
917.156	14727
917.268	14743
917.38	14655
917.491	14693
917.603	14686
917.715	14815
917.826	14815
917.938	14739
918.049	14636
918.161	14788
918.272	14868
918.384	14838
918.495	14697
918.606	14533
918.717	14526
918.828	14537
918.939	14526
919.05	14396
919.161	14514
919.272	14385
919.383	14351
919.494	14552
919.604	14739
919.715	14644
919.826	14381
919.936	14480
920.047	14549
920.157	14560
920.267	14632
920.378	14492
920.488	14408
920.598	14640
920.708	14689
920.818	14602
920.928	14533
921.038	14674
921.148	14697
921.258	14393
921.368	14313
921.477	14275
921.587	14172
921.697	13951
921.806	14233
921.916	14062
922.025	13841
922.134	13951
922.244	13791
922.353	13833
922.462	13776
922.571	13715
922.68	13628
922.789	13544
922.898	13540
923.007	13384
923.116	13472
923.224	13434
923.333	13521
923.442	13266
923.55	13350
923.659	13350
923.767	13426
923.876	13259
923.984	13324
924.092	13221
924.201	13217
924.309	13198
924.417	13266
924.525	13183
924.633	13194
924.741	13986
924.849	12939
924.956	13156
925.064	12943
925.172	12837
925.279	12913
925.387	12920
925.494	12886
925.602	13061
925.709	13012
925.816	12829
925.924	12791
926.031	12951
926.138	12833
926.245	12920
926.352	12787
926.459	12924
926.566	12966
926.673	12821
926.779	12627
926.886	12665
926.993	12570
927.099	12566
927.206	12475
927.312	12372
927.419	12467
927.525	12456
927.631	12441
927.737	12407
927.843	12327
927.95	12213
928.056	12277
928.162	12346
928.267	12330
928.373	12882
928.479	12327
928.585	12129
928.69	12220
928.796	12251
928.901	12144
929.007	11973
929.112	12197
929.218	12201
929.323	12019
929.428	12003
929.533	12140
929.638	11946
929.743	11973
929.848	12015
929.953	11901
930.058	11836
930.163	11722
930.267	11771
930.372	11889
930.477	11600
930.581	11897
930.685	11783
930.79	11573
930.894	11634
930.998	11608
931.103	11790
931.207	11395
931.311	11296
931.415	11216
931.519	10923
931.623	10915
