Data from test_V78500241_1823.txt Node
Date: Fri Mar 25 15:22:32 CST 2022
User: usil
Spectrometer: V785-0024
Trigger mode: 0
Integration Time (sec): 4.000000E-1
Scans to average: 1
Nonlinearity correction enabled: false
Boxcar width: 0
Storing dark spectrum: false
XAxis mode: Wavelengths
Number of Pixels in Spectrum: 1024
>>>>>Begin Spectral Data<<<<<
801.071	27797
801.214	27873
801.356	27599
801.499	27542
801.641	27435
801.783	27336
801.926	27439
802.068	27359
802.211	27389
802.353	27272
802.496	27169
802.638	27116
802.78	27047
802.923	26982
803.065	26960
803.208	26979
803.35	26982
803.492	26982
803.635	27028
803.777	27108
803.919	27264
804.061	27466
804.204	27218
804.346	27268
804.488	27218
804.63	27176
804.773	27085
804.915	27264
805.057	27412
805.199	27173
805.341	27252
805.483	27412
805.626	27317
805.768	27188
805.91	27260
806.052	27374
806.194	27237
806.336	27583
806.478	27264
806.62	27291
806.762	27591
806.904	27587
807.046	27892
807.188	27759
807.33	27728
807.472	27831
807.614	27698
807.756	27778
807.898	27511
808.04	27561
808.182	27492
808.324	27572
808.465	27660
808.607	27854
808.749	27968
808.891	28120
809.033	28162
809.174	28105
809.316	27907
809.458	28109
809.6	28139
809.741	28074
809.883	28177
810.025	28204
810.166	28226
810.308	28185
810.45	28226
810.591	28109
810.733	28002
810.875	27899
811.016	27793
811.158	27793
811.299	28090
811.441	27930
811.582	28143
811.724	28025
811.865	28070
812.007	27956
812.148	27968
812.29	27972
812.431	28002
812.573	28318
812.714	28318
812.855	28363
812.997	28508
813.138	28809
813.279	28683
813.421	28508
813.562	28405
813.703	28257
813.845	28143
813.986	27907
814.127	27751
814.268	27751
814.41	27789
814.551	27603
814.692	27850
814.833	27557
814.974	27583
815.115	27644
815.256	27549
815.397	27485
815.539	27545
815.68	27401
815.821	27317
815.962	27557
816.103	27564
816.244	27378
816.385	27188
816.526	27104
816.666	27058
816.807	26940
816.948	26933
817.089	27024
817.23	26940
817.371	26975
817.512	26921
817.653	26940
817.793	26815
817.934	26914
818.075	27028
818.216	26792
818.356	27005
818.497	26765
818.638	26743
818.778	26682
818.919	26663
819.06	26731
819.2	26758
819.341	26967
819.481	26918
819.622	27077
819.762	27131
819.903	27036
820.043	27093
820.184	27108
820.324	26998
820.465	27058
820.605	27070
820.746	27081
820.886	26868
821.026	26967
821.167	26998
821.307	27005
821.447	26933
821.588	26842
821.728	26754
821.868	26629
822.008	26507
822.149	26423
822.289	26332
822.429	26199
822.569	26100
822.709	26103
822.849	25894
822.99	25807
823.13	25917
823.27	25795
823.41	25772
823.55	25635
823.69	25856
823.83	25689
823.97	25788
824.11	25529
824.25	25518
824.389	25468
824.529	25738
824.669	25590
824.809	25624
824.949	25548
825.089	25700
825.228	25468
825.368	25381
825.508	25426
825.648	25479
825.787	25559
825.927	25457
826.067	25350
826.206	25483
826.346	25384
826.485	25616
826.625	25445
826.765	25415
826.904	25594
827.044	25232
827.183	25160
827.323	25099
827.462	25225
827.601	25240
827.741	25080
827.88	25122
828.02	25019
828.159	25042
828.298	25160
828.437	25164
828.577	25110
828.716	25175
828.855	25061
828.994	24932
829.134	24848
829.273	25012
829.412	24776
829.551	24639
829.69	25050
829.829	24871
829.968	25031
830.107	24932
830.246	24939
830.385	24913
830.524	24829
830.663	24791
830.802	24631
830.941	24525
831.08	24563
831.219	24616
831.357	24623
831.496	24696
831.635	24544
831.774	24471
831.913	24369
832.051	24254
832.19	24247
832.329	24281
832.467	24110
832.606	24129
832.744	24106
832.883	24110
833.022	24273
833.16	24155
833.299	24190
833.437	24155
833.576	24273
833.714	24232
833.852	24213
833.991	24369
834.129	24327
834.267	24399
834.406	24254
834.544	24171
834.682	24281
834.821	24388
834.959	24475
835.097	24205
835.235	24239
835.373	24186
835.511	24243
835.65	24152
835.788	23992
835.926	23916
836.064	23946
836.202	23760
836.34	24003
836.478	24220
836.615	24026
836.753	24034
836.891	24273
837.029	24076
837.167	23984
837.305	23950
837.443	23859
837.58	23882
837.718	24034
837.856	23954
837.993	23870
838.131	23885
838.269	23756
838.406	23855
838.544	23866
838.681	23680
838.819	23528
838.956	23410
839.094	23296
839.231	23570
839.369	23558
839.506	23866
839.643	23741
839.781	23474
839.918	23410
840.055	23322
840.193	23318
840.33	23311
840.467	23364
840.604	23433
840.742	23611
840.879	23117
841.016	23140
841.153	23181
841.29	23429
841.427	23303
841.564	23345
841.701	23387
841.838	23178
841.975	23200
842.112	23261
842.249	23128
842.385	23056
842.522	23239
842.659	23140
842.796	23010
842.933	23048
843.069	23010
843.206	23098
843.343	23010
843.479	22976
843.616	22968
843.752	22919
843.889	22866
844.025	22942
844.162	22725
844.298	22919
844.435	22862
844.571	22877
844.708	22843
844.844	22953
844.98	23029
845.117	22980
845.253	22793
845.389	22778
845.525	22778
845.661	22694
845.798	22615
845.934	22630
846.07	22409
846.206	22637
846.342	22733
846.478	22557
846.614	22344
846.75	22219
846.886	22344
847.022	22493
847.158	22394
847.294	22261
847.429	22246
847.565	22249
847.701	22489
847.837	22025
847.972	22021
848.108	22196
848.244	22173
848.379	21926
848.515	21755
848.65	21865
848.786	21869
848.921	22021
849.057	21972
849.192	21895
849.328	21880
849.463	21842
849.598	21778
849.734	21835
849.869	21736
850.004	21675
850.14	21698
850.275	21675
850.41	21652
850.545	21698
850.68	21603
850.815	21637
850.95	21717
851.085	21732
851.22	21755
851.355	21759
851.49	21694
851.625	21675
851.76	21580
851.895	21534
852.03	21454
852.165	21675
852.299	21679
852.434	21781
852.569	21732
852.703	21542
852.838	21759
852.973	21781
853.107	21949
853.242	21595
853.376	21595
853.511	21428
853.645	21515
853.78	21534
853.914	21610
854.048	21389
854.183	21485
854.317	21618
854.451	21774
854.585	21538
854.72	21538
854.854	21599
854.988	21496
855.122	21553
855.256	21233
855.39	21485
855.524	21823
855.658	21507
855.792	21500
855.926	21534
856.06	21526
856.194	21656
856.327	21424
856.461	21462
856.595	21443
856.729	21450
856.862	21622
856.996	21599
857.13	21553
857.263	21667
857.397	21545
857.53	21538
857.664	21412
857.797	21549
857.931	21785
858.064	21583
858.197	21603
858.331	21477
858.464	21306
858.597	21401
858.731	21428
858.864	21515
858.997	21367
859.13	21473
859.263	21443
859.396	21553
859.529	21603
859.662	21435
859.795	21481
859.928	21428
860.061	21641
860.194	21545
860.327	21515
860.46	21629
860.592	21644
860.725	21603
860.858	21572
860.99	21462
861.123	21431
861.256	21466
861.388	21500
861.521	22021
861.653	21401
861.786	21355
861.918	21264
862.05	21469
862.183	21386
862.315	21420
862.447	21481
862.58	21393
862.712	21135
862.844	21157
862.976	21317
863.108	21321
863.24	21599
863.372	21108
863.504	21245
863.636	21188
863.768	21291
863.9	21135
864.032	20994
864.164	21154
864.296	21192
864.428	21382
864.559	21298
864.691	21287
864.823	21211
864.954	21226
865.086	21150
865.217	21180
865.349	21055
865.48	21058
865.612	21211
865.743	21142
865.875	21093
866.006	21116
866.137	20982
866.269	21108
866.4	21173
866.531	21013
866.662	20960
866.793	20979
866.924	21131
867.055	20986
867.186	21070
867.317	21043
867.448	20960
867.579	20971
867.71	20948
867.841	20902
867.972	21062
868.103	20994
868.233	21017
868.364	21009
868.495	21127
868.625	21203
868.756	21393
868.886	21119
869.017	21351
869.147	21268
869.278	21279
869.408	21340
869.539	21165
869.669	21389
869.799	21351
869.929	21370
870.06	21317
870.19	21481
870.32	21469
870.45	21603
870.58	21686
870.71	21781
870.84	21804
870.97	21728
871.1	21698
871.23	21846
871.36	21960
871.489	21827
871.619	21842
871.749	21831
871.879	21949
872.008	21892
872.138	21846
872.267	21842
872.397	21854
872.526	21660
872.656	21675
872.785	21701
872.915	21876
873.044	22044
873.173	21895
873.303	21793
873.432	21895
873.561	22131
873.69	21926
873.819	21926
873.948	21873
874.077	21880
874.206	21888
874.335	21835
874.464	21934
874.593	22032
874.722	22192
874.851	22181
874.979	22078
875.108	22303
875.237	22120
875.365	21930
875.494	22207
875.623	22109
875.751	22063
875.88	22154
876.008	22367
876.136	22272
876.265	22565
876.393	22557
876.521	22459
876.65	22542
876.778	22474
876.906	22535
877.034	22485
877.162	22421
877.29	22265
877.418	22436
877.546	22592
877.674	22527
877.802	22379
877.93	22402
878.058	22344
878.185	22344
878.313	22398
878.441	22497
878.568	22257
878.696	22535
878.824	22535
878.951	22592
879.079	22557
879.206	22812
879.333	22649
879.461	22523
879.588	22550
879.715	22687
879.842	22752
879.97	22569
880.097	22295
880.224	22318
880.351	22333
880.478	22261
880.605	22356
880.732	22234
880.859	22603
880.986	22242
881.112	22215
881.239	22207
881.366	22017
881.493	21953
881.619	21865
881.746	21861
881.872	21842
881.999	21972
882.125	21808
882.252	21934
882.378	21766
882.505	21873
882.631	21819
882.757	21671
882.883	21587
883.01	21618
883.136	21545
883.262	21477
883.388	21382
883.514	21542
883.64	21564
883.766	21401
883.892	21279
884.018	21401
884.143	21500
884.269	21583
884.395	21306
884.52	21154
884.646	21188
884.772	21066
884.897	21043
885.023	21233
885.148	21230
885.274	21378
885.399	21230
885.524	21310
885.65	21226
885.775	21203
885.9	21161
886.025	21245
886.15	21291
886.275	21074
886.4	21066
886.525	21055
886.65	21131
886.775	21199
886.9	21302
887.025	21351
887.149	21013
887.274	21070
887.399	21013
887.523	20929
887.648	20861
887.773	20842
887.897	20967
888.021	21070
888.146	20876
888.27	21047
888.395	20963
888.519	20933
888.643	20929
888.767	20921
888.891	20876
889.015	20773
889.139	20853
889.263	20708
889.387	20826
889.511	21005
889.635	20819
889.759	20804
889.883	20663
890.006	20807
890.13	20838
890.254	20636
890.377	20678
890.501	20556
890.624	20446
890.748	20594
890.871	20385
890.995	20248
891.118	20267
891.241	20343
891.364	20431
891.488	20442
891.611	20355
891.734	20305
891.857	20358
891.98	20290
892.103	20336
892.226	20275
892.349	20400
892.471	20142
892.594	20126
892.717	20347
892.839	20138
892.962	20168
893.085	20233
893.207	20248
893.33	20016
893.452	20149
893.575	20259
893.697	20092
893.819	20419
893.941	20473
894.064	20271
894.186	20180
894.308	20138
894.43	20328
894.552	20355
894.674	20328
894.796	20096
894.918	20237
895.04	20168
895.161	20221
895.283	20206
895.405	20069
895.526	20233
895.648	20126
895.769	20115
895.891	20172
896.012	20317
896.134	20161
896.255	20252
896.376	20122
896.498	20172
896.619	20240
896.74	20149
896.861	20256
896.982	20545
897.103	20781
897.224	20492
897.345	20465
897.466	20324
897.587	20480
897.708	20556
897.828	20518
897.949	20347
898.07	20111
898.19	20415
898.311	20412
898.431	20461
898.552	20514
898.672	20492
898.792	20431
898.913	20404
899.033	20385
899.153	20157
899.273	20176
899.393	20153
899.513	20248
899.633	20164
899.753	20278
899.873	19959
899.993	20282
900.113	20180
900.232	20142
900.352	20195
900.472	20016
900.591	19887
900.711	19906
900.83	19795
900.95	20008
901.069	20043
901.189	19890
901.308	19750
901.427	19499
901.546	19567
901.665	19567
901.784	19559
901.904	19312
902.023	19179
902.141	19110
902.26	19114
902.379	19145
902.498	19008
902.617	19050
902.735	19107
902.854	19046
902.973	18901
903.091	18677
903.21	18779
903.328	18574
903.446	18597
903.565	18513
903.683	18460
903.801	18418
903.919	18399
904.038	18517
904.156	18228
904.274	18342
904.392	18262
904.51	18228
904.627	18273
904.745	18365
904.863	18273
904.981	18022
905.098	17939
905.216	17950
905.334	18038
905.451	17961
905.569	17912
905.686	17939
905.803	17992
905.921	17699
906.038	17882
906.155	17786
906.272	17604
906.389	17608
906.506	17421
906.623	17490
906.74	17459
906.857	17296
906.974	17322
907.091	17490
907.208	17532
907.324	17528
907.441	17296
907.557	17181
907.674	17231
907.79	17162
907.907	17231
908.023	17265
908.139	17235
908.256	17109
908.372	17060
908.488	17128
908.604	16801
908.72	16984
908.836	16976
908.952	16904
909.068	16900
909.184	17090
909.3	16915
909.415	16976
909.531	16839
909.647	16561
909.762	16626
909.878	16664
909.993	16733
910.108	16588
910.224	16474
910.339	16622
910.454	16550
910.57	16462
910.685	16493
910.8	16634
910.915	16516
911.03	16432
911.145	16207
911.259	16215
911.374	16173
911.489	16059
911.604	16093
911.718	15968
911.833	15941
911.947	15842
912.062	15789
912.176	15934
912.291	16021
912.405	15953
912.519	16131
912.633	16128
912.748	15983
912.862	15808
912.976	15816
913.09	15675
913.204	15690
913.318	15739
913.431	15835
913.545	15854
913.659	15892
913.772	15675
913.886	15584
914	15504
914.113	15614
914.226	15698
914.34	15648
914.453	15332
914.566	15591
914.68	15431
914.793	15473
914.906	15241
915.019	15176
915.132	15157
915.245	15245
915.358	15233
915.47	15192
915.583	15142
915.696	15226
915.809	15279
915.921	15310
916.034	15184
916.146	15100
916.259	15127
916.371	15233
916.483	15127
916.595	14998
916.708	15013
916.82	15013
916.932	14971
917.044	14899
917.156	14956
917.268	14777
917.38	14914
917.491	14777
917.603	14910
917.715	14823
917.826	14815
917.938	14743
918.049	14610
918.161	14765
918.272	14883
918.384	15005
918.495	14769
918.606	14689
918.717	14541
918.828	14708
918.939	14621
919.05	14530
919.161	14617
919.272	14301
919.383	14465
919.494	14598
919.604	14804
919.715	14564
919.826	14412
919.936	14484
920.047	14602
920.157	14537
920.267	14549
920.378	14598
920.488	14446
920.598	14686
920.708	14830
920.818	14640
920.928	14670
921.038	14807
921.148	14826
921.258	14454
921.368	14358
921.477	14271
921.587	14237
921.697	14062
921.806	14229
921.916	14123
922.025	14077
922.134	13932
922.244	13864
922.353	13887
922.462	13761
922.571	13791
922.68	13594
922.789	13548
922.898	13571
923.007	13449
923.116	13521
923.224	13643
923.333	13597
923.442	13377
923.55	13335
923.659	13411
923.767	13453
923.876	13297
923.984	13403
924.092	13251
924.201	13346
924.309	13381
924.417	13320
924.525	13236
924.633	13259
924.741	14107
924.849	13088
924.956	13190
925.064	13008
925.172	12947
925.279	12894
925.387	13046
925.494	12973
925.602	13141
925.709	13000
925.816	12878
925.924	12932
926.031	13004
926.138	12886
926.245	13023
926.352	12852
926.459	12958
926.566	12970
926.673	12848
926.779	12688
926.886	12757
926.993	12559
927.099	12574
927.206	12467
927.312	12502
927.419	12597
927.525	12426
927.631	12612
927.737	12464
927.843	12372
927.95	12300
928.056	12311
928.162	12388
928.267	12346
928.373	13061
928.479	12486
928.585	12182
928.69	12384
928.796	12365
928.901	12243
929.007	12038
929.112	12205
929.218	12155
929.323	12060
929.428	12098
929.533	12190
929.638	11977
929.743	12019
929.848	12041
929.953	12079
930.058	11999
930.163	11821
930.267	11790
930.372	11923
930.477	11707
930.581	12019
930.685	11767
930.79	11665
930.894	11680
930.998	11634
931.103	11710
931.207	11379
931.311	11318
931.415	11181
931.519	11048
931.623	11003
