Data from test_V78500241_2632.txt Node
Date: Fri Mar 25 15:28:11 CST 2022
User: usil
Spectrometer: V785-0024
Trigger mode: 0
Integration Time (sec): 4.000000E-1
Scans to average: 1
Nonlinearity correction enabled: false
Boxcar width: 0
Storing dark spectrum: false
XAxis mode: Wavelengths
Number of Pixels in Spectrum: 1024
>>>>>Begin Spectral Data<<<<<
801.071	27108
801.214	27119
801.356	26746
801.499	26773
801.641	26792
801.783	26583
801.926	26864
802.068	26807
802.211	26602
802.353	26545
802.496	26461
802.638	26351
802.78	26282
802.923	26267
803.065	26126
803.208	26290
803.35	26400
803.492	26476
803.635	26419
803.777	26336
803.919	26511
804.061	26849
804.204	26549
804.346	26415
804.488	26434
804.63	26453
804.773	26537
804.915	26423
805.057	26560
805.199	26442
805.341	26583
805.483	26602
805.626	26507
805.768	26442
805.91	26590
806.052	26621
806.194	26446
806.336	26659
806.478	26590
806.62	26632
806.762	26594
806.904	26895
807.046	27089
807.188	26971
807.33	27058
807.472	27013
807.614	26982
807.756	26952
807.898	26712
808.04	26720
808.182	26842
808.324	26887
808.465	26830
808.607	26990
808.749	27047
808.891	27302
809.033	27222
809.174	27169
809.316	27116
809.458	27055
809.6	27104
809.741	27245
809.883	27340
810.025	27481
810.166	27420
810.308	27408
810.45	27367
810.591	27393
810.733	27047
810.875	27207
811.016	27116
811.158	27275
811.299	27348
811.441	27279
811.582	27180
811.724	27214
811.865	27154
812.007	27013
812.148	27074
812.29	27154
812.431	27264
812.573	27420
812.714	27523
812.855	27561
812.997	27728
813.138	27842
813.279	27838
813.421	27663
813.562	27511
813.703	27439
813.845	27317
813.986	26952
814.127	26788
814.268	26895
814.41	26902
814.551	26887
814.692	26940
814.833	26701
814.974	26842
815.115	26800
815.256	26648
815.397	26727
815.539	26708
815.68	26465
815.821	26511
815.962	26750
816.103	26568
816.244	26495
816.385	26358
816.526	26275
816.666	26168
816.807	25993
816.948	26164
817.089	26202
817.23	26195
817.371	26035
817.512	25932
817.653	26237
817.793	26016
817.934	26039
818.075	26031
818.216	26134
818.356	26096
818.497	25966
818.638	25666
818.778	25883
818.919	25750
819.06	25852
819.2	25944
819.341	25982
819.481	26077
819.622	26233
819.762	26355
819.903	26396
820.043	26130
820.184	26134
820.324	26134
820.465	26275
820.605	26153
820.746	26161
820.886	25868
821.026	26168
821.167	26126
821.307	26328
821.447	26020
821.588	26039
821.728	25803
821.868	25666
822.008	25495
822.149	25616
822.289	25533
822.429	25278
822.569	25145
822.709	25187
822.849	25088
822.99	25118
823.13	25046
823.27	24947
823.41	24932
823.55	24760
823.69	24878
823.83	24783
823.97	24856
824.11	24669
824.25	24692
824.389	24597
824.529	24631
824.669	24684
824.809	24677
824.949	24821
825.089	24730
825.228	24730
825.368	24486
825.508	24483
825.648	24715
825.787	24327
825.927	24635
826.067	24525
826.206	24479
826.346	24608
826.485	24620
826.625	24532
826.765	24734
826.904	24608
827.044	24353
827.183	24315
827.323	24270
827.462	24296
827.601	24243
827.741	24114
827.88	24266
828.02	24053
828.159	24262
828.298	24228
828.437	24292
828.577	24125
828.716	24384
828.855	24125
828.994	23939
829.134	23859
829.273	24049
829.412	23824
829.551	23923
829.69	23870
829.829	23885
829.968	24064
830.107	23908
830.246	23904
830.385	23843
830.524	23836
830.663	23767
830.802	23714
830.941	23581
831.08	23543
831.219	23615
831.357	23649
831.496	23775
831.635	23539
831.774	23417
831.913	23551
832.051	23398
832.19	23265
832.329	23467
832.467	23246
832.606	23246
832.744	23159
832.883	23056
833.022	23162
833.16	23341
833.299	23379
833.437	23174
833.576	23337
833.714	23170
833.852	23364
833.991	23322
834.129	23360
834.267	23376
834.406	23170
834.544	23421
834.682	23258
834.821	23181
834.959	23471
835.097	23349
835.235	23379
835.373	23318
835.511	23254
835.65	23235
835.788	23208
835.926	22949
836.064	22850
836.202	22911
836.34	23124
836.478	23261
836.615	23132
836.753	23212
836.891	23143
837.029	23181
837.167	23041
837.305	23185
837.443	23041
837.58	22900
837.718	22987
837.856	23064
837.993	22976
838.131	23025
838.269	22900
838.406	22995
838.544	22797
838.681	22607
838.819	22561
838.956	22523
839.094	22615
839.231	22550
839.369	22736
839.506	22923
839.643	22710
839.781	22527
839.918	22318
840.055	22447
840.193	22398
840.33	22276
840.467	22485
840.604	22409
840.742	22668
840.879	22276
841.016	22500
841.153	22462
841.29	22561
841.427	22451
841.564	22466
841.701	22409
841.838	22352
841.975	22333
842.112	22295
842.249	22390
842.385	22306
842.522	22455
842.659	22303
842.796	22143
842.933	22196
843.069	22109
843.206	22150
843.343	22162
843.479	22109
843.616	22166
843.752	21876
843.889	21987
844.025	22162
844.162	22013
844.298	22006
844.435	21949
844.571	21873
844.708	21941
844.844	22013
844.98	22268
845.117	21987
845.253	21899
845.389	21865
845.525	21789
845.661	21812
845.798	21724
845.934	21720
846.07	21682
846.206	21671
846.342	21701
846.478	21778
846.614	21462
846.75	21389
846.886	21428
847.022	21515
847.158	21492
847.294	21458
847.429	21488
847.565	21428
847.701	21610
847.837	21211
847.972	21089
848.108	21211
848.244	21268
848.379	21036
848.515	21047
848.65	21043
848.786	20838
848.921	21032
849.057	21161
849.192	21005
849.328	21043
849.463	20994
849.598	21009
849.734	20910
849.869	20872
850.004	20781
850.14	20880
850.275	20830
850.41	20739
850.545	20876
850.68	20815
850.815	20899
850.95	20872
851.085	20960
851.22	20815
851.355	20891
851.49	20883
851.625	20804
851.76	20689
851.895	20792
852.03	20804
852.165	20727
852.299	20811
852.434	20876
852.569	20868
852.703	20880
852.838	20861
852.973	20876
853.107	20864
853.242	20765
853.376	20735
853.511	20476
853.645	20621
853.78	20693
853.914	20579
854.048	20727
854.183	20560
854.317	20693
854.451	20883
854.585	20712
854.72	20488
854.854	20701
854.988	20602
855.122	20609
855.256	20514
855.39	20526
855.524	20613
855.658	20785
855.792	20598
855.926	20640
856.06	20731
856.194	20834
856.327	20575
856.461	20648
856.595	20568
856.729	20533
856.862	20651
856.996	20598
857.13	20750
857.263	20682
857.397	20712
857.53	20727
857.664	20621
857.797	20701
857.931	20708
858.064	20708
858.197	20648
858.331	20587
858.464	20621
858.597	20507
858.731	20514
858.864	20549
858.997	20537
859.13	20541
859.263	20632
859.396	20659
859.529	20560
859.662	20659
859.795	20408
859.928	20564
860.061	20815
860.194	20880
860.327	20590
860.46	20674
860.592	20769
860.725	20796
860.858	20659
860.99	20613
861.123	20602
861.256	20503
861.388	20533
861.521	21241
861.653	20575
861.786	20503
861.918	20442
862.05	20473
862.183	20461
862.315	20606
862.447	20606
862.58	20431
862.712	20347
862.844	20317
862.976	20442
863.108	20404
863.24	20849
863.372	20313
863.504	20271
863.636	20294
863.768	20328
863.9	20355
864.032	20187
864.164	20240
864.296	20298
864.428	20492
864.559	20324
864.691	20533
864.823	20298
864.954	20393
865.086	20324
865.217	20237
865.349	20111
865.48	20221
865.612	20180
865.743	20328
865.875	20161
866.006	20180
866.137	20240
866.269	20210
866.4	20161
866.531	20214
866.662	20142
866.793	20149
866.924	20233
867.055	20298
867.186	20153
867.317	20161
867.448	20084
867.579	20100
867.71	20092
867.841	20149
867.972	20229
868.103	20256
868.233	20161
868.364	20107
868.495	20317
868.625	20404
868.756	20427
868.886	20381
869.017	20377
869.147	20530
869.278	20602
869.408	20606
869.539	20393
869.669	20412
869.799	20419
869.929	20442
870.06	20530
870.19	20693
870.32	20727
870.45	20708
870.58	20853
870.71	20895
870.84	20925
870.97	20845
871.1	20773
871.23	20963
871.36	20941
871.489	20952
871.619	21089
871.749	21051
871.879	21154
872.008	21070
872.138	21161
872.267	20956
872.397	20887
872.526	20815
872.656	20788
872.785	20815
872.915	21047
873.044	21077
873.173	21100
873.303	21203
873.432	21192
873.561	21070
873.69	21150
873.819	21119
873.948	21146
874.077	21085
874.206	21104
874.335	21135
874.464	21154
874.593	21291
874.722	21195
874.851	21336
874.979	21291
875.108	21325
875.237	21272
875.365	21176
875.494	21199
875.623	21359
875.751	21306
875.88	21302
876.008	21458
876.136	21462
876.265	21667
876.393	21808
876.521	21819
876.65	21804
876.778	21667
876.906	21625
877.034	21633
877.162	21637
877.29	21580
877.418	21538
877.546	21637
877.674	21667
877.802	21698
877.93	21656
878.058	21614
878.185	21519
878.313	21606
878.441	21534
878.568	21545
878.696	21614
878.824	21603
878.951	21660
879.079	21789
879.206	21884
879.333	21812
879.461	21690
879.588	21724
879.715	21808
879.842	21857
879.97	21618
880.097	21511
880.224	21367
880.351	21568
880.478	21477
880.605	21393
880.732	21488
880.859	21625
880.986	21454
881.112	21351
881.239	21355
881.366	21317
881.493	21203
881.619	20838
881.746	21020
881.872	21131
881.999	21039
882.125	21013
882.252	21119
882.378	21043
882.505	21131
882.631	20899
882.757	20861
882.883	20823
883.01	20731
883.136	20689
883.262	20606
883.388	20598
883.514	20632
883.64	20773
883.766	20765
883.892	20385
884.018	20602
884.143	20651
884.269	20800
884.395	20415
884.52	20408
884.646	20431
884.772	20374
884.897	20336
885.023	20450
885.148	20503
885.274	20606
885.399	20511
885.524	20427
885.65	20404
885.775	20389
885.9	20495
886.025	20503
886.15	20377
886.275	20313
886.4	20404
886.525	20271
886.65	20305
886.775	20301
886.9	20503
887.025	20705
887.149	20271
887.274	20202
887.399	20157
887.523	20183
887.648	20111
887.773	20084
887.897	20256
888.021	20142
888.146	20130
888.27	20142
888.395	20267
888.519	20122
888.643	20237
888.767	20157
888.891	19978
889.015	20020
889.139	20100
889.263	19902
889.387	20024
889.511	20176
889.635	20039
889.759	19955
889.883	19871
890.006	20012
890.13	20081
890.254	19917
890.377	19940
890.501	19868
890.624	19811
890.748	19666
890.871	19693
890.995	19586
891.118	19502
891.241	19597
891.364	19647
891.488	19708
891.611	19571
891.734	19514
891.857	19533
891.98	19571
892.103	19544
892.226	19540
892.349	19613
892.471	19373
892.594	19449
892.717	19460
892.839	19403
892.962	19521
893.085	19476
893.207	19548
893.33	19373
893.452	19343
893.575	19480
893.697	19521
893.819	19666
893.941	19643
894.064	19582
894.186	19411
894.308	19434
894.43	19586
894.552	19685
894.674	19457
894.796	19419
894.918	19556
895.04	19362
895.161	19521
895.283	19544
895.405	19449
895.526	19308
895.648	19480
895.769	19548
895.891	19422
896.012	19518
896.134	19563
896.255	19495
896.376	19533
896.498	19548
896.619	19540
896.74	19491
896.861	19559
896.982	19811
897.103	19974
897.224	19738
897.345	19742
897.466	19753
897.587	19708
897.708	19799
897.828	19791
897.949	19689
898.07	19499
898.19	19639
898.311	19788
898.431	19632
898.552	19894
898.672	19769
898.792	19811
898.913	19662
899.033	19616
899.153	19575
899.273	19381
899.393	19430
899.513	19518
899.633	19540
899.753	19552
899.873	19464
899.993	19502
900.113	19434
900.232	19506
900.352	19422
900.472	19225
900.591	19225
900.711	19259
900.83	19293
900.95	19316
901.069	19396
901.189	19244
901.308	18837
901.427	18848
901.546	18810
901.665	18890
901.784	18993
901.904	18795
902.023	18738
902.141	18311
902.26	18403
902.379	18456
902.498	18410
902.617	18315
902.735	18372
902.854	18365
902.973	18346
903.091	18190
903.21	18079
903.328	18007
903.446	17961
903.565	17958
903.683	17828
903.801	17691
903.919	17874
904.038	17805
904.156	17684
904.274	17767
904.392	17604
904.51	17493
904.627	17672
904.745	17684
904.863	17672
904.981	17459
905.098	17376
905.216	17372
905.334	17391
905.451	17364
905.569	17379
905.686	17376
905.803	17208
905.921	17159
906.038	17193
906.155	17117
906.272	17025
906.389	17010
906.506	16919
906.623	16923
906.74	16862
906.857	16812
906.974	16706
907.091	16824
907.208	16999
907.324	16725
907.441	16812
907.557	16569
907.674	16584
907.79	16474
907.907	16535
908.023	16588
908.139	16447
908.256	16527
908.372	16554
908.488	16443
908.604	16409
908.72	16299
908.836	16318
908.952	16314
909.068	16325
909.184	16371
909.3	16204
909.415	16424
909.531	16314
909.647	16040
909.762	16021
909.878	16021
909.993	15994
910.108	16006
910.224	15922
910.339	16013
910.454	15850
910.57	15823
910.685	15747
910.8	16090
910.915	15869
911.03	15865
911.145	15515
911.259	15599
911.374	15614
911.489	15564
911.604	15492
911.718	15397
911.833	15378
911.947	15275
912.062	15321
912.176	15340
912.291	15492
912.405	15488
912.519	15637
912.633	15584
912.748	15367
912.862	15279
912.976	15180
913.09	15142
913.204	15233
913.318	15211
913.431	15188
913.545	15310
913.659	15233
913.772	15188
913.886	15070
914	15100
914.113	15036
914.226	15093
914.34	15169
914.453	14899
914.566	14971
914.68	14921
914.793	14902
914.906	14712
915.019	14583
915.132	14610
915.245	14583
915.358	14579
915.47	14629
915.583	14667
915.696	14640
915.809	14663
915.921	14800
916.034	14499
916.146	14461
916.259	14476
916.371	14579
916.483	14480
916.595	14423
916.708	14450
916.82	14370
916.932	14442
917.044	14415
917.156	14423
917.268	14282
917.38	14290
917.491	14214
917.603	14355
917.715	14434
917.826	14358
917.938	14161
918.049	14096
918.161	14286
918.272	14332
918.384	14377
918.495	14237
918.606	14111
918.717	14073
918.828	14065
918.939	14111
919.05	13959
919.161	14081
919.272	13845
919.383	13913
919.494	14092
919.604	14221
919.715	13963
919.826	13963
919.936	13909
920.047	14081
920.157	14024
920.267	14256
920.378	14073
920.488	13997
920.598	14111
920.708	14328
920.818	14164
920.928	14176
921.038	14252
921.148	14271
921.258	13936
921.368	13955
921.477	13875
921.587	13807
921.697	13681
921.806	13795
921.916	13666
922.025	13506
922.134	13457
922.244	13426
922.353	13430
922.462	13274
922.571	13217
922.68	13072
922.789	13076
922.898	13091
923.007	13046
923.116	13084
923.224	13076
923.333	13027
923.442	12943
923.55	12814
923.659	12989
923.767	12993
923.876	12875
923.984	12920
924.092	12810
924.201	12897
924.309	12741
924.417	12802
924.525	12741
924.633	12802
924.741	13708
924.849	12604
924.956	12650
925.064	12585
925.172	12460
925.279	12506
925.387	12566
925.494	12486
925.602	12608
925.709	12578
925.816	12467
925.924	12399
926.031	12566
926.138	12467
926.245	12540
926.352	12369
926.459	12498
926.566	12620
926.673	12365
926.779	12289
926.886	12289
926.993	12152
927.099	12129
927.206	12064
927.312	12045
927.419	12114
927.525	12098
927.631	12102
927.737	11999
927.843	11935
927.95	11855
928.056	11961
928.162	12015
928.267	12007
928.373	12464
928.479	12011
928.585	11821
928.69	11988
928.796	11939
928.901	11760
929.007	11691
929.112	11851
929.218	11714
929.323	11676
929.428	11608
929.533	11688
929.638	11528
929.743	11604
929.848	11623
929.953	11604
930.058	11535
930.163	11349
930.267	11406
930.372	11520
930.477	11296
930.581	11551
930.685	11425
930.79	11292
930.894	11341
930.998	11181
931.103	11345
931.207	10965
931.311	10896
931.415	10843
931.519	10618
931.623	10721
