Data from test_V78500241_2193.txt Node
Date: Fri Mar 25 15:25:07 CST 2022
User: usil
Spectrometer: V785-0024
Trigger mode: 0
Integration Time (sec): 4.000000E-1
Scans to average: 1
Nonlinearity correction enabled: false
Boxcar width: 0
Storing dark spectrum: false
XAxis mode: Wavelengths
Number of Pixels in Spectrum: 1024
>>>>>Begin Spectral Data<<<<<
801.071	27956
801.214	27622
801.356	27374
801.499	27458
801.641	27214
801.783	27264
801.926	27363
802.068	27325
802.211	27195
802.353	27287
802.496	27096
802.638	26990
802.78	27051
802.923	26838
803.065	26815
803.208	26804
803.35	27074
803.492	27089
803.635	27127
803.777	26940
803.919	27131
804.061	27408
804.204	27146
804.346	27100
804.488	27089
804.63	27207
804.773	27184
804.915	27207
805.057	27306
805.199	27066
805.341	27150
805.483	27310
805.626	27302
805.768	27211
805.91	27218
806.052	27127
806.194	27173
806.336	27420
806.478	27157
806.62	27199
806.762	27378
806.904	27477
807.046	27679
807.188	27614
807.33	27781
807.472	27698
807.614	27614
807.756	27686
807.898	27568
808.04	27450
808.182	27580
808.324	27595
808.465	27728
808.607	27774
808.749	27770
808.891	27994
809.033	28040
809.174	27854
809.316	27831
809.458	27972
809.6	27861
809.741	28032
809.883	27960
810.025	28166
810.166	28017
810.308	28181
810.45	28093
810.591	28162
810.733	27838
810.875	27884
811.016	27698
811.158	27797
811.299	27994
811.441	27934
811.582	28074
811.724	27994
811.865	27876
812.007	27895
812.148	27888
812.29	27979
812.431	28131
812.573	28166
812.714	28219
812.855	28344
812.997	28557
813.138	28504
813.279	28451
813.421	28413
813.562	28166
813.703	28276
813.845	28036
813.986	27800
814.127	27698
814.268	27587
814.41	27530
814.551	27686
814.692	27614
814.833	27633
814.974	27603
815.115	27519
815.256	27367
815.397	27355
815.539	27348
815.68	27355
815.821	27344
815.962	27374
816.103	27230
816.244	27195
816.385	27146
816.526	27055
816.666	26937
816.807	26895
816.948	26918
817.089	26925
817.23	27062
817.371	26788
817.512	26804
817.653	27017
817.793	26804
817.934	26921
818.075	26933
818.216	26826
818.356	26891
818.497	26743
818.638	26549
818.778	26663
818.919	26617
819.06	26743
819.2	26792
819.341	27017
819.481	26762
819.622	26986
819.762	27237
819.903	27108
820.043	26899
820.184	26975
820.324	26857
820.465	27089
820.605	26963
820.746	26956
820.886	26735
821.026	26880
821.167	26819
821.307	26944
821.447	26842
821.588	26750
821.728	26533
821.868	26453
822.008	26377
822.149	26259
822.289	26210
822.429	25959
822.569	26008
822.709	25959
822.849	25753
822.99	25898
823.13	25780
823.27	25620
823.41	25799
823.55	25556
823.69	25639
823.83	25613
823.97	25495
824.11	25289
824.25	25434
824.389	25403
824.529	25518
824.669	25392
824.809	25666
824.949	25487
825.089	25594
825.228	25415
825.368	25266
825.508	25354
825.648	25312
825.787	25175
825.927	25411
826.067	25221
826.206	25320
826.346	25289
826.485	25308
826.625	25384
826.765	25426
826.904	25285
827.044	25091
827.183	25202
827.323	24932
827.462	24954
827.601	25137
827.741	24939
827.88	25137
828.02	24939
828.159	24989
828.298	24958
828.437	25228
828.577	24943
828.716	25019
828.855	24951
828.994	24681
829.134	24776
829.273	24867
829.412	24585
829.551	24589
829.69	24608
829.829	24768
829.968	24688
830.107	24715
830.246	24669
830.385	24692
830.524	24627
830.663	24513
830.802	24220
830.941	24251
831.08	24300
831.219	24429
831.357	24357
831.496	24673
831.635	24296
831.774	24152
831.913	24258
832.051	24117
832.19	23980
832.329	24087
832.467	23958
832.606	24003
832.744	23935
832.883	23897
833.022	24011
833.16	23958
833.299	23958
833.437	23942
833.576	24018
833.714	23988
833.852	24106
833.991	24148
834.129	24182
834.267	24072
834.406	24030
834.544	24136
834.682	24026
834.821	23999
834.959	24121
835.097	23927
835.235	24045
835.373	23969
835.511	23992
835.65	23824
835.788	23946
835.926	23790
836.064	23646
836.202	23737
836.34	23836
836.478	24038
836.615	23798
836.753	23809
836.891	23969
837.029	23870
837.167	23764
837.305	23775
837.443	23813
837.58	23623
837.718	23809
837.856	23691
837.993	23630
838.131	23687
838.269	23535
838.406	23589
838.544	23482
838.681	23436
838.819	23341
838.956	23197
839.094	23200
839.231	23387
839.369	23395
839.506	23676
839.643	23417
839.781	23178
839.918	23193
840.055	23159
840.193	23155
840.33	23018
840.467	23048
840.604	23048
840.742	23246
840.879	23060
841.016	23029
841.153	23003
841.29	23143
841.427	22972
841.564	23117
841.701	23113
841.838	23067
841.975	23010
842.112	23033
842.249	22942
842.385	22919
842.522	23064
842.659	22862
842.796	22771
842.933	22984
843.069	22889
843.206	22755
843.343	22968
843.479	22862
843.616	22919
843.752	22660
843.889	22550
844.025	22847
844.162	22603
844.298	22645
844.435	22687
844.571	22554
844.708	22531
844.844	22683
844.98	22622
845.117	22721
845.253	22557
845.389	22451
845.525	22447
845.661	22413
845.798	22310
845.934	22436
846.07	22398
846.206	22466
846.342	22360
846.478	22306
846.614	22169
846.75	21972
846.886	22002
847.022	22086
847.158	22101
847.294	22048
847.429	22090
847.565	22124
847.701	22386
847.837	21736
847.972	21861
848.108	22013
848.244	21793
848.379	21625
848.515	21610
848.65	21713
848.786	21667
848.921	21709
849.057	21793
849.192	21812
849.328	21701
849.463	21641
849.598	21564
849.734	21656
849.869	21557
850.004	21416
850.14	21428
850.275	21515
850.41	21272
850.545	21447
850.68	21340
850.815	21401
850.95	21351
851.085	21755
851.22	21458
851.355	21466
851.49	21538
851.625	21428
851.76	21416
851.895	21317
852.03	21329
852.165	21408
852.299	21416
852.434	21557
852.569	21534
852.703	21568
852.838	21447
852.973	21629
853.107	21416
853.242	21329
853.376	21188
853.511	21157
853.645	21256
853.78	21222
853.914	21275
854.048	21355
854.183	21279
854.317	21275
854.451	21530
854.585	21230
854.72	21275
854.854	21378
854.988	21157
855.122	21325
855.256	21150
855.39	21233
855.524	21348
855.658	21203
855.792	21264
855.926	21256
856.06	21291
856.194	21359
856.327	21184
856.461	21199
856.595	21180
856.729	21237
856.862	21291
856.996	21317
857.13	21207
857.263	21374
857.397	21313
857.53	21146
857.664	21294
857.797	21302
857.931	21367
858.064	21218
858.197	21397
858.331	21268
858.464	21211
858.597	21192
858.731	21142
858.864	21211
858.997	21222
859.13	21272
859.263	21268
859.396	21214
859.529	21226
859.662	21275
859.795	21283
859.928	21218
860.061	21447
860.194	21557
860.327	21367
860.46	21351
860.592	21302
860.725	21397
860.858	21363
860.99	21283
861.123	21184
861.256	21237
861.388	21195
861.521	21949
861.653	21058
861.786	20979
861.918	21028
862.05	21207
862.183	21184
862.315	21207
862.447	21260
862.58	21192
862.712	20823
862.844	20864
862.976	21070
863.108	20975
863.24	21302
863.372	20845
863.504	20956
863.636	20944
863.768	21096
863.9	21005
864.032	20804
864.164	20960
864.296	20887
864.428	21043
864.559	21028
864.691	21093
864.823	20914
864.954	20944
865.086	21020
865.217	20880
865.349	20781
865.48	20758
865.612	20815
865.743	21055
865.875	20963
866.006	20857
866.137	20830
866.269	20853
866.4	20891
866.531	20648
866.662	20762
866.793	20804
866.924	20701
867.055	20727
867.186	20914
867.317	20765
867.448	20720
867.579	20746
867.71	20670
867.841	20693
867.972	20838
868.103	20785
868.233	20785
868.364	20823
868.495	20937
868.625	20887
868.756	21028
868.886	21009
869.017	21036
869.147	21214
869.278	21154
869.408	21005
869.539	21055
869.669	20971
869.799	21096
869.929	21089
870.06	21127
870.19	21287
870.32	21294
870.45	21469
870.58	21610
870.71	21469
870.84	21405
870.97	21439
871.1	21321
871.23	21553
871.36	21591
871.489	21603
871.619	21561
871.749	21595
871.879	21523
872.008	21568
872.138	21614
872.267	21545
872.397	21382
872.526	21359
872.656	21466
872.785	21408
872.915	21591
873.044	21652
873.173	21576
873.303	21671
873.432	21728
873.561	21759
873.69	21641
873.819	21610
873.948	21743
874.077	21648
874.206	21728
874.335	21519
874.464	21785
874.593	21937
874.722	21739
874.851	21846
874.979	21945
875.108	21918
875.237	21827
875.365	21736
875.494	21892
875.623	21903
875.751	21808
875.88	21941
876.008	21895
876.136	22063
876.265	22200
876.393	22223
876.521	22402
876.65	22314
876.778	22185
876.906	22154
877.034	22162
877.162	22246
877.29	21987
877.418	22158
877.546	22215
877.674	22207
877.802	22246
877.93	22363
878.058	22124
878.185	22169
878.313	22143
878.441	22238
878.568	22139
878.696	22139
878.824	22268
878.951	22318
879.079	22478
879.206	22504
879.333	22474
879.461	22226
879.588	22386
879.715	22284
879.842	22405
879.97	22341
880.097	22048
880.224	22109
880.351	22097
880.478	21968
880.605	22074
880.732	22173
880.859	22200
880.986	21930
881.112	22044
881.239	21895
881.366	21766
881.493	21739
881.619	21576
881.746	21629
881.872	21660
881.999	21641
882.125	21420
882.252	21530
882.378	21614
882.505	21701
882.631	21481
882.757	21279
882.883	21466
883.01	21458
883.136	21298
883.262	21116
883.388	21116
883.514	21332
883.64	21336
883.766	21176
883.892	21070
884.018	21074
884.143	21291
884.269	21344
884.395	21009
884.52	21005
884.646	20914
884.772	20857
884.897	20868
885.023	20952
885.148	21119
885.274	21081
885.399	21043
885.524	20929
885.65	20944
885.775	20937
885.9	20990
886.025	21009
886.15	21085
886.275	20864
886.4	20754
886.525	20937
886.65	20819
886.775	20838
886.9	20948
887.025	21116
887.149	20883
887.274	20792
887.399	20800
887.523	20674
887.648	20644
887.773	20689
887.897	20819
888.021	20815
888.146	20727
888.27	20853
888.395	20750
888.519	20724
888.643	20781
888.767	20804
888.891	20609
889.015	20526
889.139	20659
889.263	20434
889.387	20602
889.511	20716
889.635	20716
889.759	20469
889.883	20537
890.006	20457
890.13	20560
890.254	20465
890.377	20431
890.501	20248
890.624	20252
890.748	20301
890.871	20191
890.995	20130
891.118	19997
891.241	20214
891.364	20187
891.488	20142
891.611	19978
891.734	20062
891.857	20161
891.98	20012
892.103	20180
892.226	20024
892.349	19993
892.471	19837
892.594	20016
892.717	20054
892.839	20001
892.962	19982
893.085	20024
893.207	19963
893.33	19936
893.452	19811
893.575	20096
893.697	19989
893.819	20157
893.941	20195
894.064	20164
894.186	19917
894.308	19913
894.43	20008
894.552	20058
894.674	20100
894.796	19944
894.918	20005
895.04	19982
895.161	20062
895.283	20039
895.405	19963
895.526	19982
895.648	20016
895.769	20001
895.891	19959
896.012	20058
896.134	19989
896.255	20046
896.376	19868
896.498	20035
896.619	19974
896.74	20130
896.861	20073
896.982	20259
897.103	20492
897.224	20305
897.345	20176
897.466	20191
897.587	20237
897.708	20332
897.828	20324
897.949	20153
898.07	20005
898.19	20119
898.311	20294
898.431	20176
898.552	20187
898.672	20286
898.792	20199
898.913	20267
899.033	20020
899.153	20039
899.273	19887
899.393	20027
899.513	20081
899.633	20062
899.753	20012
899.873	19780
899.993	20008
900.113	19928
900.232	19936
900.352	19875
900.472	19879
900.591	19704
900.711	19708
900.83	19704
900.95	19883
901.069	19868
901.189	19674
901.308	19502
901.427	19263
901.546	19483
901.665	19350
901.784	19301
901.904	19206
902.023	19027
902.141	18897
902.26	18916
902.379	18882
902.498	18913
902.617	18749
902.735	18993
902.854	18825
902.973	18795
903.091	18506
903.21	18452
903.328	18376
903.446	18445
903.565	18357
903.683	18239
903.801	18213
903.919	18247
904.038	18201
904.156	18053
904.274	18186
904.392	18041
904.51	17984
904.627	18076
904.745	18136
904.863	18068
904.981	17954
905.098	17821
905.216	17802
905.334	17718
905.451	17805
905.569	17745
905.686	17726
905.803	17767
905.921	17589
906.038	17627
906.155	17661
906.272	17501
906.389	17398
906.506	17345
906.623	17406
906.74	17269
906.857	17242
906.974	17159
907.091	17292
907.208	17337
907.324	17303
907.441	17067
907.557	16953
907.674	17025
907.79	16953
907.907	16953
908.023	17060
908.139	16927
908.256	16999
908.372	16961
908.488	16995
908.604	16824
908.72	16744
908.836	16835
908.952	16656
909.068	16790
909.184	16850
909.3	16828
909.415	16767
909.531	16733
909.647	16523
909.762	16508
909.878	16462
909.993	16371
910.108	16440
910.224	16337
910.339	16504
910.454	16371
910.57	16177
910.685	16173
910.8	16402
910.915	16386
911.03	16322
911.145	16040
911.259	16116
911.374	16051
911.489	15915
911.604	15884
911.718	15762
911.833	15835
911.947	15629
912.062	15572
912.176	15819
912.291	15766
912.405	15743
912.519	15956
912.633	15987
912.748	15774
912.862	15835
912.976	15568
913.09	15488
913.204	15618
913.318	15660
913.431	15663
913.545	15622
913.659	15778
913.772	15458
913.886	15412
914	15401
914.113	15466
914.226	15568
914.34	15549
914.453	15283
914.566	15466
914.68	15294
914.793	15241
914.906	15108
915.019	15028
915.132	14914
915.245	15024
915.358	14994
915.47	14994
915.583	14899
915.696	14941
915.809	15222
915.921	15176
916.034	14887
916.146	14876
916.259	14872
916.371	15051
916.483	15001
916.595	14811
916.708	14857
916.82	14876
916.932	14750
917.044	14807
917.156	14708
917.268	14716
917.38	14670
917.491	14659
917.603	14644
917.715	14762
917.826	14720
917.938	14552
918.049	14545
918.161	14636
918.272	14731
918.384	14769
918.495	14613
918.606	14552
918.717	14263
918.828	14423
918.939	14438
919.05	14370
919.161	14400
919.272	14282
919.383	14263
919.494	14457
919.604	14533
919.715	14404
919.826	14351
919.936	14309
920.047	14385
920.157	14362
920.267	14610
920.378	14377
920.488	14385
920.598	14541
920.708	14674
920.818	14541
920.928	14480
921.038	14651
921.148	14682
921.258	14339
921.368	14267
921.477	14138
921.587	14107
921.697	14046
921.806	14138
921.916	13898
922.025	13788
922.134	13776
922.244	13685
922.353	13841
922.462	13677
922.571	13655
922.68	13567
922.789	13472
922.898	13415
923.007	13388
923.116	13438
923.224	13483
923.333	13403
923.442	13304
923.55	13278
923.659	13263
923.767	13316
923.876	13171
923.984	13209
924.092	13156
924.201	13103
924.309	13236
924.417	13190
924.525	13118
924.633	13034
924.741	13849
924.849	12852
924.956	13046
925.064	12894
925.172	12810
925.279	12829
925.387	12840
925.494	12863
925.602	12943
925.709	12913
925.816	12703
925.924	12730
926.031	12905
926.138	12798
926.245	12840
926.352	12760
926.459	12768
926.566	12810
926.673	12745
926.779	12620
926.886	12604
926.993	12429
927.099	12456
927.206	12304
927.312	12372
927.419	12407
927.525	12380
927.631	12452
927.737	12296
927.843	12350
927.95	12125
928.056	12247
928.162	12235
928.267	12262
928.373	12817
928.479	12285
928.585	12133
928.69	12205
928.796	12197
928.901	12114
929.007	11950
929.112	12133
929.218	12045
929.323	12019
929.428	11908
929.533	11992
929.638	11863
929.743	11851
929.848	11977
929.953	11908
930.058	11855
930.163	11509
930.267	11623
930.372	11790
930.477	11653
930.581	11927
930.685	11642
930.79	11505
930.894	11482
930.998	11501
931.103	11756
931.207	11212
931.311	11254
931.415	11151
931.519	10972
931.623	10919
