Data from test_V78500241_1113.txt Node
Date: Fri Mar 25 15:17:36 CST 2022
User: usil
Spectrometer: V785-0024
Trigger mode: 0
Integration Time (sec): 4.000000E-1
Scans to average: 1
Nonlinearity correction enabled: false
Boxcar width: 0
Storing dark spectrum: false
XAxis mode: Wavelengths
Number of Pixels in Spectrum: 1024
>>>>>Begin Spectral Data<<<<<
801.071	28242
801.214	28200
801.356	27778
801.499	27854
801.641	27705
801.783	27755
801.926	27663
802.068	27637
802.211	27774
802.353	27652
802.496	27447
802.638	27382
802.78	27412
802.923	27336
803.065	27317
803.208	27256
803.35	27367
803.492	27606
803.635	27526
803.777	27431
803.919	27591
804.061	27823
804.204	27652
804.346	27519
804.488	27466
804.63	27526
804.773	27587
804.915	27679
805.057	27755
805.199	27507
805.341	27625
805.483	27804
805.626	27720
805.768	27557
805.91	27720
806.052	27770
806.194	27724
806.336	28010
806.478	27736
806.62	27724
806.762	27732
806.904	28067
807.046	28234
807.188	28154
807.33	28105
807.472	28284
807.614	28086
807.756	28086
807.898	28169
808.04	28013
808.182	27934
808.324	28082
808.465	27991
808.607	28181
808.749	28424
808.891	28375
809.033	28717
809.174	28538
809.316	28265
809.458	28333
809.6	28356
809.741	28512
809.883	28394
810.025	28786
810.166	28710
810.308	28622
810.45	28538
810.591	28603
810.733	28611
810.875	28428
811.016	28318
811.158	28265
811.299	28394
811.441	28554
811.582	28645
811.724	28344
811.865	28470
812.007	28432
812.148	28394
812.29	28466
812.431	28542
812.573	28812
812.714	28862
812.855	28953
812.997	29029
813.138	29109
813.279	29044
813.421	29060
813.562	29022
813.703	28668
813.845	28691
813.986	28440
814.127	28295
814.268	28150
814.41	28181
814.551	28032
814.692	28173
814.833	28029
814.974	28158
815.115	28158
815.256	28002
815.397	28074
815.539	27892
815.68	27892
815.821	27907
815.962	27895
816.103	27975
816.244	27793
816.385	27751
816.526	27656
816.666	27564
816.807	27397
816.948	27504
817.089	27526
817.23	27511
817.371	27466
817.512	27302
817.653	27389
817.793	27378
817.934	27458
818.075	27519
818.216	27477
818.356	27420
818.497	27329
818.638	27165
818.778	27199
818.919	27279
819.06	27165
819.2	27408
819.341	27393
819.481	27424
819.622	27519
819.762	27797
819.903	27686
820.043	27633
820.184	27583
820.324	27519
820.465	27606
820.605	27542
820.746	27652
820.886	27485
821.026	27416
821.167	27519
821.307	27530
821.447	27469
821.588	27405
821.728	27272
821.868	27131
822.008	27089
822.149	26910
822.289	26872
822.429	26674
822.569	26575
822.709	26511
822.849	26514
822.99	26503
823.13	26355
823.27	26377
823.41	26199
823.55	26259
823.69	26286
823.83	26103
823.97	26202
824.11	26107
824.25	26122
824.389	26081
824.529	26180
824.669	26088
824.809	26263
824.949	26225
825.089	26005
825.228	26138
825.368	25879
825.508	26020
825.648	25928
825.787	26084
825.927	25986
826.067	25940
826.206	25894
826.346	26088
826.485	26016
826.625	25928
826.765	26077
826.904	26035
827.044	25811
827.183	25689
827.323	25575
827.462	25632
827.601	25856
827.741	25655
827.88	25769
828.02	25605
828.159	25613
828.298	25837
828.437	25734
828.577	25811
828.716	25734
828.855	25605
828.994	25460
829.134	25403
829.273	25525
829.412	25396
829.551	25354
829.69	25422
829.829	25483
829.968	25510
830.107	25453
830.246	25476
830.385	25407
830.524	25362
830.663	25244
830.802	25027
830.941	24977
831.08	25015
831.219	25080
831.357	25152
831.496	25270
831.635	25027
831.774	25031
831.913	24901
832.051	24928
832.19	24783
832.329	24859
832.467	24673
832.606	24700
832.744	24783
832.883	24654
833.022	24639
833.16	24665
833.299	24741
833.437	24821
833.576	24924
833.714	24814
833.852	24722
833.991	24791
834.129	25046
834.267	24795
834.406	24753
834.544	24859
834.682	24886
834.821	24681
834.959	24989
835.097	24730
835.235	24825
835.373	24650
835.511	24764
835.65	24631
835.788	24642
835.926	24456
836.064	24452
836.202	24547
836.34	24711
836.478	24540
836.615	24521
836.753	24684
836.891	24730
837.029	24650
837.167	24536
837.305	24509
837.443	24536
837.58	24422
837.718	24574
837.856	24544
837.993	24277
838.131	24593
838.269	24285
838.406	24388
838.544	24277
838.681	24152
838.819	24022
838.956	23912
839.094	23939
839.231	23973
839.369	23946
839.506	24254
839.643	24159
839.781	23965
839.918	23794
840.055	23851
840.193	23931
840.33	23969
840.467	23790
840.604	23946
840.742	24110
840.879	23748
841.016	23767
841.153	23764
841.29	23809
841.427	23874
841.564	23805
841.701	23752
841.838	23843
841.975	23752
842.112	23878
842.249	23596
842.385	23627
842.522	23802
842.659	23653
842.796	23646
842.933	23623
843.069	23539
843.206	23554
843.343	23653
843.479	23528
843.616	23573
843.752	23505
843.889	23493
844.025	23592
844.162	23364
844.298	23471
844.435	23452
844.571	23254
844.708	23474
844.844	23596
844.98	23581
845.117	23463
845.253	23185
845.389	23227
845.525	23326
845.661	23250
845.798	23060
845.934	23208
846.07	23064
846.206	23159
846.342	23227
846.478	23079
846.614	22862
846.75	22801
846.886	22820
847.022	22877
847.158	22862
847.294	22831
847.429	22892
847.565	22881
847.701	22991
847.837	22710
847.972	22451
848.108	22653
848.244	22615
848.379	22474
848.515	22474
848.65	22367
848.786	22447
848.921	22455
849.057	22580
849.192	22573
849.328	22516
849.463	22470
849.598	22481
849.734	22348
849.869	22246
850.004	22295
850.14	22375
850.275	22207
850.41	22109
850.545	22112
850.68	22162
850.815	22192
850.95	22188
851.085	22440
851.22	22204
851.355	22109
851.49	22230
851.625	22147
851.76	22162
851.895	22120
852.03	21994
852.165	22139
852.299	22169
852.434	22299
852.569	22097
852.703	22093
852.838	22185
852.973	22367
853.107	22253
853.242	22150
853.376	22036
853.511	21880
853.645	21907
853.78	22116
853.914	22090
854.048	22017
854.183	22032
854.317	22002
854.451	22177
854.585	22063
854.72	22006
854.854	22082
854.988	21972
855.122	22048
855.256	21949
855.39	22013
855.524	22010
855.658	21968
855.792	22109
855.926	22078
856.06	22010
856.194	22036
856.327	21922
856.461	21998
856.595	21819
856.729	21907
856.862	22101
856.996	22070
857.13	22105
857.263	22135
857.397	22032
857.53	22032
857.664	21945
857.797	22105
857.931	22128
858.064	21991
858.197	22112
858.331	22048
858.464	21937
858.597	21907
858.731	22013
858.864	21964
858.997	21804
859.13	21960
859.263	21968
859.396	22025
859.529	21972
859.662	21960
859.795	21968
859.928	21987
860.061	22097
860.194	22101
860.327	21983
860.46	21941
860.592	22112
860.725	22181
860.858	22112
860.99	22082
861.123	21895
861.256	21915
861.388	22040
861.521	22771
861.653	21835
861.786	21842
861.918	21876
862.05	21911
862.183	21812
862.315	21800
862.447	21956
862.58	21949
862.712	21766
862.844	21701
862.976	21778
863.108	21781
863.24	22230
863.372	21675
863.504	21694
863.636	21747
863.768	21743
863.9	21682
864.032	21603
864.164	21610
864.296	21709
864.428	21766
864.559	21823
864.691	21663
864.823	21663
864.954	21694
865.086	21599
865.217	21705
865.349	21492
865.48	21682
865.612	21724
865.743	21766
865.875	21603
866.006	21500
866.137	21564
866.269	21591
866.4	21587
866.531	21485
866.662	21481
866.793	21511
866.924	21431
867.055	21583
867.186	21408
867.317	21500
867.448	21412
867.579	21488
867.71	21469
867.841	21458
867.972	21481
868.103	21511
868.233	21466
868.364	21576
868.495	21660
868.625	21797
868.756	21846
868.886	21625
869.017	21618
869.147	21884
869.278	21945
869.408	21785
869.539	21739
869.669	21884
869.799	21797
869.929	22010
870.06	21865
870.19	22086
870.32	22006
870.45	22204
870.58	22169
870.71	22268
870.84	22360
870.97	22147
871.1	22181
871.23	22211
871.36	22310
871.489	22211
871.619	22207
871.749	22386
871.879	22390
872.008	22512
872.138	22405
872.267	22223
872.397	22196
872.526	22090
872.656	22211
872.785	22139
872.915	22348
873.044	22398
873.173	22459
873.303	22512
873.432	22360
873.561	22432
873.69	22417
873.819	22440
873.948	22421
874.077	22402
874.206	22234
874.335	22398
874.464	22478
874.593	22542
874.722	22599
874.851	22580
874.979	22668
875.108	22630
875.237	22653
875.365	22474
875.494	22527
875.623	22634
875.751	22538
875.88	22588
876.008	22736
876.136	22774
876.265	22934
876.393	23124
876.521	23067
876.65	23003
876.778	22930
876.906	22896
877.034	22908
877.162	22778
877.29	22839
877.418	22995
877.546	22942
877.674	22949
877.802	22946
877.93	22938
878.058	22835
878.185	22786
878.313	22759
878.441	22793
878.568	22675
878.696	22961
878.824	23044
878.951	22987
879.079	23071
879.206	23242
879.333	23147
879.461	23010
879.588	22991
879.715	22995
879.842	23166
879.97	22942
880.097	22797
880.224	22885
880.351	22793
880.478	22618
880.605	22831
880.732	22668
880.859	23003
880.986	22729
881.112	22660
881.239	22653
881.366	22565
881.493	22474
881.619	22367
881.746	22337
881.872	22382
881.999	22253
882.125	22322
882.252	22390
882.378	22268
882.505	22402
882.631	22162
882.757	22078
882.883	22036
883.01	21987
883.136	21899
883.262	21880
883.388	21781
883.514	21899
883.64	21922
883.766	21987
883.892	21778
884.018	21728
884.143	21964
884.269	21987
884.395	21694
884.52	21591
884.646	21690
884.772	21523
884.897	21469
885.023	21564
885.148	21614
885.274	21736
885.399	21739
885.524	21576
885.65	21656
885.775	21656
885.9	21610
886.025	21743
886.15	21724
886.275	21652
886.4	21557
886.525	21568
886.65	21496
886.775	21511
886.9	21755
887.025	21812
887.149	21538
887.274	21408
887.399	21355
887.523	21496
887.648	21450
887.773	21291
887.897	21447
888.021	21386
888.146	21370
888.27	21428
888.395	21401
888.519	21344
888.643	21504
888.767	21500
888.891	21188
889.015	21184
889.139	21336
889.263	21173
889.387	21313
889.511	21389
889.635	21370
889.759	21279
889.883	21237
890.006	21169
890.13	21287
890.254	21135
890.377	21127
890.501	21001
890.624	20880
890.748	20933
890.871	20925
890.995	20667
891.118	20716
891.241	20750
891.364	20891
891.488	20876
891.611	20800
891.734	20762
891.857	20853
891.98	20777
892.103	20781
892.226	20800
892.349	20632
892.471	20492
892.594	20598
892.717	20724
892.839	20686
892.962	20792
893.085	20716
893.207	20727
893.33	20594
893.452	20533
893.575	20697
893.697	20663
893.819	20769
893.941	20872
894.064	20773
894.186	20549
894.308	20549
894.43	20716
894.552	20750
894.674	20697
894.796	20549
894.918	20689
895.04	20636
895.161	20583
895.283	20648
895.405	20621
895.526	20617
895.648	20724
895.769	20663
895.891	20663
896.012	20724
896.134	20716
896.255	20667
896.376	20716
896.498	20644
896.619	20724
896.74	20663
896.861	20693
896.982	21036
897.103	21195
897.224	20880
897.345	20899
897.466	20807
897.587	20971
897.708	21020
897.828	20807
897.949	20819
898.07	20708
898.19	20830
898.311	20918
898.431	20929
898.552	20842
898.672	20853
898.792	20788
898.913	20834
899.033	20644
899.153	20663
899.273	20571
899.393	20705
899.513	20518
899.633	20606
899.753	20552
899.873	20533
899.993	20587
900.113	20579
900.232	20583
900.352	20450
900.472	20396
900.591	20450
900.711	20385
900.83	20237
900.95	20442
901.069	20427
901.189	20240
901.308	20062
901.427	19982
901.546	19890
901.665	19974
901.784	19894
901.904	19795
902.023	19662
902.141	19559
902.26	19350
902.379	19491
902.498	19373
902.617	19403
902.735	19419
902.854	19381
902.973	19358
903.091	19088
903.21	19175
903.328	19179
903.446	19027
903.565	18932
903.683	18913
903.801	18840
903.919	18894
904.038	18814
904.156	18707
904.274	18764
904.392	18604
904.51	18700
904.627	18582
904.745	18688
904.863	18802
904.981	18486
905.098	18395
905.216	18380
905.334	18311
905.451	18376
905.569	18346
905.686	18437
905.803	18308
905.921	18205
906.038	18186
906.155	18079
906.272	18060
906.389	17977
906.506	17878
906.623	17912
906.74	17901
906.857	17946
906.974	17836
907.091	18007
907.208	17996
907.324	17805
907.441	17893
907.557	17589
907.674	17604
907.79	17535
907.907	17558
908.023	17653
908.139	17619
908.256	17433
908.372	17585
908.488	17490
908.604	17341
908.72	17402
908.836	17368
908.952	17303
909.068	17265
909.184	17379
909.3	17349
909.415	17356
909.531	17292
909.647	16949
909.762	17045
909.878	16995
909.993	17117
910.108	16930
910.224	17003
910.339	17056
910.454	16873
910.57	16790
910.685	16763
910.8	16984
910.915	16930
911.03	16820
911.145	16615
911.259	16637
911.374	16607
911.489	16653
911.604	16436
911.718	16424
911.833	16390
911.947	16261
912.062	16109
912.176	16306
912.291	16272
912.405	16265
912.519	16504
912.633	16440
912.748	16371
912.862	16356
912.976	16131
913.09	16048
913.204	16166
913.318	16177
913.431	16284
913.545	16143
913.659	16246
913.772	16135
913.886	15994
914	15975
914.113	15926
914.226	16040
914.34	15964
914.453	15835
914.566	15987
914.68	15838
914.793	15732
914.906	15618
915.019	15603
915.132	15485
915.245	15439
915.358	15679
915.47	15492
915.583	15564
915.696	15545
915.809	15660
915.921	15652
916.034	15526
916.146	15469
916.259	15416
916.371	15443
916.483	15428
916.595	15344
916.708	15473
916.82	15416
916.932	15374
917.044	15241
917.156	15252
917.268	15264
917.38	15146
917.491	15169
917.603	15169
917.715	15203
917.826	15237
917.938	15146
918.049	15028
918.161	15199
918.272	15233
918.384	15306
918.495	15085
918.606	14933
918.717	14902
918.828	14986
918.939	14944
919.05	14834
919.161	14994
919.272	14674
919.383	14788
919.494	14956
919.604	15081
919.715	14838
919.826	14788
919.936	14807
920.047	14948
920.157	14857
920.267	15093
920.378	15028
920.488	14842
920.598	15032
920.708	15154
920.818	14975
920.928	14967
921.038	15233
921.148	15081
921.258	14785
921.368	14705
921.477	14697
921.587	14560
921.697	14457
921.806	14632
921.916	14499
922.025	14290
922.134	14195
922.244	14225
922.353	14263
922.462	14218
922.571	14050
922.68	13875
922.789	13887
922.898	13883
923.007	13909
923.116	13826
923.224	13947
923.333	13833
923.442	13765
923.55	13639
923.659	13791
923.767	13750
923.876	13609
923.984	13712
924.092	13670
924.201	13693
924.309	13696
924.417	13590
924.525	13575
924.633	13578
924.741	14442
924.849	13293
924.956	13426
925.064	13228
925.172	13190
925.279	13285
925.387	13213
925.494	13255
925.602	13411
925.709	13228
925.816	13187
925.924	13259
926.031	13324
926.138	13175
926.245	13194
926.352	13084
926.459	13244
926.566	13266
926.673	13187
926.779	13038
926.886	13061
926.993	12951
927.099	12894
927.206	12810
927.312	12749
927.419	12886
927.525	12738
927.631	12821
927.737	12673
927.843	12681
927.95	12521
928.056	12642
928.162	12589
928.267	12658
928.373	13152
928.479	12719
928.585	12441
928.69	12574
928.796	12555
928.901	12479
929.007	12323
929.112	12433
929.218	12509
929.323	12426
929.428	12334
929.533	12456
929.638	12334
929.743	12292
929.848	12300
929.953	12209
930.058	12216
930.163	12011
930.267	12072
930.372	12251
930.477	12003
930.581	12235
930.685	12057
930.79	11931
930.894	11999
930.998	11939
931.103	12030
931.207	11680
931.311	11585
931.415	11501
931.519	11349
931.623	11220
