Data from test_V78500241_3052.txt Node
Date: Fri Mar 25 15:31:06 CST 2022
User: usil
Spectrometer: V785-0024
Trigger mode: 0
Integration Time (sec): 4.000000E-1
Scans to average: 1
Nonlinearity correction enabled: false
Boxcar width: 0
Storing dark spectrum: false
XAxis mode: Wavelengths
Number of Pixels in Spectrum: 1024
>>>>>Begin Spectral Data<<<<<
801.071	27184
801.214	27313
801.356	27081
801.499	26948
801.641	26785
801.783	26861
801.926	26731
802.068	26956
802.211	26640
802.353	26678
802.496	26499
802.638	26442
802.78	26488
802.923	26366
803.065	26164
803.208	26362
803.35	26457
803.492	26511
803.635	26571
803.777	26598
803.919	26541
804.061	26826
804.204	26651
804.346	26530
804.488	26355
804.63	26495
804.773	26499
804.915	26518
805.057	26716
805.199	26476
805.341	26488
805.483	26606
805.626	26632
805.768	26530
805.91	26655
806.052	26670
806.194	26571
806.336	26838
806.478	26590
806.62	26537
806.762	26785
806.904	26838
807.046	27135
807.188	27024
807.33	27070
807.472	27233
807.614	27020
807.756	26967
807.898	26868
808.04	26876
808.182	26842
808.324	26872
808.465	27036
808.607	27230
808.749	27123
808.891	27237
809.033	27477
809.174	27359
809.316	27081
809.458	27199
809.6	27096
809.741	27355
809.883	27420
810.025	27530
810.166	27561
810.308	27553
810.45	27416
810.591	27367
810.733	27367
810.875	27249
811.016	27272
811.158	27116
811.299	27367
811.441	27378
811.582	27317
811.724	27233
811.865	27264
812.007	27233
812.148	27252
812.29	27283
812.431	27462
812.573	27644
812.714	27488
812.855	27808
812.997	27911
813.138	27884
813.279	27934
813.421	27762
813.562	27663
813.703	27553
813.845	27310
813.986	27230
814.127	27100
814.268	26994
814.41	26872
814.551	26834
814.692	27081
814.833	26750
814.974	26940
815.115	26940
815.256	26632
815.397	26785
815.539	26781
815.68	26682
815.821	26598
815.962	26659
816.103	26655
816.244	26495
816.385	26453
816.526	26431
816.666	26195
816.807	26183
816.948	26317
817.089	26309
817.23	26176
817.371	26214
817.512	26161
817.653	26119
817.793	26229
817.934	26195
818.075	26237
818.216	26122
818.356	26168
818.497	26031
818.638	25963
818.778	25879
818.919	25761
819.06	26020
819.2	26157
819.341	26161
819.481	26115
819.622	26187
819.762	26370
819.903	26499
820.043	26362
820.184	26259
820.324	26313
820.465	26324
820.605	26221
820.746	26244
820.886	26062
821.026	26183
821.167	26256
821.307	26221
821.447	26252
821.588	26077
821.728	25856
821.868	25788
822.008	25700
822.149	25643
822.289	25639
822.429	25396
822.569	25282
822.709	25251
822.849	25282
822.99	24947
823.13	25179
823.27	25110
823.41	25008
823.55	24890
823.69	25053
823.83	25042
823.97	25015
824.11	24631
824.25	24798
824.389	24810
824.529	24806
824.669	24753
824.809	24871
824.949	24924
825.089	24825
825.228	24837
825.368	24681
825.508	24604
825.648	24574
825.787	24646
825.927	24829
826.067	24677
826.206	24601
826.346	24802
826.485	24753
826.625	24673
826.765	24779
826.904	24669
827.044	24498
827.183	24410
827.323	24433
827.462	24433
827.601	24308
827.741	24475
827.88	24395
828.02	24091
828.159	24209
828.298	24300
828.437	24311
828.577	24300
828.716	24342
828.855	24201
828.994	24072
829.134	23977
829.273	24102
829.412	23992
829.551	23973
829.69	24072
829.829	24106
829.968	24034
830.107	24079
830.246	24030
830.385	24003
830.524	23973
830.663	23859
830.802	23741
830.941	23589
831.08	23581
831.219	23775
831.357	23676
831.496	23790
831.635	23638
831.774	23653
831.913	23623
832.051	23391
832.19	23455
832.329	23353
832.467	23425
832.606	23296
832.744	23368
832.883	23220
833.022	23246
833.16	23322
833.299	23292
833.437	23330
833.576	23531
833.714	23433
833.852	23562
833.991	23391
834.129	23433
834.267	23585
834.406	23284
834.544	23364
834.682	23299
834.821	23322
834.959	23509
835.097	23356
835.235	23490
835.373	23444
835.511	23448
835.65	23231
835.788	23299
835.926	23178
836.064	23075
836.202	23090
836.34	23334
836.478	23353
836.615	23140
836.753	23212
836.891	23345
837.029	23235
837.167	23151
837.305	23162
837.443	23155
837.58	23022
837.718	23181
837.856	23071
837.993	23048
838.131	23121
838.269	22927
838.406	23029
838.544	22869
838.681	22828
838.819	22771
838.956	22630
839.094	22550
839.231	22611
839.369	22782
839.506	23174
839.643	22786
839.781	22603
839.918	22481
840.055	22592
840.193	22603
840.33	22497
840.467	22649
840.604	22535
840.742	22767
840.879	22360
841.016	22386
841.153	22223
841.29	22573
841.427	22611
841.564	22611
841.701	22409
841.838	22466
841.975	22424
842.112	22489
842.249	22280
842.385	22303
842.522	22443
842.659	22421
842.796	22257
842.933	22249
843.069	22135
843.206	22105
843.343	22371
843.479	22242
843.616	22367
843.752	21987
843.889	22040
844.025	22143
844.162	22082
844.298	22055
844.435	22021
844.571	21873
844.708	22093
844.844	22128
844.98	22177
845.117	22074
845.253	21998
845.389	21922
845.525	21766
845.661	21865
845.798	21690
845.934	21835
846.07	21766
846.206	21831
846.342	21812
846.478	21846
846.614	21511
846.75	21549
846.886	21583
847.022	21507
847.158	21530
847.294	21492
847.429	21485
847.565	21397
847.701	21709
847.837	21275
847.972	21135
848.108	21306
848.244	21264
848.379	21154
848.515	21108
848.65	21100
848.786	21058
848.921	21062
849.057	21249
849.192	21245
849.328	21199
849.463	21127
849.598	21096
849.734	21024
849.869	20910
850.004	20857
850.14	20937
850.275	20864
850.41	20781
850.545	20807
850.68	20845
850.815	20937
850.95	20758
851.085	21055
851.22	20960
851.355	20906
851.49	20746
851.625	20853
851.76	20792
851.895	20655
852.03	20910
852.165	20857
852.299	20941
852.434	20918
852.569	20857
852.703	20819
852.838	20952
852.973	21013
853.107	20956
853.242	20731
853.376	20621
853.511	20587
853.645	20640
853.78	20769
853.914	20731
854.048	20667
854.183	20678
854.317	20705
854.451	20876
854.585	20746
854.72	20739
854.854	20693
854.988	20625
855.122	20636
855.256	20568
855.39	20632
855.524	20689
855.658	20712
855.792	20689
855.926	20746
856.06	20606
856.194	20678
856.327	20689
856.461	20492
856.595	20625
856.729	20701
856.862	20724
856.996	20765
857.13	20811
857.263	20807
857.397	20686
857.53	20537
857.664	20708
857.797	20838
857.931	20823
858.064	20781
858.197	20864
858.331	20705
858.464	20651
858.597	20609
858.731	20632
858.864	20564
858.997	20724
859.13	20648
859.263	20811
859.396	20743
859.529	20640
859.662	20625
859.795	20598
859.928	20758
860.061	20743
860.194	20876
860.327	20746
860.46	20640
860.592	20792
860.725	20872
860.858	20750
860.99	20773
861.123	20670
861.256	20625
861.388	20693
861.521	21222
861.653	20526
861.786	20507
861.918	20473
862.05	20564
862.183	20560
862.315	20598
862.447	20629
862.58	20568
862.712	20336
862.844	20438
862.976	20564
863.108	20446
863.24	20815
863.372	20427
863.504	20400
863.636	20381
863.768	20571
863.9	20480
864.032	20317
864.164	20366
864.296	20442
864.428	20480
864.559	20427
864.691	20564
864.823	20488
864.954	20381
865.086	20355
865.217	20225
865.349	20221
865.48	20252
865.612	20256
865.743	20423
865.875	20271
866.006	20240
866.137	20332
866.269	20248
866.4	20252
866.531	20206
866.662	20229
866.793	20202
866.924	20256
867.055	20210
867.186	20301
867.317	20202
867.448	20130
867.579	20145
867.71	20149
867.841	20233
867.972	20305
868.103	20248
868.233	20298
868.364	20134
868.495	20301
868.625	20362
868.756	20503
868.886	20438
869.017	20419
869.147	20473
869.278	20533
869.408	20465
869.539	20446
869.669	20492
869.799	20590
869.929	20560
870.06	20568
870.19	20716
870.32	20648
870.45	20872
870.58	20830
870.71	20948
870.84	21055
870.97	20838
871.1	20845
871.23	21043
871.36	21039
871.489	20944
871.619	21017
871.749	20982
871.879	21096
872.008	21157
872.138	20998
872.267	21055
872.397	20925
872.526	20743
872.656	20826
872.785	20960
872.915	21096
873.044	21077
873.173	21127
873.303	21089
873.432	21211
873.561	21169
873.69	21116
873.819	21032
873.948	21154
874.077	21100
874.206	20952
874.335	21074
874.464	21211
874.593	21275
874.722	21245
874.851	21325
874.979	21389
875.108	21310
875.237	21344
875.365	21256
875.494	21363
875.623	21389
875.751	21222
875.88	21348
876.008	21401
876.136	21572
876.265	21736
876.393	21846
876.521	21747
876.65	21732
876.778	21705
876.906	21720
877.034	21568
877.162	21637
877.29	21663
877.418	21724
877.546	21660
877.674	21625
877.802	21686
877.93	21618
878.058	21751
878.185	21671
878.313	21591
878.441	21622
878.568	21534
878.696	21553
878.824	21766
878.951	21755
879.079	21873
879.206	22025
879.333	21937
879.461	21831
879.588	21816
879.715	21819
879.842	21956
879.97	21644
880.097	21542
880.224	21450
880.351	21481
880.478	21526
880.605	21481
880.732	21420
880.859	21747
880.986	21492
881.112	21515
881.239	21256
881.366	21131
881.493	21142
881.619	21058
881.746	21154
881.872	21119
881.999	21138
882.125	21104
882.252	21154
882.378	20944
882.505	21104
882.631	20895
882.757	20815
882.883	20823
883.01	20792
883.136	20765
883.262	20640
883.388	20724
883.514	20777
883.64	20864
883.766	20689
883.892	20579
884.018	20667
884.143	20754
884.269	20830
884.395	20476
884.52	20381
884.646	20560
884.772	20404
884.897	20366
885.023	20469
885.148	20602
885.274	20659
885.399	20613
885.524	20511
885.65	20613
885.775	20461
885.9	20454
886.025	20541
886.15	20564
886.275	20328
886.4	20305
886.525	20457
886.65	20400
886.775	20332
886.9	20537
887.025	20727
887.149	20313
887.274	20278
887.399	20225
887.523	20195
887.648	20298
887.773	20096
887.897	20210
888.021	20237
888.146	20115
888.27	20229
888.395	20298
888.519	20183
888.643	20263
888.767	20259
888.891	20103
889.015	20092
889.139	20145
889.263	19940
889.387	20134
889.511	20278
889.635	20164
889.759	20122
889.883	19932
890.006	20005
890.13	20103
890.254	19982
890.377	19978
890.501	19879
890.624	19776
890.748	19814
890.871	19772
890.995	19556
891.118	19582
891.241	19586
891.364	19666
891.488	19734
891.611	19632
891.734	19674
891.857	19753
891.98	19693
892.103	19685
892.226	19586
892.349	19563
892.471	19518
892.594	19472
892.717	19578
892.839	19521
892.962	19590
893.085	19670
893.207	19601
893.33	19388
893.452	19419
893.575	19525
893.697	19662
893.819	19685
893.941	19715
894.064	19666
894.186	19480
894.308	19480
894.43	19613
894.552	19582
894.674	19639
894.796	19472
894.918	19552
895.04	19510
895.161	19559
895.283	19575
895.405	19506
895.526	19464
895.648	19510
895.769	19499
895.891	19559
896.012	19567
896.134	19552
896.255	19556
896.376	19491
896.498	19518
896.619	19552
896.74	19571
896.861	19616
896.982	19890
897.103	20001
897.224	19727
897.345	19738
897.466	19742
897.587	19742
897.708	19761
897.828	19746
897.949	19746
898.07	19643
898.19	19624
898.311	19780
898.431	19788
898.552	19712
898.672	19856
898.792	19814
898.913	19734
899.033	19594
899.153	19556
899.273	19544
899.393	19582
899.513	19559
899.633	19529
899.753	19495
899.873	19483
899.993	19586
900.113	19419
900.232	19540
900.352	19381
900.472	19460
900.591	19194
900.711	19430
900.83	19297
900.95	19373
901.069	19422
901.189	19263
901.308	19000
901.427	18894
901.546	18878
901.665	19012
901.784	18928
901.904	18848
902.023	18654
902.141	18494
902.26	18490
902.379	18490
902.498	18426
902.617	18407
902.735	18445
902.854	18445
902.973	18353
903.091	18102
903.21	18125
903.328	17980
903.446	18041
903.565	18026
903.683	17923
903.801	17821
903.919	17893
904.038	17843
904.156	17676
904.274	17710
904.392	17611
904.51	17596
904.627	17748
904.745	17638
904.863	17672
904.981	17520
905.098	17391
905.216	17334
905.334	17330
905.451	17330
905.569	17326
905.686	17448
905.803	17303
905.921	17174
906.038	17254
906.155	17208
906.272	17075
906.389	17052
906.506	16854
906.623	16828
906.74	16889
906.857	16778
906.974	16850
907.091	16949
907.208	17014
907.324	16953
907.441	16729
907.557	16687
907.674	16558
907.79	16558
907.907	16527
908.023	16519
908.139	16672
908.256	16489
908.372	16577
908.488	16538
908.604	16348
908.72	16299
908.836	16299
908.952	16249
909.068	16280
909.184	16466
909.3	16379
909.415	16398
909.531	16352
909.647	16063
909.762	16044
909.878	15960
909.993	16017
910.108	16059
910.224	16090
910.339	15979
910.454	15911
910.57	15835
910.685	15781
910.8	16150
910.915	16029
911.03	15785
911.145	15618
911.259	15652
911.374	15644
911.489	15660
911.604	15542
911.718	15492
911.833	15496
911.947	15405
912.062	15264
912.176	15420
912.291	15477
912.405	15458
912.519	15561
912.633	15526
912.748	15431
912.862	15405
912.976	15294
913.09	15138
913.204	15226
913.318	15272
913.431	15321
913.545	15176
913.659	15363
913.772	15146
913.886	15036
914	14971
914.113	15119
914.226	15127
914.34	15013
914.453	14883
914.566	15017
914.68	14868
914.793	14899
914.906	14689
915.019	14670
915.132	14552
915.245	14530
915.358	14686
915.47	14674
915.583	14613
915.696	14705
915.809	14819
915.921	14788
916.034	14526
916.146	14533
916.259	14499
916.371	14701
916.483	14606
916.595	14549
916.708	14526
916.82	14461
916.932	14362
917.044	14438
917.156	14400
917.268	14256
917.38	14358
917.491	14301
917.603	14290
917.715	14446
917.826	14450
917.938	14240
918.049	14233
918.161	14305
918.272	14366
918.384	14377
918.495	14275
918.606	14081
918.717	14001
918.828	14153
918.939	14012
919.05	14058
919.161	14100
919.272	13906
919.383	13986
919.494	14157
919.604	14286
919.715	14100
919.826	13982
919.936	13986
920.047	14123
920.157	14039
920.267	14237
920.378	14043
920.488	13993
920.598	14180
920.708	14336
920.818	14172
920.928	14168
921.038	14389
921.148	14309
921.258	14126
921.368	13909
921.477	13871
921.587	13761
921.697	13651
921.806	13837
921.916	13670
922.025	13502
922.134	13419
922.244	13441
922.353	13563
922.462	13445
922.571	13358
922.68	13190
922.789	13110
922.898	13099
923.007	13015
923.116	13069
923.224	13122
923.333	13038
923.442	13015
923.55	12852
923.659	12989
923.767	13012
923.876	12840
923.984	12905
924.092	12715
924.201	12951
924.309	12833
924.417	12776
924.525	12760
924.633	12798
924.741	13643
924.849	12601
924.956	12738
925.064	12578
925.172	12445
925.279	12555
925.387	12608
925.494	12536
925.602	12532
925.709	12639
925.816	12509
925.924	12566
926.031	12486
926.138	12452
926.245	12650
926.352	12414
926.459	12521
926.566	12585
926.673	12350
926.779	12319
926.886	12277
926.993	12205
927.099	12140
927.206	12136
927.312	12026
927.419	12194
927.525	12106
927.631	12095
927.737	12007
927.843	11977
927.95	11821
928.056	11980
928.162	12007
928.267	11901
928.373	12604
928.479	12011
928.585	11786
928.69	11931
928.796	11931
928.901	11813
929.007	11752
929.112	11748
929.218	11828
929.323	11790
929.428	11703
929.533	11863
929.638	11615
929.743	11581
929.848	11707
929.953	11703
930.058	11600
930.163	11383
930.267	11379
930.372	11535
930.477	11265
930.581	11543
930.685	11440
930.79	11341
930.894	11330
930.998	11284
931.103	11372
931.207	11041
931.311	10953
931.415	10862
931.519	10664
931.623	10626
