Data from test_V78500241_852.txt Node
Date: Fri Mar 25 15:15:47 CST 2022
User: usil
Spectrometer: V785-0024
Trigger mode: 0
Integration Time (sec): 4.000000E-1
Scans to average: 1
Nonlinearity correction enabled: false
Boxcar width: 0
Storing dark spectrum: false
XAxis mode: Wavelengths
Number of Pixels in Spectrum: 1024
>>>>>Begin Spectral Data<<<<<
801.071	28226
801.214	28150
801.356	27991
801.499	27922
801.641	27713
801.783	27755
801.926	27975
802.068	27682
802.211	27644
802.353	27641
802.496	27587
802.638	27435
802.78	27462
802.923	27389
803.065	27230
803.208	27363
803.35	27450
803.492	27682
803.635	27618
803.777	27450
803.919	27694
804.061	27987
804.204	27667
804.346	27641
804.488	27603
804.63	27572
804.773	27625
804.915	27644
805.057	27717
805.199	27671
805.341	27713
805.483	27736
805.626	27762
805.768	27530
805.91	27838
806.052	27694
806.194	27751
806.336	28010
806.478	27720
806.62	27774
806.762	27888
806.904	28116
807.046	28276
807.188	28181
807.33	28249
807.472	28295
807.614	28074
807.756	28200
807.898	28082
808.04	27949
808.182	28090
808.324	28040
808.465	28192
808.607	28287
808.749	28417
808.891	28462
809.033	28554
809.174	28618
809.316	28443
809.458	28443
809.6	28481
809.741	28656
809.883	28603
810.025	28725
810.166	28755
810.308	28649
810.45	28698
810.591	28694
810.733	28489
810.875	28489
811.016	28390
811.158	28322
811.299	28607
811.441	28626
811.582	28596
811.724	28478
811.865	28303
812.007	28519
812.148	28523
812.29	28603
812.431	28755
812.573	28797
812.714	28862
812.855	29022
812.997	29132
813.138	29246
813.279	29140
813.421	29022
813.562	29098
813.703	28881
813.845	28740
813.986	28485
814.127	28204
814.268	28109
814.41	28204
814.551	28074
814.692	28314
814.833	28219
814.974	28265
815.115	28268
815.256	27975
815.397	28025
815.539	28181
815.68	27842
815.821	27998
815.962	28013
816.103	27907
816.244	27793
816.385	27720
816.526	27667
816.666	27656
816.807	27656
816.948	27629
817.089	27564
817.23	27686
817.371	27603
817.512	27439
817.653	27389
817.793	27424
817.934	27469
818.075	27576
818.216	27572
818.356	27462
818.497	27462
818.638	27184
818.778	27340
818.919	27135
819.06	27367
819.2	27401
819.341	27492
819.481	27538
819.622	27606
819.762	27899
819.903	27766
820.043	27675
820.184	27625
820.324	27663
820.465	27793
820.605	27644
820.746	27538
820.886	27359
821.026	27542
821.167	27572
821.307	27705
821.447	27564
821.588	27348
821.728	27279
821.868	27237
822.008	27028
822.149	26845
822.289	26960
822.429	26663
822.569	26724
822.709	26663
822.849	26495
822.99	26488
823.13	26381
823.27	26533
823.41	26404
823.55	26336
823.69	26343
823.83	26358
823.97	26457
824.11	26172
824.25	25989
824.389	26229
824.529	26294
824.669	26199
824.809	26214
824.949	26073
825.089	26278
825.228	26138
825.368	26008
825.508	26062
825.648	26145
825.787	26130
825.927	26031
826.067	25966
826.206	26024
826.346	26016
826.485	26214
826.625	26043
826.765	26107
826.904	25917
827.044	25788
827.183	25845
827.323	25807
827.462	25765
827.601	25803
827.741	25693
827.88	25807
828.02	25609
828.159	25670
828.298	25894
828.437	25814
828.577	25731
828.716	25734
828.855	25780
828.994	25472
829.134	25407
829.273	25457
829.412	25559
829.551	25202
829.69	25346
829.829	25445
829.968	25514
830.107	25506
830.246	25548
830.385	25479
830.524	25358
830.663	25274
830.802	25099
830.941	25171
831.08	24939
831.219	25114
831.357	25148
831.496	25228
831.635	25023
831.774	24932
831.913	24909
832.051	24909
832.19	24924
832.329	24681
832.467	24730
832.606	24703
832.744	24734
832.883	24700
833.022	24582
833.16	24798
833.299	24875
833.437	24779
833.576	24909
833.714	24795
833.852	24806
833.991	24947
834.129	24962
834.267	24711
834.406	24764
834.544	24856
834.682	24757
834.821	24821
834.959	24951
835.097	24661
835.235	24798
835.373	24700
835.511	24741
835.65	24612
835.788	24612
835.926	24612
836.064	24380
836.202	24429
836.34	24658
836.478	24623
836.615	24616
836.753	24681
836.891	24711
837.029	24715
837.167	24715
837.305	24494
837.443	24464
837.58	24441
837.718	24544
837.856	24448
837.993	24308
838.131	24414
838.269	24308
838.406	24300
838.544	24209
838.681	24068
838.819	24110
838.956	24007
839.094	23878
839.231	23954
839.369	24121
839.506	24426
839.643	24114
839.781	23904
839.918	23840
840.055	23954
840.193	23790
840.33	23813
840.467	23859
840.604	23923
840.742	24018
840.879	23646
841.016	23779
841.153	23745
841.29	23897
841.427	23760
841.564	23798
841.701	23874
841.838	23718
841.975	23646
842.112	23703
842.249	23699
842.385	23535
842.522	23771
842.659	23627
842.796	23581
842.933	23665
843.069	23551
843.206	23459
843.343	23657
843.479	23497
843.616	23547
843.752	23273
843.889	23337
844.025	23478
844.162	23307
844.298	23520
844.435	23376
844.571	23280
844.708	23326
844.844	23402
844.98	23436
845.117	23463
845.253	23239
845.389	23200
845.525	23284
845.661	23204
845.798	23003
845.934	23227
846.07	22984
846.206	23041
846.342	23174
846.478	23067
846.614	22869
846.75	22858
846.886	22782
847.022	22953
847.158	22908
847.294	22801
847.429	22797
847.565	22801
847.701	23121
847.837	22535
847.972	22527
848.108	22611
848.244	22603
848.379	22474
848.515	22478
848.65	22432
848.786	22386
848.921	22352
849.057	22474
849.192	22618
849.328	22436
849.463	22394
849.598	22386
849.734	22238
849.869	22268
850.004	22162
850.14	22249
850.275	22246
850.41	22032
850.545	22074
850.68	22257
850.815	22211
850.95	22219
851.085	22272
851.22	22333
851.355	22204
851.49	22249
851.625	22162
851.76	22067
851.895	22070
852.03	22074
852.165	22131
852.299	22261
852.434	22284
852.569	22185
852.703	22173
852.838	22268
852.973	22238
853.107	22375
853.242	22101
853.376	22029
853.511	21930
853.645	22017
853.78	22074
853.914	22059
854.048	22029
854.183	21987
854.317	22169
854.451	22166
854.585	22040
854.72	21994
854.854	22044
854.988	21846
855.122	22017
855.256	21968
855.39	21903
855.524	21953
855.658	22010
855.792	21934
855.926	21972
856.06	21987
856.194	22090
856.327	21956
856.461	21926
856.595	21907
856.729	21987
856.862	22025
856.996	21930
857.13	21979
857.263	22063
857.397	22036
857.53	21972
857.664	21945
857.797	21915
857.931	22093
858.064	22135
858.197	22032
858.331	21934
858.464	21846
858.597	21823
858.731	21831
858.864	22059
858.997	21983
859.13	22013
859.263	22002
859.396	22032
859.529	21964
859.662	21930
859.795	21987
859.928	22048
860.061	22135
860.194	22105
860.327	22013
860.46	22021
860.592	22120
860.725	22112
860.858	22124
860.99	21964
861.123	21895
861.256	22006
861.388	22048
861.521	22759
861.653	21850
861.786	21880
861.918	21778
862.05	21892
862.183	21937
862.315	22013
862.447	22040
862.58	21876
862.712	21781
862.844	21690
862.976	21778
863.108	21747
863.24	22063
863.372	21610
863.504	21736
863.636	21641
863.768	21686
863.9	21572
864.032	21648
864.164	21576
864.296	21747
864.428	21808
864.559	21713
864.691	21690
864.823	21686
864.954	21580
865.086	21656
865.217	21545
865.349	21435
865.48	21443
865.612	21530
865.743	21667
865.875	21599
866.006	21515
866.137	21622
866.269	21564
866.4	21431
866.531	21428
866.662	21458
866.793	21564
866.924	21424
867.055	21591
867.186	21412
867.317	21538
867.448	21393
867.579	21458
867.71	21431
867.841	21325
867.972	21557
868.103	21500
868.233	21519
868.364	21466
868.495	21591
868.625	21717
868.756	21747
868.886	21663
869.017	21751
869.147	21854
869.278	21949
869.408	21747
869.539	21713
869.669	21781
869.799	21629
869.929	21812
870.06	21922
870.19	22048
870.32	21960
870.45	22101
870.58	22093
870.71	22173
870.84	22291
870.97	22143
871.1	22242
871.23	22253
871.36	22363
871.489	22211
871.619	22234
871.749	22238
871.879	22333
872.008	22443
872.138	22314
872.267	22341
872.397	22090
872.526	22124
872.656	22211
872.785	22074
872.915	22371
873.044	22402
873.173	22291
873.303	22344
873.432	22386
873.561	22287
873.69	22386
873.819	22394
873.948	22443
874.077	22204
874.206	22432
874.335	22356
874.464	22485
874.593	22436
874.722	22424
874.851	22561
874.979	22596
875.108	22489
875.237	22569
875.365	22504
875.494	22466
875.623	22580
875.751	22459
875.88	22485
876.008	22637
876.136	22801
876.265	22949
876.393	23094
876.521	23018
876.65	22999
876.778	22889
876.906	22862
877.034	22866
877.162	22862
877.29	22919
877.418	22938
877.546	22965
877.674	22885
877.802	22778
877.93	22911
878.058	22843
878.185	22774
878.313	22873
878.441	22774
878.568	22736
878.696	22763
878.824	22839
878.951	22965
879.079	23121
879.206	23280
879.333	23048
879.461	23033
879.588	22881
879.715	22961
879.842	23071
879.97	22957
880.097	22778
880.224	22694
880.351	22702
880.478	22755
880.605	22660
880.732	22729
880.859	22987
880.986	22687
881.112	22687
881.239	22432
881.366	22466
881.493	22211
881.619	22215
881.746	22276
881.872	22314
881.999	22291
882.125	22051
882.252	22329
882.378	22211
882.505	22318
882.631	22135
882.757	22021
882.883	22097
883.01	22029
883.136	21926
883.262	21857
883.388	21880
883.514	22082
883.64	21960
883.766	21846
883.892	21637
884.018	21739
884.143	21922
884.269	22070
884.395	21724
884.52	21534
884.646	21671
884.772	21500
884.897	21416
885.023	21686
885.148	21701
885.274	21762
885.399	21751
885.524	21698
885.65	21644
885.775	21534
885.9	21515
886.025	21713
886.15	21629
886.275	21538
886.4	21587
886.525	21496
886.65	21568
886.775	21507
886.9	21682
887.025	21732
887.149	21553
887.274	21382
887.399	21405
887.523	21416
887.648	21332
887.773	21207
887.897	21389
888.021	21412
888.146	21283
888.27	21469
888.395	21435
888.519	21431
888.643	21378
888.767	21431
888.891	21233
889.015	21386
889.139	21230
889.263	21074
889.387	21378
889.511	21389
889.635	21370
889.759	21184
889.883	21058
890.006	21138
890.13	21294
890.254	20967
890.377	21195
890.501	20902
890.624	20906
890.748	20948
890.871	20826
890.995	20773
891.118	20636
891.241	20758
891.364	20743
891.488	20796
891.611	20743
891.734	20830
891.857	20773
891.98	20613
892.103	20758
892.226	20678
892.349	20667
892.471	20469
892.594	20743
892.717	20651
892.839	20587
892.962	20674
893.085	20621
893.207	20571
893.33	20450
893.452	20442
893.575	20613
893.697	20629
893.819	20682
893.941	20944
894.064	20746
894.186	20541
894.308	20476
894.43	20724
894.552	20826
894.674	20785
894.796	20499
894.918	20594
895.04	20495
895.161	20724
895.283	20640
895.405	20469
895.526	20568
895.648	20568
895.769	20636
895.891	20537
896.012	20686
896.134	20781
896.255	20571
896.376	20465
896.498	20484
896.619	20746
896.74	20587
896.861	20575
896.982	20838
897.103	21024
897.224	20937
897.345	20743
897.466	20686
897.587	20807
897.708	20842
897.828	20899
897.949	20613
898.07	20670
898.19	20743
898.311	20887
898.431	20777
898.552	20864
898.672	20811
898.792	20838
898.913	20925
899.033	20785
899.153	20602
899.273	20514
899.393	20590
899.513	20575
899.633	20609
899.753	20598
899.873	20385
899.993	20625
900.113	20511
900.232	20560
900.352	20347
900.472	20286
900.591	20278
900.711	20419
900.83	20252
900.95	20370
901.069	20366
901.189	20202
901.308	20024
901.427	19871
901.546	19864
901.665	19902
901.784	19947
901.904	19750
902.023	19643
902.141	19480
902.26	19518
902.379	19510
902.498	19263
902.617	19274
902.735	19350
902.854	19460
902.973	19358
903.091	19088
903.21	19038
903.328	18996
903.446	18924
903.565	18863
903.683	18829
903.801	18658
903.919	18776
904.038	18859
904.156	18658
904.274	18665
904.392	18623
904.51	18563
904.627	18517
904.745	18692
904.863	18707
904.981	18365
905.098	18418
905.216	18342
905.334	18437
905.451	18357
905.569	18311
905.686	18285
905.803	18315
905.921	18095
906.038	18106
906.155	18068
906.272	17973
906.389	18053
906.506	17779
906.623	17859
906.74	17851
906.857	17649
906.974	17893
907.091	17946
907.208	18007
907.324	17779
907.441	17767
907.557	17668
907.674	17509
907.79	17547
907.907	17482
908.023	17592
908.139	17566
908.256	17516
908.372	17482
908.488	17490
908.604	17349
908.72	17231
908.836	17284
908.952	17261
909.068	17250
909.184	17307
909.3	17334
909.415	17227
909.531	17254
909.647	16987
909.762	17010
909.878	16900
909.993	16987
910.108	17105
910.224	16896
910.339	16889
910.454	16828
910.57	16797
910.685	16717
910.8	16961
910.915	16854
911.03	16816
911.145	16588
911.259	16554
911.374	16599
911.489	16455
911.604	16421
911.718	16299
911.833	16242
911.947	16173
912.062	16055
912.176	16272
912.291	16192
912.405	16276
912.519	16402
912.633	16390
912.748	16341
912.862	16238
912.976	16101
913.09	16017
913.204	16128
913.318	15987
913.431	16116
913.545	16135
913.659	16173
913.772	16162
913.886	15949
914	15873
914.113	15979
914.226	16006
914.34	16010
914.453	15838
914.566	15956
914.68	15698
914.793	15759
914.906	15458
915.019	15523
915.132	15526
915.245	15507
915.358	15431
915.47	15534
915.583	15500
915.696	15580
915.809	15534
915.921	15637
916.034	15416
916.146	15431
916.259	15336
916.371	15439
916.483	15481
916.595	15332
916.708	15348
916.82	15401
916.932	15211
917.044	15272
917.156	15348
917.268	15138
917.38	15268
917.491	15138
917.603	15081
917.715	15222
917.826	15161
917.938	15165
918.049	14902
918.161	15066
918.272	15199
918.384	15222
918.495	15032
918.606	14868
918.717	14880
918.828	14883
918.939	14891
919.05	14804
919.161	14910
919.272	14644
919.383	14693
919.494	14887
919.604	14990
919.715	14868
919.826	14689
919.936	14811
920.047	14880
920.157	14819
920.267	15028
920.378	14823
920.488	14800
920.598	15020
920.708	15119
920.818	14960
920.928	15047
921.038	15070
921.148	15131
921.258	14815
921.368	14781
921.477	14651
921.587	14564
921.697	14442
921.806	14613
921.916	14469
922.025	14313
922.134	14134
922.244	14164
922.353	14248
922.462	14073
922.571	13986
922.68	13803
922.789	13871
922.898	13833
923.007	13750
923.116	13925
923.224	13852
923.333	13734
923.442	13750
923.55	13677
923.659	13651
923.767	13753
923.876	13601
923.984	13731
924.092	13548
924.201	13685
924.309	13605
924.417	13586
924.525	13537
924.633	13533
924.741	14248
924.849	13301
924.956	13506
925.064	13270
925.172	13076
925.279	13266
925.387	13270
925.494	13240
925.602	13339
925.709	13331
925.816	13103
925.924	13194
926.031	13126
926.138	13198
926.245	13209
926.352	13050
926.459	13304
926.566	13320
926.673	13118
926.779	13061
926.886	13023
926.993	12776
927.099	12871
927.206	12749
927.312	12734
927.419	12764
927.525	12848
927.631	12791
927.737	12707
927.843	12578
927.95	12479
928.056	12604
928.162	12681
928.267	12688
928.373	13141
928.479	12753
928.585	12540
928.69	12585
928.796	12566
928.901	12506
929.007	12410
929.112	12486
929.218	12441
929.323	12323
929.428	12285
929.533	12467
929.638	12243
929.743	12232
929.848	12353
929.953	12353
930.058	12167
930.163	12026
930.267	12038
930.372	12095
930.477	11969
930.581	12167
930.685	12022
930.79	11939
930.894	11996
930.998	11916
931.103	12019
931.207	11695
931.311	11566
931.415	11490
931.519	11349
931.623	11227
