Data from test_V78500241_491.txt Node
Date: Fri Mar 25 15:13:16 CST 2022
User: usil
Spectrometer: V785-0024
Trigger mode: 0
Integration Time (sec): 4.000000E-1
Scans to average: 1
Nonlinearity correction enabled: false
Boxcar width: 0
Storing dark spectrum: false
XAxis mode: Wavelengths
Number of Pixels in Spectrum: 1024
>>>>>Begin Spectral Data<<<<<
801.071	27603
801.214	27424
801.356	27256
801.499	27169
801.641	27081
801.783	27001
801.926	27157
802.068	26975
802.211	26830
802.353	26765
802.496	26739
802.638	26800
802.78	26868
802.923	26667
803.065	26609
803.208	26598
803.35	26735
803.492	26667
803.635	26769
803.777	26785
803.919	26906
804.061	27192
804.204	26918
804.346	26944
804.488	26842
804.63	26861
804.773	26663
804.915	26948
805.057	27123
805.199	26834
805.341	26891
805.483	27001
805.626	26906
805.768	26906
805.91	27135
806.052	26921
806.194	26826
806.336	27138
806.478	26986
806.62	26925
806.762	27093
806.904	27279
807.046	27405
807.188	27355
807.33	27412
807.472	27466
807.614	27237
807.756	27397
807.898	27211
808.04	27146
808.182	27199
808.324	27188
808.465	27093
808.607	27386
808.749	27504
808.891	27713
809.033	27751
809.174	27705
809.316	27572
809.458	27603
809.6	27538
809.741	27656
809.883	27591
810.025	27899
810.166	27865
810.308	28017
810.45	27743
810.591	27751
810.733	27675
810.875	27652
811.016	27469
811.158	27492
811.299	27717
811.441	27937
811.582	27816
811.724	27583
811.865	27614
812.007	27644
812.148	27534
812.29	27618
812.431	27766
812.573	27865
812.714	28029
812.855	28032
812.997	28306
813.138	28348
813.279	28261
813.421	28295
813.562	28116
813.703	27922
813.845	27949
813.986	27462
814.127	27382
814.268	27230
814.41	27332
814.551	27283
814.692	27336
814.833	27161
814.974	27188
815.115	27332
815.256	27017
815.397	26998
815.539	27272
815.68	27131
815.821	27104
815.962	27195
816.103	27157
816.244	26952
816.385	26811
816.526	26872
816.666	26727
816.807	26571
816.948	26674
817.089	26804
817.23	26625
817.371	26526
817.512	26625
817.653	26507
817.793	26549
817.934	26663
818.075	26594
818.216	26727
818.356	26575
818.497	26537
818.638	26183
818.778	26423
818.919	26301
819.06	26408
819.2	26434
819.341	26541
819.481	26522
819.622	26796
819.762	27024
819.903	26823
820.043	26765
820.184	26686
820.324	26609
820.465	26804
820.605	26594
820.746	26678
820.886	26537
821.026	26583
821.167	26701
821.307	26678
821.447	26552
821.588	26492
821.728	26423
821.868	26252
822.008	25993
822.149	26122
822.289	26039
822.429	25738
822.569	25791
822.709	25571
822.849	25605
822.99	25575
823.13	25586
823.27	25316
823.41	25445
823.55	25232
823.69	25327
823.83	25384
823.97	25202
824.11	25069
824.25	25091
824.389	25244
824.529	25289
824.669	25217
824.809	25392
824.949	25164
825.089	25270
825.228	25354
825.368	25110
825.508	25027
825.648	25110
825.787	25095
825.927	25076
826.067	25019
826.206	25137
826.346	25091
826.485	24989
826.625	25099
826.765	25065
826.904	25019
827.044	24844
827.183	24791
827.323	24703
827.462	24669
827.601	24852
827.741	24878
827.88	24768
828.02	24661
828.159	24707
828.298	24741
828.437	24795
828.577	24547
828.716	24901
828.855	24681
828.994	24669
829.134	24456
829.273	24369
829.412	24521
829.551	24300
829.69	24486
829.829	24502
829.968	24563
830.107	24517
830.246	24464
830.385	24445
830.524	24403
830.663	24232
830.802	24228
830.941	24106
831.08	23992
831.219	24125
831.357	24178
831.496	24319
831.635	24114
831.774	24034
831.913	23843
832.051	23882
832.19	23840
832.329	23878
832.467	23783
832.606	23745
832.744	23756
832.883	23794
833.022	23722
833.16	23752
833.299	23866
833.437	23779
833.576	23790
833.714	23851
833.852	23931
833.991	23980
834.129	23920
834.267	23923
834.406	23764
834.544	23874
834.682	23847
834.821	23885
834.959	23980
835.097	23790
835.235	23927
835.373	23927
835.511	23771
835.65	23707
835.788	23634
835.926	23547
836.064	23577
836.202	23486
836.34	23790
836.478	23760
836.615	23752
836.753	23531
836.891	23691
837.029	23729
837.167	23665
837.305	23680
837.443	23608
837.58	23551
837.718	23608
837.856	23547
837.993	23531
838.131	23368
838.269	23349
838.406	23273
838.544	23360
838.681	23204
838.819	23170
838.956	22980
839.094	22900
839.231	22961
839.369	23197
839.506	23341
839.643	23250
839.781	22995
839.918	22972
840.055	23098
840.193	23022
840.33	22927
840.467	22904
840.604	22984
840.742	23200
840.879	22850
841.016	22885
841.153	22774
841.29	22991
841.427	22968
841.564	22995
841.701	22877
841.838	22968
841.975	22691
842.112	22828
842.249	22668
842.385	22771
842.522	22858
842.659	22622
842.796	22736
842.933	22816
843.069	22660
843.206	22664
843.343	22786
843.479	22729
843.616	22691
843.752	22371
843.889	22474
844.025	22577
844.162	22519
844.298	22573
844.435	22390
844.571	22447
844.708	22405
844.844	22603
844.98	22493
845.117	22599
845.253	22478
845.389	22306
845.525	22428
845.661	22295
845.798	22162
845.934	22219
846.07	22124
846.206	22211
846.342	22344
846.478	22238
846.614	21975
846.75	21876
846.886	21975
847.022	21964
847.158	22002
847.294	21937
847.429	21960
847.565	21983
847.701	22253
847.837	21800
847.972	21644
848.108	21694
848.244	21785
848.379	21583
848.515	21553
848.65	21572
848.786	21542
848.921	21507
849.057	21720
849.192	21576
849.328	21564
849.463	21473
849.598	21629
849.734	21378
849.869	21477
850.004	21420
850.14	21348
850.275	21306
850.41	21302
850.545	21260
850.68	21226
850.815	21329
850.95	21291
851.085	21439
851.22	21481
851.355	21252
851.49	21188
851.625	21287
851.76	21233
851.895	21233
852.03	21245
852.165	21279
852.299	21370
852.434	21348
852.569	21226
852.703	21260
852.838	21291
852.973	21473
853.107	21321
853.242	21161
853.376	21051
853.511	20975
853.645	21070
853.78	21142
853.914	21138
854.048	21135
854.183	20990
854.317	21169
854.451	21397
854.585	21093
854.72	21051
854.854	21332
854.988	21093
855.122	21211
855.256	20891
855.39	21100
855.524	21051
855.658	21165
855.792	20948
855.926	21058
856.06	21180
856.194	21123
856.327	21032
856.461	21017
856.595	21043
856.729	20998
856.862	21218
856.996	21089
857.13	21093
857.263	21294
857.397	21279
857.53	20975
857.664	21131
857.797	21123
857.931	21176
858.064	21184
858.197	21249
858.331	21150
858.464	21100
858.597	20937
858.731	21142
858.864	21020
858.997	21001
859.13	21108
859.263	21142
859.396	21252
859.529	21131
859.662	21036
859.795	21024
859.928	21020
860.061	21332
860.194	21294
860.327	21074
860.46	21161
860.592	21218
860.725	21256
860.858	21165
860.99	21184
861.123	21017
861.256	21043
861.388	21039
861.521	21846
861.653	21036
861.786	20925
861.918	20845
862.05	20975
862.183	20971
862.315	21047
862.447	21104
862.58	20941
862.712	20880
862.844	20750
862.976	20891
863.108	20921
863.24	21188
863.372	20689
863.504	20762
863.636	20849
863.768	20895
863.9	20674
864.032	20826
864.164	20842
864.296	20811
864.428	20872
864.559	20880
864.691	20845
864.823	20880
864.954	20750
865.086	20853
865.217	20689
865.349	20754
865.48	20773
865.612	20758
865.743	20864
865.875	20743
866.006	20754
866.137	20708
866.269	20708
866.4	20857
866.531	20670
866.662	20663
866.793	20640
866.924	20716
867.055	20667
867.186	20651
867.317	20549
867.448	20636
867.579	20629
867.71	20579
867.841	20552
867.972	20636
868.103	20674
868.233	20674
868.364	20670
868.495	20792
868.625	20982
868.756	20948
868.886	20819
869.017	20902
869.147	20975
869.278	21085
869.408	20960
869.539	20781
869.669	20918
869.799	20960
869.929	20914
870.06	21062
870.19	21252
870.32	21192
870.45	21131
870.58	21249
870.71	21428
870.84	21382
870.97	21275
871.1	21313
871.23	21603
871.36	21557
871.489	21416
871.619	21542
871.749	21462
871.879	21462
872.008	21583
872.138	21428
872.267	21523
872.397	21340
872.526	21233
872.656	21355
872.785	21306
872.915	21428
873.044	21485
873.173	21466
873.303	21549
873.432	21648
873.561	21622
873.69	21580
873.819	21530
873.948	21606
874.077	21504
874.206	21428
874.335	21469
874.464	21504
874.593	21724
874.722	21694
874.851	21682
874.979	21686
875.108	21762
875.237	21667
875.365	21610
875.494	21774
875.623	21686
875.751	21610
875.88	21625
876.008	21876
876.136	21827
876.265	22207
876.393	22246
876.521	22158
876.65	22112
876.778	22101
876.906	22150
877.034	22101
877.162	22124
877.29	22040
877.418	22078
877.546	22002
877.674	22116
877.802	22063
877.93	22013
878.058	21953
878.185	21899
878.313	22135
878.441	22010
878.568	21915
878.696	22162
878.824	22067
878.951	22135
879.079	22192
879.206	22375
879.333	22246
879.461	22162
879.588	22230
879.715	22249
879.842	22455
879.97	22207
880.097	21960
880.224	21884
880.351	21915
880.478	21850
880.605	21949
880.732	21800
880.859	22044
880.986	21915
881.112	22051
881.239	21800
881.366	21644
881.493	21587
881.619	21485
881.746	21405
881.872	21462
881.999	21462
882.125	21447
882.252	21542
882.378	21389
882.505	21610
882.631	21351
882.757	21260
882.883	21389
883.01	21245
883.136	21268
883.262	21009
883.388	21024
883.514	21203
883.64	21260
883.766	21100
883.892	20906
884.018	21032
884.143	21043
884.269	21195
884.395	20937
884.52	20807
884.646	20857
884.772	20769
884.897	20720
885.023	20762
885.148	20864
885.274	21043
885.399	20845
885.524	20845
885.65	20868
885.775	20872
885.9	20773
886.025	21005
886.15	20872
886.275	20826
886.4	20746
886.525	20739
886.65	20830
886.775	20792
886.9	20925
887.025	21032
887.149	20804
887.274	20705
887.399	20575
887.523	20682
887.648	20583
887.773	20446
887.897	20724
888.021	20655
888.146	20438
888.27	20701
888.395	20678
888.519	20632
888.643	20640
888.767	20541
888.891	20434
889.015	20328
889.139	20457
889.263	20355
889.387	20533
889.511	20651
889.635	20545
889.759	20358
889.883	20385
890.006	20320
890.13	20427
890.254	20244
890.377	20191
890.501	20301
890.624	20176
890.748	20176
890.871	20050
890.995	19951
891.118	19940
891.241	19955
891.364	19936
891.488	20096
891.611	19944
891.734	20005
891.857	20035
891.98	20005
892.103	20035
892.226	20039
892.349	19936
892.471	19833
892.594	19963
892.717	19963
892.839	19909
892.962	20001
893.085	19890
893.207	19928
893.33	19765
893.452	19662
893.575	19967
893.697	19898
893.819	19974
893.941	20027
894.064	19890
894.186	19818
894.308	19693
894.43	19967
894.552	20069
894.674	19913
894.796	19666
894.918	19803
895.04	19837
895.161	19944
895.283	19928
895.405	19750
895.526	19909
895.648	19936
895.769	19947
895.891	20005
896.012	19906
896.134	19982
896.255	20008
896.376	19849
896.498	19986
896.619	20012
896.74	19822
896.861	19852
896.982	20134
897.103	20309
897.224	20096
897.345	20054
897.466	20050
897.587	20180
897.708	20240
897.828	20065
897.949	20046
898.07	19978
898.19	20039
898.311	20119
898.431	20043
898.552	19997
898.672	20088
898.792	20248
898.913	20035
899.033	19989
899.153	19940
899.273	19841
899.393	19936
899.513	19913
899.633	19917
899.753	19890
899.873	19887
899.993	19860
900.113	19761
900.232	19852
900.352	19875
900.472	19674
900.591	19616
900.711	19708
900.83	19670
900.95	19708
901.069	19651
901.189	19620
901.308	19308
901.427	19156
901.546	19236
901.665	19346
901.784	19236
901.904	19141
902.023	19000
902.141	18856
902.26	18806
902.379	18848
902.498	18783
902.617	18703
902.735	18814
902.854	18620
902.973	18642
903.091	18445
903.21	18376
903.328	18414
903.446	18376
903.565	18148
903.683	18353
903.801	18110
903.919	18209
904.038	18224
904.156	18117
904.274	17973
904.392	18011
904.51	17931
904.627	17920
904.745	18087
904.863	18057
904.981	17756
905.098	17695
905.216	17684
905.334	17642
905.451	17707
905.569	17638
905.686	17676
905.803	17611
905.921	17379
906.038	17490
906.155	17482
906.272	17353
906.389	17459
906.506	17200
906.623	17322
906.74	17292
906.857	17117
906.974	17235
907.091	17242
907.208	17341
907.324	17143
907.441	17060
907.557	16904
907.674	16961
907.79	16831
907.907	16850
908.023	16999
908.139	17014
908.256	16949
908.372	16706
908.488	16710
908.604	16702
908.72	16744
908.836	16626
908.952	16542
909.068	16664
909.184	16733
909.3	16672
909.415	16634
909.531	16725
909.647	16485
909.762	16352
909.878	16367
909.993	16287
910.108	16303
910.224	16390
910.339	16459
910.454	16223
910.57	16116
910.685	16086
910.8	16318
910.915	16337
911.03	16158
911.145	16063
911.259	16025
911.374	15934
911.489	15835
911.604	15865
911.718	15720
911.833	15660
911.947	15625
912.062	15389
912.176	15675
912.291	15686
912.405	15663
912.519	15827
912.633	15930
912.748	15633
912.862	15755
912.976	15454
913.09	15336
913.204	15386
913.318	15515
913.431	15637
913.545	15538
913.659	15644
913.772	15462
913.886	15348
914	15325
914.113	15294
914.226	15466
914.34	15355
914.453	15119
914.566	15363
914.68	15097
914.793	15260
914.906	15017
915.019	14956
915.132	14857
915.245	14994
915.358	14998
915.47	14872
915.583	14857
915.696	14868
915.809	14994
915.921	15036
916.034	14853
916.146	14815
916.259	14765
916.371	14982
916.483	14899
916.595	14724
916.708	14708
916.82	14819
916.932	14754
917.044	14655
917.156	14701
917.268	14629
917.38	14575
917.491	14606
917.603	14552
917.715	14644
917.826	14686
917.938	14632
918.049	14461
918.161	14579
918.272	14640
918.384	14686
918.495	14526
918.606	14259
918.717	14278
918.828	14408
918.939	14389
919.05	14195
919.161	14267
919.272	14130
919.383	14195
919.494	14347
919.604	14511
919.715	14320
919.826	14278
919.936	14286
920.047	14393
920.157	14301
920.267	14549
920.378	14400
920.488	14278
920.598	14503
920.708	14659
920.818	14495
920.928	14438
921.038	14632
921.148	14590
921.258	14267
921.368	14244
921.477	14126
921.587	14088
921.697	13902
921.806	14012
921.916	13890
922.025	13765
922.134	13772
922.244	13670
922.353	13731
922.462	13552
922.571	13575
922.68	13365
922.789	13266
922.898	13304
923.007	13373
923.116	13415
923.224	13289
923.333	13270
923.442	13308
923.55	13190
923.659	13183
923.767	13202
923.876	13190
923.984	13152
924.092	13042
924.201	13141
924.309	13046
924.417	13080
924.525	13027
924.633	13004
924.741	13913
924.849	12829
924.956	12928
925.064	12776
925.172	12642
925.279	12734
925.387	12798
925.494	12768
925.602	12932
925.709	12802
925.816	12601
925.924	12730
926.031	12817
926.138	12726
926.245	12764
926.352	12601
926.459	12749
926.566	12802
926.673	12593
926.779	12593
926.886	12566
926.993	12391
927.099	12357
927.206	12391
927.312	12304
927.419	12296
927.525	12273
927.631	12346
927.737	12357
927.843	12209
927.95	12117
928.056	12194
928.162	12209
928.267	12315
928.373	12760
928.479	12228
928.585	12019
928.69	12095
928.796	12266
928.901	12060
929.007	11893
929.112	12076
929.218	11950
929.323	11977
929.428	11802
929.533	12045
929.638	11870
929.743	11885
929.848	11809
929.953	11817
930.058	11672
930.163	11649
930.267	11623
930.372	11726
930.477	11604
930.581	11847
930.685	11775
930.79	11482
930.894	11429
930.998	11512
931.103	11554
931.207	11231
931.311	11132
931.415	11128
931.519	10930
931.623	10946
