Data from test_V78500241_1515.txt Node
Date: Fri Mar 25 15:20:24 CST 2022
User: usil
Spectrometer: V785-0024
Trigger mode: 0
Integration Time (sec): 4.000000E-1
Scans to average: 1
Nonlinearity correction enabled: false
Boxcar width: 0
Storing dark spectrum: false
XAxis mode: Wavelengths
Number of Pixels in Spectrum: 1024
>>>>>Begin Spectral Data<<<<<
801.071	28105
801.214	27937
801.356	27720
801.499	27732
801.641	27549
801.783	27606
801.926	27686
802.068	27614
802.211	27526
802.353	27416
802.496	27142
802.638	27165
802.78	27157
802.923	27108
803.065	27009
803.208	27180
803.35	27062
803.492	27405
803.635	27329
803.777	27294
803.919	27340
804.061	27679
804.204	27530
804.346	27348
804.488	27344
804.63	27378
804.773	27256
804.915	27359
805.057	27405
805.199	27336
805.341	27561
805.483	27534
805.626	27519
805.768	27321
805.91	27572
806.052	27641
806.194	27496
806.336	27736
806.478	27553
806.62	27530
806.762	27511
806.904	27846
807.046	27865
807.188	27838
807.33	27869
807.472	28139
807.614	27895
807.756	27949
807.898	27892
808.04	27911
808.182	27652
808.324	27743
808.465	27918
808.607	28063
808.749	28242
808.891	28360
809.033	28363
809.174	28188
809.316	28124
809.458	28059
809.6	28044
809.741	28185
809.883	28348
810.025	28474
810.166	28557
810.308	28421
810.45	28440
810.591	28341
810.733	28112
810.875	28051
811.016	27998
811.158	28029
811.299	28147
811.441	28306
811.582	28417
811.724	27991
811.865	28059
812.007	28090
812.148	28181
812.29	28188
812.431	28398
812.573	28546
812.714	28588
812.855	28630
812.997	28687
813.138	28812
813.279	28850
813.421	28626
813.562	28596
813.703	28626
813.845	28401
813.986	28166
814.127	28055
814.268	27865
814.41	27968
814.551	27869
814.692	27968
814.833	27895
814.974	27759
815.115	27956
815.256	27766
815.397	27709
815.539	27686
815.68	27675
815.821	27675
815.962	27603
816.103	27538
816.244	27523
816.385	27424
816.526	27458
816.666	27245
816.807	27123
816.948	27211
817.089	27230
817.23	27188
817.371	27157
817.512	26994
817.653	27131
817.793	26952
817.934	27119
818.075	27104
818.216	27051
818.356	27055
818.497	27024
818.638	26933
818.778	26880
818.919	26899
819.06	26967
819.2	26963
819.341	27089
819.481	27131
819.622	27306
819.762	27386
819.903	27447
820.043	27466
820.184	27226
820.324	27291
820.465	27389
820.605	27302
820.746	27321
820.886	27089
821.026	27226
821.167	27222
821.307	27207
821.447	27203
821.588	27043
821.728	26971
821.868	26902
822.008	26587
822.149	26640
822.289	26636
822.429	26221
822.569	26332
822.709	26355
822.849	26092
822.99	26096
823.13	26088
823.27	26096
823.41	26012
823.55	25833
823.69	25944
823.83	25906
823.97	26024
824.11	25662
824.25	25693
824.389	25632
824.529	25871
824.669	25670
824.809	25978
824.949	25845
825.089	25822
825.228	25795
825.368	25544
825.508	25449
825.648	25681
825.787	25765
825.927	25727
826.067	25674
826.206	25582
826.346	25594
826.485	25616
826.625	25601
826.765	25712
826.904	25628
827.044	25457
827.183	25327
827.323	25362
827.462	25320
827.601	25460
827.741	25365
827.88	25419
828.02	25263
828.159	25316
828.298	25491
828.437	25316
828.577	25274
828.716	25407
828.855	25274
828.994	24966
829.134	25042
829.273	25263
829.412	24894
829.551	25042
829.69	25065
829.829	25088
829.968	25004
830.107	25164
830.246	25053
830.385	24844
830.524	25038
830.663	24817
830.802	24734
830.941	24669
831.08	24597
831.219	24749
831.357	24684
831.496	24684
831.635	24707
831.774	24593
831.913	24616
832.051	24483
832.19	24490
832.329	24517
832.467	24376
832.606	24254
832.744	24281
832.883	24155
833.022	24266
833.16	24224
833.299	24308
833.437	24388
833.576	24395
833.714	24426
833.852	24460
833.991	24384
834.129	24384
834.267	24525
834.406	24391
834.544	24509
834.682	24311
834.821	24441
834.959	24498
835.097	24262
835.235	24239
835.373	24353
835.511	24380
835.65	24140
835.788	24388
835.926	24045
836.064	23984
836.202	24072
836.34	24114
836.478	24243
836.615	24095
836.753	24136
836.891	24159
837.029	24182
837.167	24262
837.305	24144
837.443	24068
837.58	23908
837.718	24136
837.856	24083
837.993	23908
838.131	24110
838.269	23901
838.406	23969
838.544	23942
838.681	23623
838.819	23543
838.956	23520
839.094	23528
839.231	23440
839.369	23649
839.506	23859
839.643	23756
839.781	23493
839.918	23440
840.055	23520
840.193	23596
840.33	23459
840.467	23463
840.604	23474
840.742	23535
840.879	23235
841.016	23334
841.153	23391
841.29	23528
841.427	23402
841.564	23433
841.701	23497
841.838	23220
841.975	23280
842.112	23269
842.249	23094
842.385	23193
842.522	23330
842.659	23140
842.796	23083
842.933	23216
843.069	23102
843.206	23124
843.343	23258
843.479	23143
843.616	23090
843.752	22862
843.889	22953
844.025	23033
844.162	22911
844.298	23056
844.435	22854
844.571	22938
844.708	23060
844.844	23071
844.98	23193
845.117	22987
845.253	22984
845.389	22790
845.525	22679
845.661	22797
845.798	22763
845.934	22691
846.07	22603
846.206	22615
846.342	22835
846.478	22713
846.614	22440
846.75	22379
846.886	22382
847.022	22413
847.158	22413
847.294	22409
847.429	22542
847.565	22417
847.701	22596
847.837	22051
847.972	22181
848.108	22181
848.244	22192
848.379	22006
848.515	22029
848.65	22021
848.786	21937
848.921	22097
849.057	22120
849.192	22048
849.328	21983
849.463	21960
849.598	22032
849.734	21861
849.869	21717
850.004	21762
850.14	21671
850.275	21842
850.41	21705
850.545	21606
850.68	21637
850.815	21759
850.95	21831
851.085	21903
851.22	21911
851.355	21854
851.49	21762
851.625	21629
851.76	21682
851.895	21663
852.03	21667
852.165	21724
852.299	21663
852.434	21686
852.569	21823
852.703	21732
852.838	21838
852.973	21854
853.107	21838
853.242	21641
853.376	21568
853.511	21450
853.645	21561
853.78	21819
853.914	21698
854.048	21469
854.183	21572
854.317	21625
854.451	21793
854.585	21511
854.72	21519
854.854	21637
854.988	21576
855.122	21458
855.256	21382
855.39	21485
855.524	21694
855.658	21629
855.792	21553
855.926	21564
856.06	21682
856.194	21656
856.327	21572
856.461	21545
856.595	21435
856.729	21466
856.862	21568
856.996	21671
857.13	21690
857.263	21679
857.397	21717
857.53	21564
857.664	21485
857.797	21641
857.931	21641
858.064	21587
858.197	21618
858.331	21595
858.464	21564
858.597	21382
858.731	21572
858.864	21557
858.997	21477
859.13	21519
859.263	21488
859.396	21682
859.529	21462
859.662	21492
859.795	21435
859.928	21439
860.061	21698
860.194	21838
860.327	21652
860.46	21690
860.592	21755
860.725	21918
860.858	21648
860.99	21576
861.123	21466
861.256	21603
861.388	21644
861.521	22238
861.653	21370
861.786	21389
861.918	21473
862.05	21329
862.183	21511
862.315	21492
862.447	21549
862.58	21485
862.712	21405
862.844	21173
862.976	21424
863.108	21351
863.24	21572
863.372	21184
863.504	21241
863.636	21207
863.768	21454
863.9	21272
864.032	21173
864.164	21264
864.296	21260
864.428	21401
864.559	21424
864.691	21374
864.823	21279
864.954	21207
865.086	21272
865.217	21127
865.349	21062
865.48	21176
865.612	21310
865.743	21241
865.875	21157
866.006	21081
866.137	21157
866.269	21093
866.4	21047
866.531	21104
866.662	20994
866.793	21024
866.924	21058
867.055	21264
867.186	21047
867.317	21100
867.448	21055
867.579	21157
867.71	20979
867.841	20971
867.972	21135
868.103	21116
868.233	21093
868.364	21173
868.495	21154
868.625	21138
868.756	21397
868.886	21329
869.017	21287
869.147	21477
869.278	21496
869.408	21325
869.539	21317
869.669	21447
869.799	21264
869.929	21473
870.06	21412
870.19	21591
870.32	21564
870.45	21717
870.58	21652
870.71	21888
870.84	21724
870.97	21686
871.1	21793
871.23	21972
871.36	21899
871.489	21778
871.619	21895
871.749	21953
871.879	22010
872.008	22044
872.138	22010
872.267	21922
872.397	21850
872.526	21739
872.656	21823
872.785	21705
872.915	22044
873.044	21876
873.173	21934
873.303	21983
873.432	22055
873.561	22124
873.69	21937
873.819	21979
873.948	21949
874.077	21949
874.206	21831
874.335	21945
874.464	22097
874.593	22219
874.722	22196
874.851	22158
874.979	22112
875.108	22166
875.237	22230
875.365	22082
875.494	22109
875.623	22177
875.751	22112
875.88	22337
876.008	22147
876.136	22310
876.265	22622
876.393	22694
876.521	22599
876.65	22603
876.778	22535
876.906	22413
877.034	22493
877.162	22440
877.29	22413
877.418	22474
877.546	22421
877.674	22459
877.802	22497
877.93	22489
878.058	22432
878.185	22306
878.313	22432
878.441	22508
878.568	22352
878.696	22557
878.824	22519
878.951	22611
879.079	22535
879.206	22691
879.333	22577
879.461	22428
879.588	22664
879.715	22668
879.842	22733
879.97	22512
880.097	22360
880.224	22413
880.351	22352
880.478	22402
880.605	22360
880.732	22276
880.859	22626
880.986	22329
881.112	22322
881.239	22257
881.366	22105
881.493	21930
881.619	21930
881.746	21892
881.872	21979
881.999	22036
882.125	21747
882.252	21972
882.378	21812
882.505	21911
882.631	21774
882.757	21671
882.883	21625
883.01	21599
883.136	21656
883.262	21405
883.388	21511
883.514	21500
883.64	21641
883.766	21408
883.892	21279
884.018	21340
884.143	21599
884.269	21690
884.395	21336
884.52	21260
884.646	21199
884.772	21199
884.897	21123
885.023	21275
885.148	21325
885.274	21370
885.399	21336
885.524	21150
885.65	21302
885.775	21245
885.9	21203
886.025	21325
886.15	21214
886.275	21214
886.4	21146
886.525	21169
886.65	21211
886.775	21195
886.9	21283
887.025	21538
887.149	21085
887.274	20979
887.399	21013
887.523	21058
887.648	20876
887.773	20872
887.897	21146
888.021	21055
888.146	20998
888.27	21135
888.395	21020
888.519	21032
888.643	21074
888.767	21176
888.891	20971
889.015	20925
889.139	20899
889.263	20823
889.387	20826
889.511	21036
889.635	20849
889.759	20811
889.883	20667
890.006	20785
890.13	20975
890.254	20712
890.377	20743
890.501	20560
890.624	20492
890.748	20556
890.871	20427
890.995	20275
891.118	20351
891.241	20377
891.364	20332
891.488	20583
891.611	20339
891.734	20442
891.857	20492
891.98	20393
892.103	20358
892.226	20301
892.349	20309
892.471	20180
892.594	20233
892.717	20294
892.839	20172
892.962	20259
893.085	20275
893.207	20358
893.33	20130
893.452	20176
893.575	20301
893.697	20172
893.819	20415
893.941	20495
894.064	20309
894.186	20221
894.308	20183
894.43	20301
894.552	20560
894.674	20381
894.796	20199
894.918	20263
895.04	20313
895.161	20301
895.283	20381
895.405	20294
895.526	20358
895.648	20290
895.769	20328
895.891	20381
896.012	20301
896.134	20278
896.255	20263
896.376	20244
896.498	20339
896.619	20218
896.74	20221
896.861	20252
896.982	20583
897.103	20724
897.224	20609
897.345	20438
897.466	20438
897.587	20499
897.708	20552
897.828	20514
897.949	20351
898.07	20256
898.19	20400
898.311	20568
898.431	20377
898.552	20438
898.672	20492
898.792	20457
898.913	20446
899.033	20450
899.153	20324
899.273	20126
899.393	20134
899.513	20161
899.633	20362
899.753	20286
899.873	20092
899.993	20233
900.113	20115
900.232	20210
900.352	20122
900.472	20122
900.591	19974
900.711	20027
900.83	19890
900.95	20134
901.069	20111
901.189	19811
901.308	19723
901.427	19597
901.546	19567
901.665	19563
901.784	19559
901.904	19457
902.023	19324
902.141	19152
902.26	19148
902.379	19213
902.498	19137
902.617	19034
902.735	19175
902.854	19088
902.973	19027
903.091	18745
903.21	18798
903.328	18916
903.446	18700
903.565	18700
903.683	18486
903.801	18437
903.919	18426
904.038	18490
904.156	18353
904.274	18414
904.392	18296
904.51	18273
904.627	18292
904.745	18429
904.863	18399
904.981	18125
905.098	18034
905.216	18019
905.334	18098
905.451	18007
905.569	17885
905.686	18072
905.803	17946
905.921	17786
906.038	18019
906.155	17897
906.272	17676
906.389	17684
906.506	17429
906.623	17638
906.74	17482
906.857	17528
906.974	17356
907.091	17615
907.208	17642
907.324	17547
907.441	17288
907.557	17265
907.674	17242
907.79	17170
907.907	17174
908.023	17273
908.139	17269
908.256	17239
908.372	17216
908.488	17094
908.604	17006
908.72	16984
908.836	17006
908.952	16953
909.068	16961
909.184	17109
909.3	16915
909.415	17010
909.531	16984
909.647	16691
909.762	16759
909.878	16755
909.993	16634
910.108	16580
910.224	16649
910.339	16679
910.454	16462
910.57	16573
910.685	16424
910.8	16531
910.915	16584
911.03	16451
911.145	16162
911.259	16356
911.374	16185
911.489	16135
911.604	16215
911.718	15915
911.833	15975
911.947	15888
912.062	15797
912.176	16006
912.291	15964
912.405	15899
912.519	16204
912.633	16226
912.748	16040
912.862	15991
912.976	15766
913.09	15675
913.204	15842
913.318	15873
913.431	15873
913.545	15945
913.659	15838
913.772	15812
913.886	15705
914	15580
914.113	15709
914.226	15762
914.34	15652
914.453	15523
914.566	15667
914.68	15561
914.793	15401
914.906	15359
915.019	15192
915.132	15165
915.245	15287
915.358	15230
915.47	15230
915.583	15268
915.696	15211
915.809	15321
915.921	15321
916.034	15154
916.146	15062
916.259	15131
916.371	15108
916.483	15180
916.595	15165
916.708	15119
916.82	15104
916.932	14975
917.044	15032
917.156	14975
917.268	14910
917.38	14929
917.491	14891
917.603	14883
917.715	15058
917.826	14963
917.938	14861
918.049	14750
918.161	14811
918.272	14864
918.384	14921
918.495	14792
918.606	14773
918.717	14587
918.828	14518
918.939	14746
919.05	14613
919.161	14659
919.272	14389
919.383	14473
919.494	14689
919.604	14765
919.715	14556
919.826	14522
919.936	14571
920.047	14606
920.157	14556
920.267	14705
920.378	14617
920.488	14454
920.598	14750
920.708	14864
920.818	14712
920.928	14667
921.038	14895
921.148	14914
921.258	14495
921.368	14484
921.477	14278
921.587	14305
921.697	14145
921.806	14332
921.916	14134
922.025	14039
922.134	13963
922.244	13871
922.353	14001
922.462	13883
922.571	13765
922.68	13647
922.789	13636
922.898	13655
923.007	13582
923.116	13590
923.224	13601
923.333	13521
923.442	13476
923.55	13419
923.659	13483
923.767	13540
923.876	13388
923.984	13457
924.092	13308
924.201	13350
924.309	13285
924.417	13289
924.525	13289
924.633	13285
924.741	14027
924.849	13053
924.956	13236
925.064	13034
925.172	12993
925.279	13053
925.387	13038
925.494	13038
925.602	13133
925.709	12993
925.816	12913
925.924	12958
926.031	13027
926.138	12943
926.245	12924
926.352	12825
926.459	12985
926.566	13072
926.673	12932
926.779	12810
926.886	12745
926.993	12677
927.099	12654
927.206	12532
927.312	12456
927.419	12646
927.525	12578
927.631	12642
927.737	12506
927.843	12460
927.95	12281
928.056	12433
928.162	12380
928.267	12486
928.373	13046
928.479	12479
928.585	12197
928.69	12361
928.796	12426
928.901	12228
929.007	12041
929.112	12232
929.218	12197
929.323	12235
929.428	12163
929.533	12353
929.638	12060
929.743	12133
929.848	12057
929.953	12095
930.058	11927
930.163	11866
930.267	11824
930.372	11920
930.477	11733
930.581	11988
930.685	11832
930.79	11722
930.894	11676
930.998	11668
931.103	11756
931.207	11444
931.311	11398
931.415	11239
931.519	11094
931.623	11060
