Data from test_V78500241_3336.txt Node
Date: Fri Mar 25 15:33:05 CST 2022
User: usil
Spectrometer: V785-0024
Trigger mode: 0
Integration Time (sec): 4.000000E-1
Scans to average: 1
Nonlinearity correction enabled: false
Boxcar width: 0
Storing dark spectrum: false
XAxis mode: Wavelengths
Number of Pixels in Spectrum: 1024
>>>>>Begin Spectral Data<<<<<
801.071	27237
801.214	27077
801.356	26975
801.499	26868
801.641	26739
801.783	26868
801.926	26994
802.068	26754
802.211	26686
802.353	26632
802.496	26309
802.638	26473
802.78	26488
802.923	26240
803.065	26275
803.208	26256
803.35	26355
803.492	26503
803.635	26575
803.777	26461
803.919	26461
804.061	26880
804.204	26613
804.346	26602
804.488	26355
804.63	26453
804.773	26476
804.915	26571
805.057	26583
805.199	26564
805.341	26537
805.483	26670
805.626	26644
805.768	26598
805.91	26636
806.052	26781
806.194	26670
806.336	26765
806.478	26705
806.62	26678
806.762	26651
806.904	26819
807.046	27180
807.188	26994
807.33	27039
807.472	27119
807.614	27032
807.756	27131
807.898	26895
808.04	26872
808.182	26963
808.324	26929
808.465	26883
808.607	27104
808.749	27161
808.891	27370
809.033	27355
809.174	27416
809.316	27214
809.458	27169
809.6	27173
809.741	27374
809.883	27435
810.025	27469
810.166	27641
810.308	27576
810.45	27519
810.591	27329
810.733	27321
810.875	27279
811.016	27157
811.158	27222
811.299	27351
811.441	27519
811.582	27397
811.724	27245
811.865	27165
812.007	27184
812.148	27233
812.29	27249
812.431	27458
812.573	27614
812.714	27587
812.855	27690
812.997	27831
813.138	28036
813.279	27918
813.421	27690
813.562	27603
813.703	27618
813.845	27523
813.986	27256
814.127	26929
814.268	26940
814.41	26902
814.551	26925
814.692	26925
814.833	26792
814.974	26895
815.115	26823
815.256	26785
815.397	26655
815.539	26708
815.68	26731
815.821	26507
815.962	26720
816.103	26682
816.244	26438
816.385	26320
816.526	26396
816.666	26214
816.807	26134
816.948	26187
817.089	26408
817.23	26225
817.371	26035
817.512	26088
817.653	26145
817.793	26031
817.934	26138
818.075	26187
818.216	26149
818.356	26111
818.497	25864
818.638	25917
818.778	25890
818.919	25913
819.06	26020
819.2	26149
819.341	26240
819.481	26157
819.622	26286
819.762	26461
819.903	26522
820.043	26225
820.184	26263
820.324	26313
820.465	26263
820.605	26248
820.746	26332
820.886	26027
821.026	26199
821.167	26119
821.307	26244
821.447	26130
821.588	26020
821.728	25940
821.868	25799
822.008	25811
822.149	25510
822.289	25548
822.429	25346
822.569	25285
822.709	25320
822.849	25099
822.99	25107
823.13	25110
823.27	25129
823.41	24966
823.55	24859
823.69	24856
823.83	24970
823.97	24901
824.11	24848
824.25	24741
824.389	24753
824.529	24768
824.669	24806
824.809	24844
824.949	24878
825.089	24795
825.228	24760
825.368	24658
825.508	24593
825.648	24589
825.787	24764
825.927	24749
826.067	24593
826.206	24677
826.346	24719
826.485	24608
826.625	24623
826.765	24810
826.904	24601
827.044	24464
827.183	24483
827.323	24266
827.462	24414
827.601	24407
827.741	24441
827.88	24281
828.02	24102
828.159	24292
828.298	24323
828.437	24391
828.577	24315
828.716	24448
828.855	24319
828.994	24091
829.134	24068
829.273	23961
829.412	23950
829.551	23965
829.69	23980
829.829	24102
829.968	24121
830.107	24133
830.246	24159
830.385	23996
830.524	23958
830.663	23939
830.802	23912
830.941	23729
831.08	23703
831.219	23885
831.357	23889
831.496	23980
831.635	23627
831.774	23676
831.913	23589
832.051	23551
832.19	23425
832.329	23414
832.467	23395
832.606	23299
832.744	23330
832.883	23322
833.022	23292
833.16	23322
833.299	23383
833.437	23421
833.576	23410
833.714	23490
833.852	23406
833.991	23360
834.129	23649
834.267	23410
834.406	23493
834.544	23531
834.682	23372
834.821	23379
834.959	23539
835.097	23356
835.235	23459
835.373	23455
835.511	23421
835.65	23254
835.788	23345
835.926	23174
836.064	23242
836.202	23056
836.34	23284
836.478	23364
836.615	23261
836.753	23311
836.891	23223
837.029	23208
837.167	23307
837.305	23105
837.443	23159
837.58	23064
837.718	23124
837.856	23250
837.993	23128
838.131	23124
838.269	23029
838.406	23052
838.544	23003
838.681	22782
838.819	22725
838.956	22641
839.094	22584
839.231	22584
839.369	22729
839.506	23018
839.643	22881
839.781	22592
839.918	22550
840.055	22596
840.193	22538
840.33	22565
840.467	22573
840.604	22557
840.742	22862
840.879	22402
841.016	22599
841.153	22516
841.29	22618
841.427	22569
841.564	22641
841.701	22523
841.838	22554
841.975	22375
842.112	22402
842.249	22405
842.385	22280
842.522	22489
842.659	22500
842.796	22390
842.933	22295
843.069	22177
843.206	22341
843.343	22371
843.479	22238
843.616	22234
843.752	22093
843.889	22219
844.025	22276
844.162	22036
844.298	22200
844.435	22169
844.571	22063
844.708	22158
844.844	22265
844.98	22238
845.117	22253
845.253	21998
845.389	21915
845.525	21918
845.661	22002
845.798	21930
845.934	22051
846.07	21797
846.206	21766
846.342	21831
846.478	21800
846.614	21675
846.75	21504
846.886	21454
847.022	21660
847.158	21576
847.294	21606
847.429	21591
847.565	21553
847.701	21732
847.837	21306
847.972	21256
848.108	21428
848.244	21428
848.379	21264
848.515	21036
848.65	21192
848.786	21211
848.921	21150
849.057	21332
849.192	21287
849.328	21252
849.463	21184
849.598	21188
849.734	21032
849.869	21001
850.004	20986
850.14	20982
850.275	21066
850.41	20811
850.545	20819
850.68	20876
850.815	20895
850.95	20918
851.085	21138
851.22	20948
851.355	21036
851.49	21013
851.625	20868
851.76	20807
851.895	20861
852.03	20758
852.165	20929
852.299	20979
852.434	20937
852.569	20929
852.703	20876
852.838	21028
852.973	21096
853.107	21032
853.242	20948
853.376	20712
853.511	20697
853.645	20712
853.78	20807
853.914	20811
854.048	20667
854.183	20636
854.317	20758
854.451	20918
854.585	20804
854.72	20750
854.854	20781
854.988	20625
855.122	20754
855.256	20545
855.39	20716
855.524	20720
855.658	20815
855.792	20819
855.926	20754
856.06	20838
856.194	20796
856.327	20765
856.461	20629
856.595	20651
856.729	20686
856.862	20743
856.996	20712
857.13	20887
857.263	20876
857.397	20876
857.53	20659
857.664	20777
857.797	20838
857.931	20773
858.064	20689
858.197	20918
858.331	20800
858.464	20765
858.597	20617
858.731	20655
858.864	20845
858.997	20686
859.13	20731
859.263	20834
859.396	20762
859.529	20720
859.662	20697
859.795	20598
859.928	20754
860.061	20876
860.194	20834
860.327	20883
860.46	20788
860.592	20777
860.725	20773
860.858	20876
860.99	20804
861.123	20632
861.256	20636
861.388	20667
861.521	21435
861.653	20594
861.786	20503
861.918	20625
862.05	20629
862.183	20697
862.315	20765
862.447	20724
862.58	20727
862.712	20461
862.844	20465
862.976	20465
863.108	20514
863.24	20929
863.372	20419
863.504	20457
863.636	20450
863.768	20461
863.9	20408
864.032	20469
864.164	20434
864.296	20514
864.428	20537
864.559	20621
864.691	20621
864.823	20621
864.954	20446
865.086	20511
865.217	20537
865.349	20370
865.48	20400
865.612	20336
865.743	20423
865.875	20404
866.006	20343
866.137	20313
866.269	20320
866.4	20366
866.531	20229
866.662	20362
866.793	20336
866.924	20301
867.055	20343
867.186	20282
867.317	20252
867.448	20298
867.579	20320
867.71	20248
867.841	20275
867.972	20347
868.103	20298
868.233	20358
868.364	20362
868.495	20454
868.625	20568
868.756	20640
868.886	20400
869.017	20533
869.147	20701
869.278	20724
869.408	20480
869.539	20465
869.669	20705
869.799	20617
869.929	20769
870.06	20735
870.19	20872
870.32	20807
870.45	20842
870.58	20975
870.71	21081
870.84	21180
870.97	20948
871.1	20830
871.23	21112
871.36	21146
871.489	21017
871.619	21093
871.749	21123
871.879	21146
872.008	21294
872.138	21161
872.267	21154
872.397	20944
872.526	21013
872.656	20861
872.785	21017
872.915	21138
873.044	21184
873.173	21226
873.303	21287
873.432	21100
873.561	21237
873.69	21203
873.819	21218
873.948	21249
874.077	21203
874.206	20979
874.335	21245
874.464	21329
874.593	21336
874.722	21405
874.851	21496
874.979	21492
875.108	21420
875.237	21348
875.365	21131
875.494	21367
875.623	21526
875.751	21370
875.88	21329
876.008	21458
876.136	21717
876.265	21865
876.393	21979
876.521	21937
876.65	21960
876.778	21884
876.906	21831
877.034	21656
877.162	21770
877.29	21709
877.418	21823
877.546	21637
877.674	21739
877.802	21759
877.93	21774
878.058	21720
878.185	21603
878.313	21736
878.441	21789
878.568	21648
878.696	21633
878.824	21747
878.951	21899
879.079	21937
879.206	22032
879.333	21937
879.461	21770
879.588	21888
879.715	21895
879.842	22006
879.97	21869
880.097	21663
880.224	21580
880.351	21641
880.478	21606
880.605	21694
880.732	21557
880.859	21846
880.986	21618
881.112	21690
881.239	21500
881.366	21264
881.493	21237
881.619	21195
881.746	21260
881.872	21138
881.999	21161
882.125	21112
882.252	21131
882.378	21222
882.505	21370
882.631	20963
882.757	20960
882.883	20899
883.01	21013
883.136	20765
883.262	20743
883.388	20731
883.514	20975
883.64	20910
883.766	20796
883.892	20727
884.018	20617
884.143	20773
884.269	20925
884.395	20579
884.52	20579
884.646	20689
884.772	20587
884.897	20465
885.023	20575
885.148	20644
885.274	20743
885.399	20659
885.524	20667
885.65	20587
885.775	20579
885.9	20590
886.025	20579
886.15	20632
886.275	20408
886.4	20575
886.525	20545
886.65	20461
886.775	20568
886.9	20739
887.025	20648
887.149	20415
887.274	20355
887.399	20320
887.523	20286
887.648	20343
887.773	20237
887.897	20370
888.021	20298
888.146	20252
888.27	20408
888.395	20343
888.519	20347
888.643	20313
888.767	20317
888.891	20191
889.015	20210
889.139	20172
889.263	20183
889.387	20313
889.511	20343
889.635	20328
889.759	20176
889.883	20081
890.006	20149
890.13	20199
890.254	20043
890.377	20088
890.501	19849
890.624	19811
890.748	19967
890.871	19776
890.995	19788
891.118	19708
891.241	19731
891.364	19753
891.488	19833
891.611	19651
891.734	19734
891.857	19898
891.98	19769
892.103	19719
892.226	19731
892.349	19628
892.471	19658
892.594	19567
892.717	19700
892.839	19639
892.962	19693
893.085	19655
893.207	19624
893.33	19487
893.452	19571
893.575	19563
893.697	19795
893.819	19814
893.941	19837
894.064	19814
894.186	19578
894.308	19540
894.43	19601
894.552	19898
894.674	19674
894.796	19582
894.918	19556
895.04	19605
895.161	19696
895.283	19674
895.405	19586
895.526	19597
895.648	19590
895.769	19635
895.891	19723
896.012	19712
896.134	19712
896.255	19712
896.376	19620
896.498	19670
896.619	19712
896.74	19628
896.861	19628
896.982	19917
897.103	20115
897.224	19925
897.345	19879
897.466	19845
897.587	19818
897.708	20126
897.828	19906
897.949	19944
898.07	19685
898.19	19753
898.311	19974
898.431	19856
898.552	19822
898.672	20020
898.792	19944
898.913	19906
899.033	19811
899.153	19681
899.273	19556
899.393	19563
899.513	19700
899.633	19601
899.753	19708
899.873	19518
899.993	19696
900.113	19472
900.232	19635
900.352	19556
900.472	19449
900.591	19247
900.711	19426
900.83	19339
900.95	19457
901.069	19499
901.189	19278
901.308	19023
901.427	18970
901.546	19038
901.665	19084
901.784	18985
901.904	18878
902.023	18768
902.141	18422
902.26	18589
902.379	18635
902.498	18616
902.617	18448
902.735	18551
902.854	18536
902.973	18441
903.091	18228
903.21	18159
903.328	18117
903.446	18026
903.565	17969
903.683	18095
903.801	17965
903.919	17984
904.038	17980
904.156	17885
904.274	17866
904.392	17836
904.51	17703
904.627	17604
904.745	17764
904.863	17927
904.981	17619
905.098	17505
905.216	17349
905.334	17482
905.451	17429
905.569	17391
905.686	17410
905.803	17414
905.921	17185
906.038	17322
906.155	17181
906.272	17113
906.389	17155
906.506	17022
906.623	17037
906.74	16984
906.857	16976
906.974	16904
907.091	17052
907.208	17071
907.324	16976
907.441	16991
907.557	16748
907.674	16710
907.79	16683
907.907	16649
908.023	16698
908.139	16763
908.256	16691
908.372	16634
908.488	16527
908.604	16402
908.72	16432
908.836	16440
908.952	16344
909.068	16428
909.184	16523
909.3	16474
909.415	16573
909.531	16394
909.647	16287
909.762	16147
909.878	16124
909.993	16177
910.108	16059
910.224	16188
910.339	16036
910.454	16002
910.57	15884
910.685	15911
910.8	16223
910.915	16185
911.03	15907
911.145	15827
911.259	15682
911.374	15682
911.489	15660
911.604	15732
911.718	15549
911.833	15500
911.947	15359
912.062	15249
912.176	15507
912.291	15439
912.405	15469
912.519	15633
912.633	15709
912.748	15488
912.862	15469
912.976	15325
913.09	15112
913.204	15279
913.318	15386
913.431	15306
913.545	15454
913.659	15405
913.772	15268
913.886	15199
914	15051
914.113	15214
914.226	15313
914.34	15199
914.453	15081
914.566	15135
914.68	15036
914.793	15009
914.906	14921
915.019	14804
915.132	14712
915.245	14697
915.358	14705
915.47	14708
915.583	14750
915.696	14708
915.809	14788
915.921	14834
916.034	14758
916.146	14575
916.259	14655
916.371	14792
916.483	14727
916.595	14648
916.708	14533
916.82	14621
916.932	14530
917.044	14617
917.156	14480
917.268	14400
917.38	14415
917.491	14431
917.603	14488
917.715	14488
917.826	14495
917.938	14309
918.049	14256
918.161	14309
918.272	14511
918.384	14568
918.495	14362
918.606	14214
918.717	14157
918.828	14214
918.939	14218
919.05	14069
919.161	14164
919.272	13967
919.383	13879
919.494	14267
919.604	14351
919.715	14100
919.826	14027
919.936	14058
920.047	14237
920.157	14218
920.267	14305
920.378	14237
920.488	14100
920.598	14233
920.708	14389
920.818	14278
920.928	14195
921.038	14427
921.148	14377
921.258	14092
921.368	14039
921.477	13887
921.587	13765
921.697	13731
921.806	13875
921.916	13685
922.025	13597
922.134	13506
922.244	13472
922.353	13582
922.462	13369
922.571	13419
922.68	13194
922.789	13133
922.898	13149
923.007	13190
923.116	13217
923.224	13217
923.333	13179
923.442	13034
923.55	13053
923.659	12977
923.767	13107
923.876	12894
923.984	13057
924.092	12928
924.201	12962
924.309	12878
924.417	12958
924.525	12840
924.633	12779
924.741	13689
924.849	12719
924.956	12856
925.064	12662
925.172	12570
925.279	12574
925.387	12608
925.494	12635
925.602	12711
925.709	12696
925.816	12551
925.924	12551
926.031	12684
926.138	12597
926.245	12555
926.352	12528
926.459	12627
926.566	12570
926.673	12509
926.779	12410
926.886	12418
926.993	12300
927.099	12262
927.206	12121
927.312	12091
927.419	12213
927.525	12235
927.631	12247
927.737	12060
927.843	11977
927.95	11889
928.056	11980
928.162	12098
928.267	12117
928.373	12582
928.479	12072
928.585	11950
928.69	11965
928.796	11988
928.901	11885
929.007	11672
929.112	11889
929.218	11843
929.323	11851
929.428	11764
929.533	11901
929.638	11699
929.743	11684
929.848	11748
929.953	11707
930.058	11566
930.163	11421
930.267	11383
930.372	11600
930.477	11387
930.581	11676
930.685	11539
930.79	11337
930.894	11387
930.998	11360
931.103	11448
931.207	11193
931.311	11079
931.415	10968
931.519	10767
931.623	10630
