Data from test_V78500241_2394.txt Node
Date: Fri Mar 25 15:26:31 CST 2022
User: usil
Spectrometer: V785-0024
Trigger mode: 0
Integration Time (sec): 4.000000E-1
Scans to average: 1
Nonlinearity correction enabled: false
Boxcar width: 0
Storing dark spectrum: false
XAxis mode: Wavelengths
Number of Pixels in Spectrum: 1024
>>>>>Begin Spectral Data<<<<<
801.071	27203
801.214	27085
801.356	26891
801.499	26883
801.641	26807
801.783	26727
801.926	26648
802.068	26765
802.211	26689
802.353	26606
802.496	26461
802.638	26389
802.78	26358
802.923	26278
803.065	26252
803.208	26298
803.35	26339
803.492	26457
803.635	26507
803.777	26469
803.919	26609
804.061	27001
804.204	26663
804.346	26590
804.488	26438
804.63	26533
804.773	26366
804.915	26488
805.057	26632
805.199	26476
805.341	26583
805.483	26670
805.626	26571
805.768	26503
805.91	26507
806.052	26648
806.194	26617
806.336	26640
806.478	26613
806.62	26644
806.762	26651
806.904	26925
807.046	27146
807.188	27047
807.33	27108
807.472	27043
807.614	26986
807.756	27032
807.898	26899
808.04	26773
808.182	26785
808.324	26788
808.465	26902
808.607	27062
808.749	27180
808.891	27241
809.033	27412
809.174	27294
809.316	27161
809.458	27165
809.6	27249
809.741	27412
809.883	27355
810.025	27477
810.166	27458
810.308	27439
810.45	27542
810.591	27370
810.733	27180
810.875	27252
811.016	27009
811.158	27001
811.299	27184
811.441	27329
811.582	27260
811.724	27287
811.865	27161
812.007	27093
812.148	27214
812.29	27199
812.431	27355
812.573	27466
812.714	27660
812.855	27656
812.997	27934
813.138	27975
813.279	27671
813.421	27641
813.562	27808
813.703	27580
813.845	27355
813.986	27089
814.127	27047
814.268	26960
814.41	26925
814.551	26929
814.692	26800
814.833	26895
814.974	26918
815.115	26895
815.256	26743
815.397	26857
815.539	26724
815.68	26568
815.821	26625
815.962	26708
816.103	26670
816.244	26587
816.385	26476
816.526	26225
816.666	26096
816.807	26081
816.948	26126
817.089	26305
817.23	26176
817.371	26062
817.512	26157
817.653	26103
817.793	25982
817.934	26130
818.075	26138
818.216	26039
818.356	26024
818.497	25966
818.638	25791
818.778	25799
818.919	25909
819.06	25898
819.2	25978
819.341	26096
819.481	26115
819.622	26202
819.762	26461
819.903	26309
820.043	26377
820.184	26252
820.324	26259
820.465	26237
820.605	26142
820.746	26153
820.886	25993
821.026	26187
821.167	26149
821.307	26275
821.447	26111
821.588	26084
821.728	25906
821.868	25795
822.008	25609
822.149	25681
822.289	25533
822.429	25270
822.569	25244
822.709	25316
822.849	25145
822.99	25133
823.13	25042
823.27	25088
823.41	24962
823.55	24783
823.69	24875
823.83	24909
823.97	24772
824.11	24658
824.25	24722
824.389	24791
824.529	24738
824.669	24654
824.809	24875
824.949	24688
825.089	24738
825.228	24734
825.368	24578
825.508	24597
825.648	24623
825.787	24661
825.927	24688
826.067	24513
826.206	24620
826.346	24540
826.485	24593
826.625	24589
826.765	24646
826.904	24654
827.044	24456
827.183	24380
827.323	24281
827.462	24323
827.601	24228
827.741	24292
827.88	24273
828.02	24213
828.159	24266
828.298	24194
828.437	24308
828.577	24262
828.716	24315
828.855	24186
828.994	24049
829.134	24030
829.273	23996
829.412	24098
829.551	24060
829.69	24018
829.829	24072
829.968	24022
830.107	24053
830.246	23927
830.385	23931
830.524	23977
830.663	23920
830.802	23642
830.941	23604
831.08	23577
831.219	23775
831.357	23653
831.496	23714
831.635	23623
831.774	23376
831.913	23421
832.051	23315
832.19	23440
832.329	23353
832.467	23299
832.606	23231
832.744	23208
832.883	23303
833.022	23273
833.16	23204
833.299	23391
833.437	23379
833.576	23379
833.714	23349
833.852	23315
833.991	23402
834.129	23490
834.267	23383
834.406	23376
834.544	23455
834.682	23349
834.821	23273
834.959	23463
835.097	23258
835.235	23448
835.373	23436
835.511	23208
835.65	23231
835.788	23311
835.926	23098
836.064	23003
836.202	23166
836.34	23200
836.478	23284
836.615	23162
836.753	23155
836.891	23269
837.029	23117
837.167	23185
837.305	23018
837.443	23109
837.58	22953
837.718	23102
837.856	23067
837.993	23136
838.131	23079
838.269	22869
838.406	22908
838.544	22854
838.681	22740
838.819	22660
838.956	22440
839.094	22409
839.231	22546
839.369	22698
839.506	22881
839.643	22793
839.781	22500
839.918	22443
840.055	22462
840.193	22546
840.33	22413
840.467	22481
840.604	22504
840.742	22763
840.879	22409
841.016	22299
841.153	22322
841.29	22497
841.427	22413
841.564	22516
841.701	22432
841.838	22356
841.975	22329
842.112	22413
842.249	22242
842.385	22124
842.522	22462
842.659	22276
842.796	22166
842.933	22147
843.069	22166
843.206	22177
843.343	22261
843.479	22219
843.616	22234
843.752	22002
843.889	21991
844.025	22048
844.162	22029
844.298	21960
844.435	21915
844.571	21880
844.708	22078
844.844	22051
844.98	22032
845.117	22002
845.253	21838
845.389	21804
845.525	21739
845.661	21865
845.798	21656
845.934	21816
846.07	21690
846.206	21633
846.342	21850
846.478	21652
846.614	21519
846.75	21355
846.886	21473
847.022	21534
847.158	21519
847.294	21431
847.429	21496
847.565	21488
847.701	21728
847.837	21340
847.972	21161
848.108	21184
848.244	21252
848.379	21074
848.515	21062
848.65	21055
848.786	21081
848.921	21020
849.057	21051
849.192	21154
849.328	21001
849.463	20986
849.598	20956
849.734	20914
849.869	20811
850.004	20864
850.14	20861
850.275	20853
850.41	20705
850.545	20750
850.68	20773
850.815	20697
850.95	20765
851.085	21055
851.22	20864
851.355	20918
851.49	20872
851.625	20765
851.76	20689
851.895	20636
852.03	20682
852.165	20830
852.299	20826
852.434	20868
852.569	20880
852.703	20807
852.838	20845
852.973	20834
853.107	20918
853.242	20720
853.376	20716
853.511	20552
853.645	20503
853.78	20754
853.914	20705
854.048	20495
854.183	20556
854.317	20632
854.451	20826
854.585	20765
854.72	20651
854.854	20693
854.988	20552
855.122	20746
855.256	20469
855.39	20526
855.524	20712
855.658	20648
855.792	20644
855.926	20659
856.06	20648
856.194	20819
856.327	20655
856.461	20518
856.595	20575
856.729	20537
856.862	20743
856.996	20594
857.13	20701
857.263	20659
857.397	20697
857.53	20629
857.664	20568
857.797	20670
857.931	20682
858.064	20583
858.197	20796
858.331	20636
858.464	20518
858.597	20537
858.731	20526
858.864	20682
858.997	20514
859.13	20648
859.263	20598
859.396	20811
859.529	20621
859.662	20640
859.795	20678
859.928	20598
860.061	20826
860.194	20823
860.327	20708
860.46	20697
860.592	20727
860.725	20800
860.858	20857
860.99	20613
861.123	20522
861.256	20613
861.388	20613
861.521	21104
861.653	20446
861.786	20469
861.918	20492
862.05	20575
862.183	20488
862.315	20526
862.447	20606
862.58	20537
862.712	20355
862.844	20142
862.976	20568
863.108	20381
863.24	20838
863.372	20320
863.504	20301
863.636	20415
863.768	20282
863.9	20400
864.032	20347
864.164	20317
864.296	20328
864.428	20412
864.559	20434
864.691	20396
864.823	20389
864.954	20252
865.086	20259
865.217	20313
865.349	20134
865.48	20248
865.612	20199
865.743	20332
865.875	20275
866.006	20122
866.137	20328
866.269	20229
866.4	20309
866.531	20176
866.662	20183
866.793	20081
866.924	20328
867.055	20244
867.186	20301
867.317	20138
867.448	20176
867.579	20153
867.71	20039
867.841	20161
867.972	20210
868.103	20225
868.233	20351
868.364	20282
868.495	20202
868.625	20381
868.756	20484
868.886	20362
869.017	20370
869.147	20484
869.278	20480
869.408	20427
869.539	20370
869.669	20381
869.799	20590
869.929	20495
870.06	20587
870.19	20910
870.32	20689
870.45	20823
870.58	20819
870.71	20895
870.84	20868
870.97	20842
871.1	20823
871.23	21062
871.36	20994
871.489	20902
871.619	21055
871.749	20994
871.879	20944
872.008	21116
872.138	21096
872.267	21039
872.397	20868
872.526	20929
872.656	20800
872.785	20887
872.915	21062
873.044	21108
873.173	21146
873.303	21131
873.432	21009
873.561	21176
873.69	21131
873.819	21005
873.948	21058
874.077	21077
874.206	20937
874.335	20986
874.464	21085
874.593	21283
874.722	21226
874.851	21207
874.979	21397
875.108	21351
875.237	21283
875.365	21218
875.494	21340
875.623	21230
875.751	21237
875.88	21382
876.008	21447
876.136	21477
876.265	21603
876.393	21823
876.521	21675
876.65	21759
876.778	21728
876.906	21667
877.034	21591
877.162	21656
877.29	21538
877.418	21614
877.546	21622
877.674	21660
877.802	21622
877.93	21629
878.058	21667
878.185	21439
878.313	21663
878.441	21675
878.568	21462
878.696	21583
878.824	21652
878.951	21652
879.079	21831
879.206	21888
879.333	21804
879.461	21720
879.588	21690
879.715	21789
879.842	21888
879.97	21701
880.097	21439
880.224	21469
880.351	21576
880.478	21488
880.605	21462
880.732	21386
880.859	21698
880.986	21416
881.112	21561
881.239	21233
881.366	21294
881.493	21062
881.619	21150
881.746	21100
881.872	21047
881.999	21123
882.125	21009
882.252	21017
882.378	21066
882.505	21146
882.631	20864
882.757	20880
882.883	20849
883.01	20739
883.136	20746
883.262	20712
883.388	20689
883.514	20708
883.64	20689
883.766	20701
883.892	20568
884.018	20571
884.143	20754
884.269	20697
884.395	20423
884.52	20389
884.646	20484
884.772	20343
884.897	20252
885.023	20511
885.148	20431
885.274	20537
885.399	20530
885.524	20438
885.65	20393
885.775	20442
885.9	20393
886.025	20564
886.15	20590
886.275	20385
886.4	20339
886.525	20358
886.65	20332
886.775	20256
886.9	20518
887.025	20568
887.149	20431
887.274	20256
887.399	20103
887.523	20138
887.648	20199
887.773	20020
887.897	20294
888.021	20301
888.146	20225
888.27	20332
888.395	20374
888.519	20138
888.643	20229
888.767	20168
888.891	20081
889.015	20001
889.139	19986
889.263	19951
889.387	20012
889.511	20210
889.635	20149
889.759	19970
889.883	19879
890.006	19997
890.13	19997
890.254	19963
890.377	19970
890.501	19807
890.624	19594
890.748	19704
890.871	19499
890.995	19616
891.118	19449
891.241	19575
891.364	19552
891.488	19696
891.611	19559
891.734	19563
891.857	19620
891.98	19563
892.103	19651
892.226	19537
892.349	19510
892.471	19499
892.594	19518
892.717	19559
892.839	19556
892.962	19487
893.085	19510
893.207	19198
893.33	19468
893.452	19354
893.575	19476
893.697	19449
893.819	19655
893.941	19597
894.064	19620
894.186	19331
894.308	19506
894.43	19571
894.552	19677
894.674	19597
894.796	19396
894.918	19510
895.04	19495
895.161	19563
895.283	19544
895.405	19422
895.526	19377
895.648	19426
895.769	19495
895.891	19582
896.012	19544
896.134	19445
896.255	19491
896.376	19514
896.498	19609
896.619	19556
896.74	19445
896.861	19567
896.982	19795
897.103	19947
897.224	19769
897.345	19795
897.466	19681
897.587	19658
897.708	19868
897.828	19753
897.949	19635
898.07	19483
898.19	19601
898.311	19818
898.431	19788
898.552	19826
898.672	19833
898.792	19772
898.913	19788
899.033	19635
899.153	19468
899.273	19392
899.393	19502
899.513	19567
899.633	19533
899.753	19563
899.873	19457
899.993	19499
900.113	19362
900.232	19483
900.352	19438
900.472	19320
900.591	19285
900.711	19324
900.83	19263
900.95	19521
901.069	19278
901.189	19126
901.308	19019
901.427	18894
901.546	18951
901.665	18806
901.784	18920
901.904	18700
902.023	18631
902.141	18574
902.26	18426
902.379	18509
902.498	18414
902.617	18369
902.735	18426
902.854	18281
902.973	18277
903.091	18163
903.21	18030
903.328	17992
903.446	17954
903.565	18030
903.683	17760
903.801	17859
903.919	17809
904.038	17790
904.156	17668
904.274	17752
904.392	17661
904.51	17611
904.627	17581
904.745	17627
904.863	17722
904.981	17501
905.098	17391
905.216	17254
905.334	17353
905.451	17318
905.569	17261
905.686	17334
905.803	17273
905.921	17166
906.038	17178
906.155	17098
906.272	17037
906.389	17117
906.506	17003
906.623	16927
906.74	16854
906.857	16748
906.974	16858
907.091	16984
907.208	17037
907.324	16828
907.441	16763
907.557	16596
907.674	16626
907.79	16489
907.907	16577
908.023	16561
908.139	16527
908.256	16683
908.372	16554
908.488	16466
908.604	16360
908.72	16226
908.836	16242
908.952	16188
909.068	16325
909.184	16459
909.3	16268
909.415	16322
909.531	16314
909.647	16078
909.762	15964
909.878	15918
909.993	16002
910.108	15983
910.224	15941
910.339	15975
910.454	15869
910.57	15751
910.685	15679
910.8	16021
910.915	16021
911.03	15770
911.145	15656
911.259	15584
911.374	15534
911.489	15523
911.604	15488
911.718	15359
911.833	15264
911.947	15275
912.062	15112
912.176	15321
912.291	15310
912.405	15351
912.519	15511
912.633	15614
912.748	15424
912.862	15401
912.976	15180
913.09	15173
913.204	15116
913.318	15112
913.431	15275
913.545	15207
913.659	15245
913.772	15138
913.886	14998
914	14933
914.113	15043
914.226	15211
914.34	15039
914.453	14868
914.566	15009
914.68	14895
914.793	14823
914.906	14670
915.019	14648
915.132	14678
915.245	14632
915.358	14670
915.47	14731
915.583	14560
915.696	14610
915.809	14670
915.921	14807
916.034	14514
916.146	14571
916.259	14549
916.371	14556
916.483	14644
916.595	14400
916.708	14431
916.82	14461
916.932	14434
917.044	14488
917.156	14351
917.268	14336
917.38	14290
917.491	14237
917.603	14294
917.715	14351
917.826	14408
917.938	14210
918.049	14115
918.161	14240
918.272	14431
918.384	14400
918.495	14157
918.606	14005
918.717	14123
918.828	14065
918.939	14008
919.05	13932
919.161	14050
919.272	13890
919.383	13928
919.494	14100
919.604	14256
919.715	14031
919.826	14008
919.936	14005
920.047	14084
920.157	14103
920.267	14168
920.378	14103
920.488	13970
920.598	14233
920.708	14282
920.818	14168
920.928	14180
921.038	14267
921.148	14240
921.258	13963
921.368	13887
921.477	13837
921.587	13719
921.697	13689
921.806	13753
921.916	13624
922.025	13529
922.134	13438
922.244	13426
922.353	13460
922.462	13324
922.571	13278
922.68	13019
922.789	13129
922.898	13137
923.007	13050
923.116	13076
923.224	12973
923.333	13027
923.442	12840
923.55	12901
923.659	12844
923.767	12939
923.876	12791
923.984	12897
924.092	12814
924.201	12833
924.309	12875
924.417	12779
924.525	12837
924.633	12764
924.741	13620
924.849	12525
924.956	12673
925.064	12540
925.172	12563
925.279	12456
925.387	12566
925.494	12456
925.602	12608
925.709	12532
925.816	12445
925.924	12566
926.031	12490
926.138	12380
926.245	12456
926.352	12395
926.459	12460
926.566	12547
926.673	12369
926.779	12346
926.886	12273
926.993	12098
927.099	12136
927.206	12083
927.312	11988
927.419	12144
927.525	12091
927.631	12213
927.737	12030
927.843	12019
927.95	11863
928.056	11912
928.162	11984
928.267	11901
928.373	12608
928.479	11984
928.585	11790
928.69	11939
928.796	11870
928.901	11760
929.007	11551
929.112	11843
929.218	11828
929.323	11748
929.428	11634
929.533	11790
929.638	11562
929.743	11630
929.848	11688
929.953	11543
930.058	11509
930.163	11402
930.267	11353
930.372	11482
930.477	11299
930.581	11539
930.685	11433
930.79	11197
930.894	11242
930.998	11239
931.103	11391
931.207	11079
931.311	10923
931.415	10854
931.519	10660
931.623	10702
