Data from test_V78500241_863.txt Node
Date: Fri Mar 25 15:15:51 CST 2022
User: usil
Spectrometer: V785-0024
Trigger mode: 0
Integration Time (sec): 4.000000E-1
Scans to average: 1
Nonlinearity correction enabled: false
Boxcar width: 0
Storing dark spectrum: false
XAxis mode: Wavelengths
Number of Pixels in Spectrum: 1024
>>>>>Begin Spectral Data<<<<<
801.071	28348
801.214	28265
801.356	28002
801.499	27998
801.641	27835
801.783	27789
801.926	27926
802.068	27895
802.211	27701
802.353	27603
802.496	27485
802.638	27488
802.78	27496
802.923	27344
803.065	27473
803.208	27405
803.35	27412
803.492	27530
803.635	27701
803.777	27534
803.919	27842
804.061	27922
804.204	27774
804.346	27660
804.488	27458
804.63	27713
804.773	27580
804.915	27515
805.057	27823
805.199	27652
805.341	27728
805.483	27873
805.626	27812
805.768	27686
805.91	27873
806.052	27743
806.194	27679
806.336	28097
806.478	27842
806.62	27934
806.762	28032
806.904	28162
807.046	28280
807.188	28131
807.33	28158
807.472	28348
807.614	28234
807.756	28120
807.898	27987
808.04	28086
808.182	27930
808.324	28124
808.465	28226
808.607	28409
808.749	28386
808.891	28675
809.033	28577
809.174	28584
809.316	28360
809.458	28497
809.6	28436
809.741	28725
809.883	28478
810.025	28885
810.166	28809
810.308	28763
810.45	28744
810.591	28664
810.733	28462
810.875	28618
811.016	28401
811.158	28440
811.299	28691
811.441	28618
811.582	28580
811.724	28508
811.865	28375
812.007	28497
812.148	28512
812.29	28588
812.431	28637
812.573	28854
812.714	28771
812.855	28957
812.997	29212
813.138	29208
813.279	29185
813.421	29010
813.562	29018
813.703	28850
813.845	28752
813.986	28451
814.127	28234
814.268	28200
814.41	28253
814.551	28147
814.692	28367
814.833	28158
814.974	28120
815.115	28303
815.256	28185
815.397	28139
815.539	28036
815.68	28093
815.821	27903
815.962	28021
816.103	28059
816.244	27926
816.385	27808
816.526	27808
816.666	27637
816.807	27545
816.948	27515
817.089	27717
817.23	27591
817.371	27656
817.512	27568
817.653	27450
817.793	27374
817.934	27519
818.075	27523
818.216	27530
818.356	27447
818.497	27329
818.638	27237
818.778	27408
818.919	27386
819.06	27317
819.2	27302
819.341	27553
819.481	27599
819.622	27644
819.762	27854
819.903	27728
820.043	27816
820.184	27686
820.324	27679
820.465	27652
820.605	27675
820.746	27656
820.886	27542
821.026	27599
821.167	27606
821.307	27629
821.447	27485
821.588	27511
821.728	27462
821.868	27188
822.008	26975
822.149	26994
822.289	27047
822.429	26804
822.569	26735
822.709	26701
822.849	26473
822.99	26587
823.13	26385
823.27	26492
823.41	26248
823.55	26244
823.69	26237
823.83	26438
823.97	26278
824.11	26119
824.25	26081
824.389	26180
824.529	26244
824.669	26240
824.809	26199
824.949	26202
825.089	26221
825.228	26278
825.368	26092
825.508	26035
825.648	25982
825.787	26092
825.927	26073
826.067	26092
826.206	25928
826.346	26073
826.485	26088
826.625	26084
826.765	26065
826.904	25989
827.044	26054
827.183	25826
827.323	25780
827.462	26031
827.601	25761
827.741	25811
827.88	25769
828.02	25689
828.159	25807
828.298	25795
828.437	25788
828.577	25757
828.716	25795
828.855	25655
828.994	25556
829.134	25430
829.273	25525
829.412	25518
829.551	25464
829.69	25453
829.829	25544
829.968	25514
830.107	25514
830.246	25445
830.385	25407
830.524	25400
830.663	25411
830.802	25270
830.941	24973
831.08	25091
831.219	25209
831.357	25019
831.496	25327
831.635	25126
831.774	25069
831.913	24856
832.051	24795
832.19	24852
832.329	24738
832.467	24848
832.606	24738
832.744	24669
832.883	24795
833.022	24700
833.16	24681
833.299	24814
833.437	24753
833.576	24810
833.714	24741
833.852	24837
833.991	24768
834.129	24859
834.267	24901
834.406	24897
834.544	24848
834.682	24825
834.821	24604
834.959	24939
835.097	24673
835.235	24772
835.373	24738
835.511	24856
835.65	24650
835.788	24646
835.926	24536
836.064	24528
836.202	24426
836.34	24730
836.478	24703
836.615	24551
836.753	24715
836.891	24684
837.029	24738
837.167	24650
837.305	24483
837.443	24601
837.58	24502
837.718	24445
837.856	24582
837.993	24445
838.131	24452
838.269	24258
838.406	24388
838.544	24228
838.681	24095
838.819	24308
838.956	23942
839.094	23889
839.231	23916
839.369	24117
839.506	24243
839.643	24266
839.781	23980
839.918	23969
840.055	23866
840.193	23935
840.33	23767
840.467	23863
840.604	23935
840.742	24133
840.879	23695
841.016	23901
841.153	23695
841.29	24057
841.427	23847
841.564	23878
841.701	23649
841.838	23821
841.975	23657
842.112	23859
842.249	23604
842.385	23592
842.522	23836
842.659	23596
842.796	23573
842.933	23630
843.069	23600
843.206	23551
843.343	23585
843.479	23573
843.616	23471
843.752	23425
843.889	23547
844.025	23463
844.162	23349
844.298	23509
844.435	23387
844.571	23315
844.708	23482
844.844	23600
844.98	23444
845.117	23524
845.253	23311
845.389	23174
845.525	23296
845.661	23208
845.798	23056
845.934	23204
846.07	22991
846.206	23136
846.342	23200
846.478	23105
846.614	22965
846.75	22763
846.886	22790
847.022	22858
847.158	22854
847.294	22877
847.429	22793
847.565	22736
847.701	23079
847.837	22538
847.972	22577
848.108	22611
848.244	22675
848.379	22375
848.515	22542
848.65	22375
848.786	22516
848.921	22481
849.057	22557
849.192	22554
849.328	22379
849.463	22390
849.598	22360
849.734	22177
849.869	22318
850.004	22238
850.14	22261
850.275	22112
850.41	22158
850.545	22147
850.68	22188
850.815	22207
850.95	22234
851.085	22314
851.22	22344
851.355	22173
851.49	22131
851.625	22162
851.76	22173
851.895	22147
852.03	22143
852.165	22105
852.299	22192
852.434	22291
852.569	22188
852.703	22196
852.838	22204
852.973	22284
853.107	22291
853.242	22166
853.376	22150
853.511	22036
853.645	21949
853.78	21930
853.914	21903
854.048	21934
854.183	21968
854.317	21983
854.451	22211
854.585	22082
854.72	21911
854.854	22017
854.988	21850
855.122	22002
855.256	21789
855.39	21991
855.524	22044
855.658	22101
855.792	22109
855.926	21983
856.06	22010
856.194	22093
856.327	22013
856.461	21922
856.595	21911
856.729	21972
856.862	22082
856.996	22006
857.13	22166
857.263	22105
857.397	22147
857.53	21994
857.664	22044
857.797	22116
857.931	22139
858.064	22017
858.197	22204
858.331	22074
858.464	21968
858.597	21835
858.731	22067
858.864	21911
858.997	21975
859.13	21922
859.263	22078
859.396	22177
859.529	21918
859.662	21930
859.795	21876
859.928	22025
860.061	22048
860.194	22177
860.327	22105
860.46	22055
860.592	22124
860.725	22166
860.858	22169
860.99	22109
861.123	21994
861.256	21941
861.388	22025
861.521	22828
861.653	21835
861.786	21888
861.918	21956
862.05	21880
862.183	21888
862.315	21930
862.447	21888
862.58	21983
862.712	21774
862.844	21701
862.976	21759
863.108	21743
863.24	22021
863.372	21736
863.504	21675
863.636	21660
863.768	21720
863.9	21682
864.032	21641
864.164	21667
864.296	21694
864.428	21831
864.559	21679
864.691	21797
864.823	21739
864.954	21671
865.086	21568
865.217	21614
865.349	21534
865.48	21515
865.612	21488
865.743	21736
865.875	21511
866.006	21526
866.137	21492
866.269	21648
866.4	21618
866.531	21511
866.662	21599
866.793	21492
866.924	21450
867.055	21572
867.186	21591
867.317	21542
867.448	21561
867.579	21382
867.71	21576
867.841	21435
867.972	21515
868.103	21507
868.233	21583
868.364	21545
868.495	21583
868.625	21660
868.756	21816
868.886	21637
869.017	21800
869.147	21899
869.278	21808
869.408	21876
869.539	21720
869.669	21793
869.799	21736
869.929	21793
870.06	21770
870.19	22055
870.32	22010
870.45	22070
870.58	22093
870.71	22253
870.84	22287
870.97	22181
871.1	22253
871.23	22242
871.36	22417
871.489	22093
871.619	22333
871.749	22261
871.879	22284
872.008	22432
872.138	22333
872.267	22333
872.397	22234
872.526	22116
872.656	22082
872.785	22135
872.915	22363
873.044	22306
873.173	22322
873.303	22405
873.432	22356
873.561	22447
873.69	22409
873.819	22436
873.948	22481
874.077	22405
874.206	22200
874.335	22413
874.464	22424
874.593	22599
874.722	22588
874.851	22615
874.979	22596
875.108	22641
875.237	22485
875.365	22478
875.494	22489
875.623	22478
875.751	22531
875.88	22615
876.008	22691
876.136	22717
876.265	22858
876.393	23060
876.521	23003
876.65	23056
876.778	22908
876.906	22930
877.034	22911
877.162	22885
877.29	22797
877.418	22942
877.546	22866
877.674	22980
877.802	22767
877.93	22889
878.058	22854
878.185	22923
878.313	22854
878.441	22854
878.568	22755
878.696	22850
878.824	22946
878.951	22984
879.079	23083
879.206	23208
879.333	23162
879.461	22987
879.588	22957
879.715	23029
879.842	23212
879.97	22915
880.097	22767
880.224	22725
880.351	22778
880.478	22618
880.605	22710
880.732	22710
880.859	22927
880.986	22694
881.112	22710
881.239	22432
881.366	22424
881.493	22413
881.619	22181
881.746	22337
881.872	22356
881.999	22284
882.125	22219
882.252	22306
882.378	22185
882.505	22371
882.631	22116
882.757	21983
882.883	22074
883.01	22032
883.136	22013
883.262	21823
883.388	21785
883.514	22070
883.64	22059
883.766	21884
883.892	21660
884.018	21857
884.143	21964
884.269	21983
884.395	21679
884.52	21675
884.646	21705
884.772	21587
884.897	21481
885.023	21587
885.148	21656
885.274	21675
885.399	21675
885.524	21561
885.65	21739
885.775	21739
885.9	21583
886.025	21587
886.15	21663
886.275	21553
886.4	21443
886.525	21614
886.65	21526
886.775	21606
886.9	21686
887.025	21816
887.149	21504
887.274	21431
887.399	21424
887.523	21405
887.648	21401
887.773	21218
887.897	21530
888.021	21481
888.146	21230
888.27	21488
888.395	21431
888.519	21370
888.643	21401
888.767	21340
888.891	21252
889.015	21096
889.139	21317
889.263	21176
889.387	21264
889.511	21439
889.635	21260
889.759	21028
889.883	21173
890.006	21264
890.13	21279
890.254	21108
890.377	21180
890.501	20826
890.624	20994
890.748	20971
890.871	20731
890.995	20663
891.118	20651
891.241	20716
891.364	20807
891.488	20918
891.611	20796
891.734	20724
891.857	20796
891.98	20800
892.103	20785
892.226	20727
892.349	20655
892.471	20503
892.594	20674
892.717	20769
892.839	20587
892.962	20625
893.085	20682
893.207	20594
893.33	20537
893.452	20587
893.575	20655
893.697	20457
893.819	20895
893.941	20819
894.064	20758
894.186	20549
894.308	20568
894.43	20705
894.552	20746
894.674	20712
894.796	20571
894.918	20575
895.04	20659
895.161	20727
895.283	20758
895.405	20503
895.526	20659
895.648	20530
895.769	20598
895.891	20609
896.012	20758
896.134	20693
896.255	20655
896.376	20609
896.498	20735
896.619	20705
896.74	20564
896.861	20720
896.982	20952
897.103	21161
897.224	20948
897.345	20910
897.466	20731
897.587	20861
897.708	20956
897.828	20807
897.949	20800
898.07	20712
898.19	20754
898.311	20838
898.431	20705
898.552	20819
898.672	20807
898.792	20788
898.913	20914
899.033	20629
899.153	20701
899.273	20583
899.393	20617
899.513	20556
899.633	20507
899.753	20530
899.873	20533
899.993	20545
900.113	20461
900.232	20541
900.352	20514
900.472	20320
900.591	20263
900.711	20309
900.83	20290
900.95	20454
901.069	20412
901.189	20229
901.308	20054
901.427	19951
901.546	19940
901.665	19849
901.784	19944
901.904	19845
902.023	19723
902.141	19472
902.26	19540
902.379	19552
902.498	19434
902.617	19358
902.735	19445
902.854	19396
902.973	19422
903.091	19103
903.21	19095
903.328	19023
903.446	19015
903.565	18916
903.683	18878
903.801	18764
903.919	18817
904.038	18871
904.156	18722
904.274	18631
904.392	18502
904.51	18589
904.627	18665
904.745	18677
904.863	18536
904.981	18483
905.098	18327
905.216	18433
905.334	18304
905.451	18308
905.569	18391
905.686	18391
905.803	18209
905.921	18178
906.038	18319
906.155	18144
906.272	18030
906.389	18003
906.506	17847
906.623	17870
906.74	17798
906.857	17783
906.974	17779
907.091	17874
907.208	17843
907.324	17927
907.441	17790
907.557	17596
907.674	17642
907.79	17528
907.907	17604
908.023	17490
908.139	17657
908.256	17452
908.372	17391
908.488	17547
908.604	17334
908.72	17269
908.836	17311
908.952	17235
909.068	17372
909.184	17337
909.3	17204
909.415	17261
909.531	17250
909.647	17117
909.762	16987
909.878	17018
909.993	16915
910.108	16911
910.224	16873
910.339	16927
910.454	16908
910.57	16862
910.685	16725
910.8	16934
910.915	16847
911.03	16850
911.145	16565
911.259	16649
911.374	16687
911.489	16512
911.604	16474
911.718	16329
911.833	16253
911.947	16112
912.062	16169
912.176	16402
912.291	16272
912.405	16295
912.519	16451
912.633	16394
912.748	16261
912.862	16299
912.976	16143
913.09	15941
913.204	16059
913.318	16090
913.431	16303
913.545	16166
913.659	16181
913.772	16109
913.886	15945
914	15930
914.113	16010
914.226	16010
914.34	16006
914.453	15861
914.566	15979
914.68	15705
914.793	15857
914.906	15584
915.019	15538
915.132	15580
915.245	15462
915.358	15553
915.47	15526
915.583	15466
915.696	15492
915.809	15629
915.921	15633
916.034	15466
916.146	15412
916.259	15351
916.371	15519
916.483	15378
916.595	15420
916.708	15294
916.82	15397
916.932	15332
917.044	15302
917.156	15230
917.268	15070
917.38	15161
917.491	15169
917.603	15218
917.715	15214
917.826	15249
917.938	15081
918.049	15039
918.161	15085
918.272	15165
918.384	15150
918.495	15028
918.606	14986
918.717	14845
918.828	14929
918.939	14952
919.05	14769
919.161	14899
919.272	14629
919.383	14727
919.494	14902
919.604	15081
919.715	14769
919.826	14823
919.936	14750
920.047	14948
920.157	14804
920.267	15028
920.378	14861
920.488	14842
920.598	15051
920.708	15150
920.818	14910
920.928	15005
921.038	15150
921.148	15020
921.258	14830
921.368	14785
921.477	14659
921.587	14583
921.697	14427
921.806	14583
921.916	14480
922.025	14290
922.134	14271
922.244	14290
922.353	14199
922.462	14050
922.571	13986
922.68	14058
922.789	13772
922.898	13913
923.007	13784
923.116	13959
923.224	13822
923.333	13887
923.442	13677
923.55	13590
923.659	13719
923.767	13772
923.876	13567
923.984	13742
924.092	13559
924.201	13552
924.309	13533
924.417	13613
924.525	13483
924.633	13559
924.741	14191
924.849	13293
924.956	13445
925.064	13263
925.172	13190
925.279	13266
925.387	13396
925.494	13335
925.602	13407
925.709	13282
925.816	13168
925.924	13209
926.031	13297
926.138	13152
926.245	13270
926.352	13171
926.459	13225
926.566	13240
926.673	13164
926.779	13080
926.886	12996
926.993	12768
927.099	12856
927.206	12802
927.312	12631
927.419	12787
927.525	12856
927.631	12791
927.737	12722
927.843	12745
927.95	12566
928.056	12601
928.162	12642
928.267	12688
928.373	13168
928.479	12623
928.585	12506
928.69	12555
928.796	12601
928.901	12566
929.007	12330
929.112	12479
929.218	12437
929.323	12391
929.428	12369
929.533	12483
929.638	12228
929.743	12391
929.848	12361
929.953	12273
930.058	12083
930.163	11988
930.267	11999
930.372	12228
930.477	12015
930.581	12235
930.685	12117
930.79	11908
930.894	11942
930.998	11878
931.103	12003
931.207	11623
931.311	11623
931.415	11425
931.519	11273
931.623	11254
