Data from test_V78500241_2556.txt Node
Date: Fri Mar 25 15:27:39 CST 2022
User: usil
Spectrometer: V785-0024
Trigger mode: 0
Integration Time (sec): 4.000000E-1
Scans to average: 1
Nonlinearity correction enabled: false
Boxcar width: 0
Storing dark spectrum: false
XAxis mode: Wavelengths
Number of Pixels in Spectrum: 1024
>>>>>Begin Spectral Data<<<<<
801.071	27321
801.214	27020
801.356	26944
801.499	26804
801.641	26796
801.783	26807
801.926	26963
802.068	26830
802.211	26613
802.353	26552
802.496	26602
802.638	26324
802.78	26427
802.923	26412
803.065	26362
803.208	26301
803.35	26499
803.492	26530
803.635	26575
803.777	26511
803.919	26632
804.061	26838
804.204	26625
804.346	26446
804.488	26526
804.63	26511
804.773	26461
804.915	26579
805.057	26609
805.199	26541
805.341	26541
805.483	26758
805.626	26636
805.768	26583
805.91	26613
806.052	26640
806.194	26655
806.336	26754
806.478	26697
806.62	26743
806.762	26876
806.904	27032
807.046	27241
807.188	27146
807.33	27272
807.472	27188
807.614	26998
807.756	27062
807.898	27024
808.04	26937
808.182	26925
808.324	27005
808.465	27013
808.607	27150
808.749	27313
808.891	27439
809.033	27481
809.174	27378
809.316	27283
809.458	27233
809.6	27336
809.741	27329
809.883	27393
810.025	27450
810.166	27694
810.308	27523
810.45	27462
810.591	27488
810.733	27317
810.875	27291
811.016	27055
811.158	27173
811.299	27389
811.441	27545
811.582	27427
811.724	27306
811.865	27283
812.007	27157
812.148	27218
812.29	27306
812.431	27466
812.573	27610
812.714	27717
812.855	27781
812.997	27945
813.138	28029
813.279	27873
813.421	27778
813.562	27629
813.703	27583
813.845	27477
813.986	27226
814.127	27074
814.268	26952
814.41	26899
814.551	26956
814.692	27192
814.833	26845
814.974	26773
815.115	26967
815.256	26842
815.397	26769
815.539	26693
815.68	26697
815.821	26636
815.962	26689
816.103	26720
816.244	26659
816.385	26415
816.526	26415
816.666	26240
816.807	26081
816.948	26263
817.089	26385
817.23	26153
817.371	26248
817.512	26218
817.653	26191
817.793	26298
817.934	26252
818.075	26218
818.216	26282
818.356	26069
818.497	25944
818.638	25917
818.778	25959
818.919	25989
819.06	25986
819.2	26046
819.341	26168
819.481	26195
819.622	26393
819.762	26400
819.903	26492
820.043	26465
820.184	26313
820.324	26240
820.465	26461
820.605	26275
820.746	26286
820.886	26267
821.026	26252
821.167	26290
821.307	26370
821.447	26180
821.588	26069
821.728	26130
821.868	25780
822.008	25822
822.149	25681
822.289	25719
822.429	25533
822.569	25362
822.709	25293
822.849	25282
822.99	25244
823.13	25114
823.27	25244
823.41	24992
823.55	24894
823.69	24920
823.83	24958
823.97	24852
824.11	24753
824.25	24719
824.389	24821
824.529	24814
824.669	24795
824.809	24947
824.949	24977
825.089	24935
825.228	24852
825.368	24631
825.508	24681
825.648	24631
825.787	24661
825.927	24787
826.067	24730
826.206	24627
826.346	24760
826.485	24768
826.625	24707
826.765	24833
826.904	24791
827.044	24471
827.183	24456
827.323	24407
827.462	24414
827.601	24475
827.741	24471
827.88	24372
828.02	24300
828.159	24365
828.298	24498
828.437	24357
828.577	24422
828.716	24570
828.855	24251
828.994	24167
829.134	24209
829.273	24106
829.412	24129
829.551	24167
829.69	24098
829.829	24182
829.968	24201
830.107	24254
830.246	24171
830.385	24133
830.524	24129
830.663	24026
830.802	23817
830.941	23760
831.08	23767
831.219	23786
831.357	23870
831.496	23958
831.635	23817
831.774	23786
831.913	23790
832.051	23570
832.19	23573
832.329	23653
832.467	23471
832.606	23417
832.744	23429
832.883	23322
833.022	23444
833.16	23372
833.299	23501
833.437	23486
833.576	23429
833.714	23353
833.852	23512
833.991	23726
834.129	23649
834.267	23455
834.406	23478
834.544	23356
834.682	23509
834.821	23516
834.959	23665
835.097	23497
835.235	23551
835.373	23459
835.511	23486
835.65	23273
835.788	23353
835.926	23178
836.064	23159
836.202	23246
836.34	23406
836.478	23379
836.615	23197
836.753	23318
836.891	23414
837.029	23398
837.167	23284
837.305	23269
837.443	23136
837.58	23235
837.718	23208
837.856	23155
837.993	23128
838.131	23121
838.269	23117
838.406	23284
838.544	22999
838.681	22949
838.819	22835
838.956	22786
839.094	22729
839.231	22771
839.369	22904
839.506	23075
839.643	22934
839.781	22713
839.918	22611
840.055	22542
840.193	22809
840.33	22630
840.467	22508
840.604	22713
840.742	22938
840.879	22421
841.016	22443
841.153	22656
841.29	22740
841.427	22645
841.564	22592
841.701	22622
841.838	22603
841.975	22481
842.112	22573
842.249	22466
842.385	22356
842.522	22622
842.659	22455
842.796	22455
842.933	22417
843.069	22284
843.206	22295
843.343	22489
843.479	22459
843.616	22310
843.752	22169
843.889	22192
844.025	22246
844.162	22177
844.298	22242
844.435	22188
844.571	22211
844.708	22173
844.844	22344
844.98	22246
845.117	22177
845.253	22101
845.389	22067
845.525	21975
845.661	21975
845.798	21861
845.934	21918
846.07	21903
846.206	21983
846.342	22006
846.478	21907
846.614	21633
846.75	21633
846.886	21545
847.022	21652
847.158	21629
847.294	21709
847.429	21637
847.565	21694
847.701	21956
847.837	21336
847.972	21416
848.108	21332
848.244	21431
848.379	21230
848.515	21165
848.65	21252
848.786	21207
848.921	21207
849.057	21298
849.192	21237
849.328	21218
849.463	21112
849.598	21184
849.734	21245
849.869	21150
850.004	21032
850.14	20963
850.275	21009
850.41	20975
850.545	21005
850.68	20956
850.815	20994
850.95	20918
851.085	21180
851.22	21112
851.355	21001
851.49	20785
851.625	20956
851.76	20937
851.895	20811
852.03	20979
852.165	20944
852.299	21116
852.434	21039
852.569	21100
852.703	20883
852.838	21024
852.973	21241
853.107	21127
853.242	21043
853.376	20883
853.511	20549
853.645	20727
853.78	20834
853.914	20883
854.048	20663
854.183	20746
854.317	20807
854.451	20986
854.585	20815
854.72	20724
854.854	20918
854.988	20674
855.122	20948
855.256	20678
855.39	20815
855.524	20834
855.658	20765
855.792	20861
855.926	20819
856.06	20804
856.194	20990
856.327	20796
856.461	20781
856.595	20777
856.729	20823
856.862	20975
856.996	20971
857.13	20948
857.263	20921
857.397	20914
857.53	20788
857.664	20868
857.797	20925
857.931	20834
858.064	20807
858.197	20785
858.331	20739
858.464	20788
858.597	20708
858.731	20830
858.864	20765
858.997	20754
859.13	20838
859.263	20781
859.396	20868
859.529	20838
859.662	20667
859.795	20819
859.928	20864
860.061	21017
860.194	20918
860.327	20933
860.46	20800
860.592	20971
860.725	20914
860.858	20857
860.99	20765
861.123	20743
861.256	20811
861.388	20735
861.521	21405
861.653	20655
861.786	20590
861.918	20621
862.05	20773
862.183	20804
862.315	20682
862.447	20720
862.58	20773
862.712	20495
862.844	20450
862.976	20651
863.108	20609
863.24	20990
863.372	20545
863.504	20473
863.636	20442
863.768	20594
863.9	20541
864.032	20454
864.164	20495
864.296	20663
864.428	20571
864.559	20663
864.691	20621
864.823	20549
864.954	20514
865.086	20465
865.217	20484
865.349	20370
865.48	20423
865.612	20393
865.743	20579
865.875	20514
866.006	20396
866.137	20290
866.269	20381
866.4	20374
866.531	20358
866.662	20358
866.793	20339
866.924	20366
867.055	20465
867.186	20355
867.317	20347
867.448	20278
867.579	20275
867.71	20343
867.841	20237
867.972	20244
868.103	20343
868.233	20484
868.364	20389
868.495	20381
868.625	20568
868.756	20819
868.886	20476
869.017	20549
869.147	20750
869.278	20716
869.408	20579
869.539	20674
869.669	20731
869.799	20708
869.929	20670
870.06	20750
870.19	20819
870.32	20975
870.45	20982
870.58	21009
870.71	21241
870.84	21036
870.97	20998
871.1	21058
871.23	21119
871.36	21192
871.489	21096
871.619	21108
871.749	21291
871.879	21119
872.008	21298
872.138	21249
872.267	21287
872.397	20975
872.526	21024
872.656	21116
872.785	21135
872.915	21195
873.044	21188
873.173	21226
873.303	21252
873.432	21241
873.561	21412
873.69	21325
873.819	21154
873.948	21275
874.077	21317
874.206	21226
874.335	21218
874.464	21443
874.593	21538
874.722	21458
874.851	21466
874.979	21367
875.108	21439
875.237	21473
875.365	21260
875.494	21367
875.623	21507
875.751	21397
875.88	21542
876.008	21629
876.136	21637
876.265	21934
876.393	22090
876.521	21972
876.65	21926
876.778	21922
876.906	21835
877.034	21766
877.162	21911
877.29	21766
877.418	21827
877.546	21968
877.674	21861
877.802	21690
877.93	21671
878.058	21800
878.185	21766
878.313	21736
878.441	21804
878.568	21812
878.696	21709
878.824	21873
878.951	22021
879.079	21956
879.206	22051
879.333	22010
879.461	21876
879.588	21937
879.715	22021
879.842	22059
879.97	21941
880.097	21671
880.224	21713
880.351	21648
880.478	21724
880.605	21576
880.732	21591
880.859	21880
880.986	21625
881.112	21774
881.239	21553
881.366	21401
881.493	21325
881.619	21275
881.746	21351
881.872	21294
881.999	21283
882.125	21093
882.252	21195
882.378	21150
882.505	21317
882.631	21146
882.757	20826
882.883	20979
883.01	20921
883.136	20971
883.262	20910
883.388	20750
883.514	20868
883.64	20895
883.766	20849
883.892	20705
884.018	20640
884.143	20792
884.269	21001
884.395	20613
884.52	20507
884.646	20613
884.772	20613
884.897	20514
885.023	20556
885.148	20613
885.274	20834
885.399	20731
885.524	20594
885.65	20530
885.775	20659
885.9	20697
886.025	20663
886.15	20632
886.275	20587
886.4	20431
886.525	20632
886.65	20465
886.775	20511
886.9	20667
887.025	20701
887.149	20583
887.274	20438
887.399	20332
887.523	20309
887.648	20366
887.773	20336
887.897	20434
888.021	20526
888.146	20412
888.27	20446
888.395	20438
888.519	20442
888.643	20328
888.767	20446
888.891	20294
889.015	20088
889.139	20332
889.263	20111
889.387	20355
889.511	20408
889.635	20248
889.759	20172
889.883	20210
890.006	20092
890.13	20240
890.254	20172
890.377	20084
890.501	19974
890.624	19944
890.748	19989
890.871	19772
890.995	19681
891.118	19712
891.241	19734
891.364	19734
891.488	19894
891.611	19727
891.734	19727
891.857	19799
891.98	19769
892.103	19719
892.226	19719
892.349	19746
892.471	19438
892.594	19681
892.717	19734
892.839	19590
892.962	19696
893.085	19655
893.207	19674
893.33	19514
893.452	19597
893.575	19677
893.697	19529
893.819	19791
893.941	19864
894.064	19788
894.186	19556
894.308	19620
894.43	19719
894.552	19795
894.674	19731
894.796	19647
894.918	19655
895.04	19613
895.161	19658
895.283	19655
895.405	19567
895.526	19734
895.648	19616
895.769	19780
895.891	19681
896.012	19696
896.134	19662
896.255	19582
896.376	19750
896.498	19586
896.619	19693
896.74	19586
896.861	19647
896.982	19856
897.103	20084
897.224	20008
897.345	19738
897.466	19715
897.587	19849
897.708	20031
897.828	19917
897.949	19799
898.07	19620
898.19	19769
898.311	20008
898.431	19772
898.552	19898
898.672	19967
898.792	19936
898.913	19887
899.033	19723
899.153	19837
899.273	19662
899.393	19559
899.513	19799
899.633	19616
899.753	19670
899.873	19605
899.993	19651
900.113	19533
900.232	19590
900.352	19533
900.472	19346
900.591	19449
900.711	19407
900.83	19301
900.95	19415
901.069	19438
901.189	19384
901.308	19107
901.427	18928
901.546	18993
901.665	18973
901.784	19065
901.904	18913
902.023	18817
902.141	18566
902.26	18471
902.379	18696
902.498	18551
902.617	18448
902.735	18490
902.854	18547
902.973	18448
903.091	18171
903.21	18247
903.328	18197
903.446	18079
903.565	17999
903.683	18121
903.801	17961
903.919	17946
904.038	17996
904.156	17882
904.274	17832
904.392	17752
904.51	17718
904.627	17722
904.745	17756
904.863	17855
904.981	17497
905.098	17478
905.216	17512
905.334	17562
905.451	17490
905.569	17467
905.686	17414
905.803	17421
905.921	17121
906.038	17383
906.155	17242
906.272	17136
906.389	17197
906.506	17033
906.623	16968
906.74	17006
906.857	16949
906.974	16839
907.091	17018
907.208	17025
907.324	17075
907.441	16946
907.557	16881
907.674	16698
907.79	16649
907.907	16675
908.023	16869
908.139	16694
908.256	16729
908.372	16634
908.488	16584
908.604	16618
908.72	16440
908.836	16382
908.952	16402
909.068	16451
909.184	16558
909.3	16500
909.415	16462
909.531	16478
909.647	16173
909.762	16215
909.878	16112
909.993	16154
910.108	16177
910.224	16139
910.339	16051
910.454	16063
910.57	15926
910.685	15968
910.8	16139
910.915	15979
911.03	15926
911.145	15781
911.259	15789
911.374	15808
911.489	15705
911.604	15618
911.718	15542
911.833	15553
911.947	15386
912.062	15393
912.176	15523
912.291	15667
912.405	15610
912.519	15694
912.633	15717
912.748	15515
912.862	15511
912.976	15492
913.09	15294
913.204	15298
913.318	15412
913.431	15504
913.545	15359
913.659	15435
913.772	15344
913.886	15119
914	15138
914.113	15241
914.226	15249
914.34	15176
914.453	15066
914.566	15188
914.68	14979
914.793	14967
914.906	14887
915.019	14811
915.132	14826
915.245	14663
915.358	14754
915.47	14762
915.583	14811
915.696	14796
915.809	14899
915.921	14838
916.034	14659
916.146	14632
916.259	14579
916.371	14712
916.483	14788
916.595	14571
916.708	14533
916.82	14571
916.932	14571
917.044	14594
917.156	14530
917.268	14415
917.38	14442
917.491	14377
917.603	14385
917.715	14552
917.826	14526
917.938	14301
918.049	14275
918.161	14305
918.272	14484
918.384	14450
918.495	14351
918.606	14123
918.717	14126
918.828	14096
918.939	14256
919.05	14016
919.161	14100
919.272	13841
919.383	14027
919.494	14187
919.604	14343
919.715	14138
919.826	14031
919.936	14153
920.047	14221
920.157	14103
920.267	14370
920.378	14172
920.488	14088
920.598	14298
920.708	14377
920.818	14206
920.928	14286
921.038	14503
921.148	14339
921.258	14107
921.368	14035
921.477	13883
921.587	13909
921.697	13791
921.806	13830
921.916	13761
922.025	13468
922.134	13563
922.244	13632
922.353	13662
922.462	13426
922.571	13369
922.68	13278
922.789	13236
922.898	13225
923.007	13088
923.116	13213
923.224	13179
923.333	13076
923.442	12996
923.55	13034
923.659	13065
923.767	13091
923.876	12924
923.984	13031
924.092	12897
924.201	13023
924.309	12958
924.417	12882
924.525	12905
924.633	12848
924.741	13818
924.849	12681
924.956	12856
925.064	12662
925.172	12589
925.279	12620
925.387	12604
925.494	12673
925.602	12798
925.709	12738
925.816	12559
925.924	12563
926.031	12662
926.138	12620
926.245	12547
926.352	12486
926.459	12585
926.566	12711
926.673	12483
926.779	12399
926.886	12418
926.993	12209
927.099	12186
927.206	12186
927.312	12110
927.419	12205
927.525	12171
927.631	12155
927.737	12133
927.843	12022
927.95	11817
928.056	12079
928.162	11984
928.267	12098
928.373	12654
928.479	12114
928.585	11866
928.69	12007
928.796	11977
928.901	11847
929.007	11813
929.112	11855
929.218	11832
929.323	11828
929.428	11756
929.533	11840
929.638	11668
929.743	11756
929.848	11722
929.953	11741
930.058	11543
930.163	11463
930.267	11421
930.372	11547
930.477	11322
930.581	11585
930.685	11471
930.79	11341
930.894	11414
930.998	11311
931.103	11528
931.207	11052
931.311	11037
931.415	10953
931.519	10683
931.623	10733
