Data from test_V78500241_1925.txt Node
Date: Fri Mar 25 15:23:15 CST 2022
User: usil
Spectrometer: V785-0024
Trigger mode: 0
Integration Time (sec): 4.000000E-1
Scans to average: 1
Nonlinearity correction enabled: false
Boxcar width: 0
Storing dark spectrum: false
XAxis mode: Wavelengths
Number of Pixels in Spectrum: 1024
>>>>>Begin Spectral Data<<<<<
801.071	27831
801.214	27667
801.356	27587
801.499	27431
801.641	27382
801.783	27222
801.926	27477
802.068	27450
802.211	27249
802.353	27260
802.496	27062
802.638	26971
802.78	26994
802.923	26830
803.065	26727
803.208	26864
803.35	26842
803.492	26998
803.635	27192
803.777	27017
803.919	27180
804.061	27382
804.204	27256
804.346	27085
804.488	27020
804.63	27188
804.773	27001
804.915	27150
805.057	27207
805.199	27302
805.341	27332
805.483	27245
805.626	27321
805.768	27165
805.91	27230
806.052	27310
806.194	27211
806.336	27458
806.478	27222
806.62	27336
806.762	27340
806.904	27469
807.046	27671
807.188	27637
807.33	27701
807.472	27641
807.614	27671
807.756	27610
807.898	27580
808.04	27568
808.182	27473
808.324	27511
808.465	27690
808.607	27857
808.749	27895
808.891	27949
809.033	28124
809.174	27819
809.316	27979
809.458	27964
809.6	27720
809.741	27926
809.883	28006
810.025	28196
810.166	28109
810.308	28204
810.45	28059
810.591	28067
810.733	28002
810.875	27781
811.016	27747
811.158	27793
811.299	27884
811.441	27926
811.582	28036
811.724	27781
811.865	27808
812.007	27694
812.148	27926
812.29	27823
812.431	27994
812.573	28238
812.714	28185
812.855	28367
812.997	28466
813.138	28664
813.279	28584
813.421	28356
813.562	28246
813.703	28291
813.845	27983
813.986	27812
814.127	27686
814.268	27629
814.41	27553
814.551	27545
814.692	27724
814.833	27534
814.974	27591
815.115	27545
815.256	27382
815.397	27443
815.539	27469
815.68	27382
815.821	27294
815.962	27291
816.103	27329
816.244	27207
816.385	27195
816.526	27081
816.666	26918
816.807	26845
816.948	26929
817.089	26944
817.23	26899
817.371	26849
817.512	26857
817.653	26868
817.793	26739
817.934	26861
818.075	26769
818.216	26826
818.356	26861
818.497	26781
818.638	26594
818.778	26609
818.919	26613
819.06	26609
819.2	26811
819.341	26769
819.481	26842
819.622	26887
819.762	27116
819.903	27154
820.043	27047
820.184	26994
820.324	26880
820.465	27005
820.605	27051
820.746	26940
820.886	26720
821.026	26849
821.167	26975
821.307	27028
821.447	26868
821.588	26807
821.728	26693
821.868	26438
822.008	26389
822.149	26358
822.289	26126
822.429	26081
822.569	25890
822.709	26035
822.849	25966
822.99	25791
823.13	25799
823.27	26005
823.41	25510
823.55	25548
823.69	25605
823.83	25670
823.97	25788
824.11	25430
824.25	25369
824.389	25396
824.529	25575
824.669	25430
824.809	25590
824.949	25453
825.089	25468
825.228	25552
825.368	25255
825.508	25320
825.648	25339
825.787	25445
825.927	25346
826.067	25194
826.206	25236
826.346	25419
826.485	25358
826.625	25240
826.765	25407
826.904	25358
827.044	25069
827.183	25198
827.323	25065
827.462	25168
827.601	25034
827.741	25008
827.88	24954
828.02	24981
828.159	25012
828.298	24996
828.437	25080
828.577	24962
828.716	25145
828.855	24992
828.994	24741
829.134	24684
829.273	24703
829.412	24707
829.551	24604
829.69	24639
829.829	24730
829.968	24837
830.107	24703
830.246	24681
830.385	24639
830.524	24604
830.663	24597
830.802	24467
830.941	24277
831.08	24232
831.219	24407
831.357	24528
831.496	24623
831.635	24429
831.774	24334
831.913	24239
832.051	24083
832.19	24087
832.329	24205
832.467	24045
832.606	23939
832.744	23973
832.883	24091
833.022	24015
833.16	23984
833.299	24125
833.437	24041
833.576	24038
833.714	24209
833.852	24163
833.991	24194
834.129	24148
834.267	24174
834.406	24083
834.544	24243
834.682	24095
834.821	24091
834.959	24239
835.097	24057
835.235	24159
835.373	24087
835.511	24144
835.65	23996
835.788	23946
835.926	23836
836.064	23805
836.202	23821
836.34	23946
836.478	24159
836.615	23897
836.753	23904
836.891	24018
837.029	23980
837.167	23882
837.305	23821
837.443	23885
837.58	23726
837.718	23942
837.856	23783
837.993	23665
838.131	23847
838.269	23600
838.406	23646
838.544	23611
838.681	23398
838.819	23444
838.956	23349
839.094	23254
839.231	23273
839.369	23444
839.506	23707
839.643	23516
839.781	23242
839.918	23208
840.055	23273
840.193	23231
840.33	23204
840.467	23166
840.604	23246
840.742	23341
840.879	23086
841.016	23170
841.153	23132
841.29	23284
841.427	23086
841.564	23212
841.701	23212
841.838	23056
841.975	23067
842.112	23113
842.249	22965
842.385	22942
842.522	23079
842.659	22999
842.796	22957
842.933	22946
843.069	22980
843.206	22961
843.343	23018
843.479	22953
843.616	22957
843.752	22786
843.889	22748
844.025	22820
844.162	22725
844.298	22782
844.435	22687
844.571	22634
844.708	22649
844.844	22877
844.98	22892
845.117	22729
845.253	22706
845.389	22531
845.525	22546
845.661	22634
845.798	22489
845.934	22436
846.07	22436
846.206	22451
846.342	22447
846.478	22417
846.614	22280
846.75	22063
846.886	22131
847.022	22215
847.158	22192
847.294	22162
847.429	22211
847.565	22158
847.701	22322
847.837	21911
847.972	22055
848.108	21964
848.244	22002
848.379	21701
848.515	21743
848.65	21743
848.786	21823
848.921	21812
849.057	21850
849.192	22006
849.328	21793
849.463	21861
849.598	21739
849.734	21671
849.869	21679
850.004	21504
850.14	21606
850.275	21557
850.41	21382
850.545	21454
850.68	21401
850.815	21778
850.95	21530
851.085	21743
851.22	21694
851.355	21549
851.49	21549
851.625	21507
851.76	21393
851.895	21416
852.03	21492
852.165	21504
852.299	21477
852.434	21504
852.569	21568
852.703	21507
852.838	21625
852.973	21663
853.107	21564
853.242	21378
853.376	21420
853.511	21275
853.645	21180
853.78	21466
853.914	21359
854.048	21325
854.183	21348
854.317	21386
854.451	21515
854.585	21393
854.72	21268
854.854	21370
854.988	21252
855.122	21370
855.256	21207
855.39	21367
855.524	21401
855.658	21431
855.792	21363
855.926	21302
856.06	21450
856.194	21485
856.327	21340
856.461	21310
856.595	21245
856.729	21420
856.862	21435
856.996	21401
857.13	21443
857.263	21397
857.397	21416
857.53	21249
857.664	21450
857.797	21412
857.931	21424
858.064	21332
858.197	21622
858.331	21336
858.464	21382
858.597	21249
858.731	21230
858.864	21298
858.997	21294
859.13	21340
859.263	21336
859.396	21485
859.529	21294
859.662	21306
859.795	21195
859.928	21408
860.061	21443
860.194	21454
860.327	21374
860.46	21382
860.592	21523
860.725	21504
860.858	21466
860.99	21439
861.123	21275
861.256	21344
861.388	21336
861.521	21975
861.653	21199
861.786	21192
861.918	21154
862.05	21252
862.183	21245
862.315	21241
862.447	21336
862.58	21264
862.712	21070
862.844	21085
862.976	21142
863.108	21214
863.24	21447
863.372	20952
863.504	21009
863.636	20883
863.768	21211
863.9	21066
864.032	20956
864.164	21051
864.296	21192
864.428	21135
864.559	21085
864.691	21169
864.823	21131
864.954	21051
865.086	20925
865.217	20952
865.349	20853
865.48	20941
865.612	20975
865.743	21077
865.875	21032
866.006	20826
866.137	20963
866.269	20998
866.4	21066
866.531	20861
866.662	20811
866.793	20842
866.924	20872
867.055	20853
867.186	20891
867.317	20895
867.448	20823
867.579	20773
867.71	20746
867.841	20667
867.972	20845
868.103	20941
868.233	20925
868.364	20910
868.495	20994
868.625	21173
868.756	21180
868.886	21013
869.017	21116
869.147	21260
869.278	21199
869.408	21093
869.539	21157
869.669	21310
869.799	21237
869.929	21245
870.06	21344
870.19	21519
870.32	21332
870.45	21393
870.58	21542
870.71	21458
870.84	21633
870.97	21462
871.1	21424
871.23	21652
871.36	21595
871.489	21523
871.619	21660
871.749	21736
871.879	21675
872.008	21861
872.138	21724
872.267	21755
872.397	21644
872.526	21637
872.656	21504
872.785	21652
872.915	21728
873.044	21793
873.173	21736
873.303	21732
873.432	21686
873.561	21823
873.69	21797
873.819	21717
873.948	21736
874.077	21873
874.206	21671
874.335	21694
874.464	21800
874.593	21972
874.722	21934
874.851	21998
874.979	21892
875.108	22025
875.237	21998
875.365	21918
875.494	21899
875.623	22059
875.751	21930
875.88	22013
876.008	22078
876.136	22112
876.265	22356
876.393	22519
876.521	22352
876.65	22360
876.778	22287
876.906	22196
877.034	22329
877.162	22303
877.29	22249
877.418	22432
877.546	22299
877.674	22367
877.802	22409
877.93	22261
878.058	22322
878.185	22265
878.313	22287
878.441	22284
878.568	22234
878.696	22200
878.824	22386
878.951	22261
879.079	22443
879.206	22698
879.333	22500
879.461	22341
879.588	22379
879.715	22455
879.842	22630
879.97	22390
880.097	22097
880.224	22131
880.351	22306
880.478	22135
880.605	22139
880.732	22215
880.859	22299
880.986	22185
881.112	22265
881.239	21998
881.366	21907
881.493	21854
881.619	21663
881.746	21675
881.872	21755
881.999	21774
882.125	21618
882.252	21800
882.378	21660
882.505	21804
882.631	21542
882.757	21583
882.883	21523
883.01	21450
883.136	21386
883.262	21218
883.388	21306
883.514	21416
883.64	21424
883.766	21256
883.892	21157
884.018	21230
884.143	21412
884.269	21412
884.395	21074
884.52	21001
884.646	21089
884.772	21013
884.897	20895
885.023	21005
885.148	21142
885.274	21287
885.399	21089
885.524	21005
885.65	20933
885.775	21047
885.9	21032
886.025	21146
886.15	21074
886.275	20956
886.4	20941
886.525	21017
886.65	20933
886.775	21013
886.9	21256
887.025	21249
887.149	21017
887.274	20842
887.399	20804
887.523	20826
887.648	20743
887.773	20735
887.897	20823
888.021	20853
888.146	20765
888.27	20785
888.395	21028
888.519	20887
888.643	20746
888.767	20857
888.891	20727
889.015	20587
889.139	20640
889.263	20655
889.387	20811
889.511	20925
889.635	20792
889.759	20587
889.883	20606
890.006	20613
890.13	20682
890.254	20438
890.377	20617
890.501	20400
890.624	20324
890.748	20457
890.871	20278
890.995	20130
891.118	20054
891.241	20252
891.364	20187
891.488	20290
891.611	20176
891.734	20172
891.857	20088
891.98	20153
892.103	20202
892.226	20130
892.349	20157
892.471	19997
892.594	20084
892.717	20046
892.839	20084
892.962	20081
893.085	20206
893.207	20130
893.33	19963
893.452	20008
893.575	20183
893.697	20024
893.819	20237
893.941	20298
894.064	20134
894.186	20058
894.308	20005
894.43	20221
894.552	20263
894.674	20153
894.796	20043
894.918	20062
895.04	20005
895.161	20145
895.283	20065
895.405	19932
895.526	20115
895.648	20111
895.769	20100
895.891	20020
896.012	20210
896.134	20164
896.255	20126
896.376	20024
896.498	19989
896.619	20142
896.74	20199
896.861	20142
896.982	20442
897.103	20469
897.224	20168
897.345	20240
897.466	20202
897.587	20248
897.708	20476
897.828	20313
897.949	20267
898.07	20206
898.19	20161
898.311	20332
898.431	20225
898.552	20370
898.672	20358
898.792	20336
898.913	20309
899.033	20263
899.153	20073
899.273	20039
899.393	20039
899.513	20073
899.633	20005
899.753	20035
899.873	20001
899.993	20065
900.113	19982
900.232	20100
900.352	19898
900.472	19852
900.591	19784
900.711	19799
900.83	19769
900.95	19925
901.069	19913
901.189	19803
901.308	19449
901.427	19449
901.546	19445
901.665	19388
901.784	19362
901.904	19354
902.023	19225
902.141	18989
902.26	18939
902.379	19027
902.498	18958
902.617	18966
902.735	18913
902.854	18935
902.973	18658
903.091	18669
903.21	18642
903.328	18608
903.446	18414
903.565	18460
903.683	18399
903.801	18209
903.919	18403
904.038	18342
904.156	18140
904.274	18197
904.392	18159
904.51	18178
904.627	18083
904.745	18243
904.863	18243
904.981	17889
905.098	17802
905.216	17836
905.334	18011
905.451	17805
905.569	17809
905.686	17935
905.803	17828
905.921	17566
906.038	17722
906.155	17570
906.272	17623
906.389	17516
906.506	17459
906.623	17395
906.74	17315
906.857	17345
906.974	17223
907.091	17417
907.208	17516
907.324	17360
907.441	17250
907.557	17064
907.674	17136
907.79	16961
907.907	16995
908.023	17045
908.139	17109
908.256	17025
908.372	16923
908.488	17029
908.604	16877
908.72	16896
908.836	16774
908.952	16752
909.068	16854
909.184	16904
909.3	16782
909.415	16904
909.531	16763
909.647	16523
909.762	16451
909.878	16481
909.993	16546
910.108	16402
910.224	16451
910.339	16573
910.454	16344
910.57	16367
910.685	16181
910.8	16481
910.915	16550
911.03	16329
911.145	16105
911.259	16120
911.374	16188
911.489	16029
911.604	15956
911.718	15823
911.833	15781
911.947	15793
912.062	15595
912.176	15831
912.291	15819
912.405	15835
912.519	16055
912.633	16036
912.748	15873
912.862	15743
912.976	15644
913.09	15530
913.204	15572
913.318	15739
913.431	15816
913.545	15812
913.659	15785
913.772	15595
913.886	15545
914	15477
914.113	15629
914.226	15591
914.34	15599
914.453	15363
914.566	15469
914.68	15439
914.793	15329
914.906	15108
915.019	15100
915.132	14975
915.245	14918
915.358	15100
915.47	15100
915.583	15104
915.696	15085
915.809	15211
915.921	15237
916.034	15001
916.146	15001
916.259	14918
916.371	14960
916.483	14990
916.595	14933
916.708	14933
916.82	14937
916.932	14746
917.044	14807
917.156	14880
917.268	14663
917.38	14762
917.491	14667
917.603	14705
917.715	14921
917.826	14811
917.938	14750
918.049	14533
918.161	14811
918.272	14785
918.384	14849
918.495	14777
918.606	14511
918.717	14484
918.828	14579
918.939	14552
919.05	14396
919.161	14552
919.272	14328
919.383	14263
919.494	14533
919.604	14629
919.715	14476
919.826	14393
919.936	14492
920.047	14488
920.157	14450
920.267	14632
920.378	14431
920.488	14400
920.598	14632
920.708	14655
920.818	14552
920.928	14568
921.038	14648
921.148	14686
921.258	14309
921.368	14275
921.477	14271
921.587	14096
921.697	14103
921.806	14225
921.916	14065
922.025	13947
922.134	13849
922.244	13639
922.353	13830
922.462	13799
922.571	13586
922.68	13472
922.789	13460
922.898	13476
923.007	13426
923.116	13464
923.224	13460
923.333	13422
923.442	13377
923.55	13327
923.659	13339
923.767	13441
923.876	13324
923.984	13293
924.092	13194
924.201	13236
924.309	13194
924.417	13206
924.525	13236
924.633	13244
924.741	14119
924.849	12913
924.956	13126
925.064	12894
925.172	12821
925.279	12958
925.387	12943
925.494	12783
925.602	12993
925.709	12890
925.816	12844
925.924	12882
926.031	12890
926.138	12817
926.245	12878
926.352	12738
926.459	12837
926.566	12905
926.673	12692
926.779	12665
926.886	12627
926.993	12456
927.099	12563
927.206	12407
927.312	12418
927.419	12414
927.525	12445
927.631	12517
927.737	12334
927.843	12251
927.95	12251
928.056	12136
928.162	12330
928.267	12319
928.373	12829
928.479	12296
928.585	12125
928.69	12395
928.796	12277
928.901	12216
929.007	12057
929.112	12220
929.218	12045
929.323	12091
929.428	11950
929.533	12148
929.638	11942
929.743	11950
929.848	11912
929.953	11927
930.058	11889
930.163	11760
930.267	11760
930.372	11863
930.477	11646
930.581	11870
930.685	11672
930.79	11596
930.894	11691
930.998	11585
931.103	11638
931.207	11318
931.311	11334
931.415	11162
931.519	11014
931.623	10911
