Data from test_V78500241_2041.txt Node
Date: Fri Mar 25 15:24:04 CST 2022
User: usil
Spectrometer: V785-0024
Trigger mode: 0
Integration Time (sec): 4.000000E-1
Scans to average: 1
Nonlinearity correction enabled: false
Boxcar width: 0
Storing dark spectrum: false
XAxis mode: Wavelengths
Number of Pixels in Spectrum: 1024
>>>>>Begin Spectral Data<<<<<
801.071	27808
801.214	27850
801.356	27580
801.499	27534
801.641	27367
801.783	27374
801.926	27340
802.068	27348
802.211	27211
802.353	27184
802.496	27154
802.638	27017
802.78	26979
802.923	26925
803.065	26891
803.208	26914
803.35	26902
803.492	27074
803.635	27272
803.777	27093
803.919	27131
804.061	27454
804.204	27283
804.346	27112
804.488	27074
804.63	27195
804.773	27074
804.915	27154
805.057	27332
805.199	27207
805.341	27252
805.483	27374
805.626	27370
805.768	27024
805.91	27268
806.052	27351
806.194	27211
806.336	27515
806.478	27317
806.62	27176
806.762	27435
806.904	27526
807.046	27743
807.188	27675
807.33	27789
807.472	27789
807.614	27747
807.756	27724
807.898	27583
808.04	27610
808.182	27466
808.324	27606
808.465	27523
808.607	27747
808.749	27838
808.891	27907
809.033	28215
809.174	27907
809.316	27956
809.458	27960
809.6	27732
809.741	27880
809.883	28181
810.025	28192
810.166	28295
810.308	28295
810.45	28280
810.591	28147
810.733	27884
810.875	27914
811.016	27774
811.158	27713
811.299	27922
811.441	27979
811.582	28150
811.724	27888
811.865	27816
812.007	27880
812.148	27911
812.29	27956
812.431	28120
812.573	28192
812.714	28443
812.855	28356
812.997	28565
813.138	28721
813.279	28474
813.421	28394
813.562	28287
813.703	28230
813.845	28211
813.986	27816
814.127	27743
814.268	27667
814.41	27614
814.551	27477
814.692	27698
814.833	27526
814.974	27660
815.115	27633
815.256	27507
815.397	27348
815.539	27500
815.68	27329
815.821	27370
815.962	27458
816.103	27325
816.244	27355
816.385	27230
816.526	27176
816.666	26914
816.807	26864
816.948	26895
817.089	26982
817.23	26727
817.371	26864
817.512	26895
817.653	26979
817.793	26876
817.934	26914
818.075	26925
818.216	26960
818.356	26853
818.497	26823
818.638	26609
818.778	26648
818.919	26545
819.06	26796
819.2	26765
819.341	26910
819.481	26880
819.622	27142
819.762	27195
819.903	27058
820.043	27085
820.184	27093
820.324	26918
820.465	27119
820.605	26914
820.746	26944
820.886	26811
821.026	27020
821.167	27024
821.307	27089
821.447	26826
821.588	26762
821.728	26686
821.868	26613
822.008	26347
822.149	26317
822.289	26328
822.429	26027
822.569	26050
822.709	26077
822.849	25887
822.99	25811
823.13	25837
823.27	25723
823.41	25635
823.55	25609
823.69	25723
823.83	25620
823.97	25567
824.11	25514
824.25	25369
824.389	25479
824.529	25533
824.669	25464
824.809	25662
824.949	25510
825.089	25514
825.228	25453
825.368	25381
825.508	25426
825.648	25304
825.787	25377
825.927	25441
826.067	25392
826.206	25324
826.346	25384
826.485	25400
826.625	25266
826.765	25590
826.904	25415
827.044	25179
827.183	25027
827.323	25179
827.462	25168
827.601	25183
827.741	25133
827.88	25107
828.02	24932
828.159	25118
828.298	24996
828.437	25088
828.577	25015
828.716	25217
828.855	24966
828.994	24776
829.134	24806
829.273	24817
829.412	24658
829.551	24741
829.69	24779
829.829	24753
829.968	24867
830.107	24901
830.246	24791
830.385	24700
830.524	24760
830.663	24559
830.802	24498
830.941	24399
831.08	24448
831.219	24601
831.357	24559
831.496	24703
831.635	24346
831.774	24315
831.913	24369
832.051	24209
832.19	24251
832.329	24083
832.467	24083
832.606	23984
832.744	23969
832.883	23992
833.022	24038
833.16	24117
833.299	23999
833.437	24057
833.576	24053
833.714	24098
833.852	24110
833.991	24171
834.129	24311
834.267	24178
834.406	24076
834.544	24076
834.682	24095
834.821	24072
834.959	24247
835.097	24121
835.235	24102
835.373	24117
835.511	24087
835.65	23935
835.788	24038
835.926	23783
836.064	23767
836.202	23745
836.34	23996
836.478	24098
836.615	23893
836.753	23897
836.891	24022
837.029	23969
837.167	23927
837.305	23878
837.443	23901
837.58	23840
837.718	23809
837.856	23699
837.993	23672
838.131	23767
838.269	23657
838.406	23817
838.544	23649
838.681	23459
838.819	23402
838.956	23292
839.094	23303
839.231	23307
839.369	23421
839.506	23638
839.643	23493
839.781	23220
839.918	23189
840.055	23166
840.193	23280
840.33	23136
840.467	23242
840.604	23162
840.742	23531
840.879	23041
841.016	23014
841.153	23041
841.29	23334
841.427	23181
841.564	23246
841.701	23181
841.838	23113
841.975	23075
842.112	23071
842.249	23006
842.385	22885
842.522	23155
842.659	22972
842.796	22911
842.933	22980
843.069	22919
843.206	22877
843.343	23052
843.479	22976
843.616	22949
843.752	22706
843.889	22717
844.025	22858
844.162	22622
844.298	22668
844.435	22706
844.571	22744
844.708	22733
844.844	22820
844.98	22771
845.117	22858
845.253	22691
845.389	22557
845.525	22675
845.661	22599
845.798	22531
845.934	22462
846.07	22462
846.206	22542
846.342	22611
846.478	22516
846.614	22242
846.75	22234
846.886	22173
847.022	22204
847.158	22131
847.294	22188
847.429	22242
847.565	22154
847.701	22455
847.837	21937
847.972	21994
848.108	21979
848.244	21956
848.379	21812
848.515	21831
848.65	21774
848.786	21785
848.921	21717
849.057	21762
849.192	21770
849.328	21804
849.463	21751
849.598	21751
849.734	21580
849.869	21652
850.004	21523
850.14	21564
850.275	21656
850.41	21538
850.545	21424
850.68	21610
850.815	21500
850.95	21682
851.085	21694
851.22	21644
851.355	21492
851.49	21561
851.625	21481
851.76	21564
851.895	21500
852.03	21389
852.165	21591
852.299	21538
852.434	21641
852.569	21481
852.703	21447
852.838	21526
852.973	21603
853.107	21747
853.242	21523
853.376	21416
853.511	21348
853.645	21287
853.78	21477
853.914	21382
854.048	21363
854.183	21321
854.317	21363
854.451	21496
854.585	21363
854.72	21332
854.854	21447
854.988	21367
855.122	21504
855.256	21256
855.39	21325
855.524	21481
855.658	21351
855.792	21416
855.926	21439
856.06	21370
856.194	21367
856.327	21283
856.461	21332
856.595	21195
856.729	21397
856.862	21447
856.996	21336
857.13	21386
857.263	21435
857.397	21458
857.53	21412
857.664	21302
857.797	21443
857.931	21424
858.064	21378
858.197	21428
858.331	21321
858.464	21351
858.597	21264
858.731	21367
858.864	21367
858.997	21363
859.13	21313
859.263	21348
859.396	21389
859.529	21363
859.662	21397
859.795	21378
859.928	21260
860.061	21553
860.194	21523
860.327	21397
860.46	21310
860.592	21355
860.725	21481
860.858	21485
860.99	21332
861.123	21260
861.256	21321
861.388	21344
861.521	22048
861.653	21218
861.786	21112
861.918	21203
862.05	21188
862.183	21428
862.315	21298
862.447	21370
862.58	21199
862.712	21070
862.844	21024
862.976	21066
863.108	21077
863.24	21283
863.372	20975
863.504	21150
863.636	21089
863.768	21123
863.9	21093
864.032	20967
864.164	21077
864.296	21039
864.428	21096
864.559	20986
864.691	21214
864.823	21116
864.954	21096
865.086	21089
865.217	21013
865.349	20853
865.48	20906
865.612	20963
865.743	21051
865.875	21028
866.006	20887
866.137	20937
866.269	20982
866.4	20876
866.531	20956
866.662	20746
866.793	20967
866.924	20781
867.055	20921
867.186	20914
867.317	20861
867.448	20823
867.579	20853
867.71	20842
867.841	20861
867.972	20830
868.103	20861
868.233	20788
868.364	20800
868.495	20990
868.625	21001
868.756	21313
868.886	20982
869.017	21150
869.147	21298
869.278	21298
869.408	21150
869.539	21074
869.669	21093
869.799	21245
869.929	21287
870.06	21230
870.19	21454
870.32	21485
870.45	21477
870.58	21538
870.71	21656
870.84	21561
870.97	21545
871.1	21515
871.23	21709
871.36	21770
871.489	21675
871.619	21698
871.749	21660
871.879	21800
872.008	21766
872.138	21709
872.267	21762
872.397	21519
872.526	21492
872.656	21557
872.785	21629
872.915	21660
873.044	21808
873.173	21709
873.303	21720
873.432	21755
873.561	21705
873.69	21823
873.819	21793
873.948	21850
874.077	21838
874.206	21709
874.335	21663
874.464	21739
874.593	22013
874.722	21884
874.851	22021
874.979	21926
875.108	22093
875.237	21945
875.365	21816
875.494	21876
875.623	22006
875.751	21876
875.88	21854
876.008	22059
876.136	22150
876.265	22310
876.393	22485
876.521	22356
876.65	22478
876.778	22375
876.906	22322
877.034	22299
877.162	22322
877.29	22128
877.418	22333
877.546	22303
877.674	22253
877.802	22226
877.93	22333
878.058	22280
878.185	22219
878.313	22162
878.441	22379
878.568	22112
878.696	22162
878.824	22287
878.951	22447
879.079	22436
879.206	22607
879.333	22504
879.461	22363
879.588	22322
879.715	22508
879.842	22603
879.97	22447
880.097	22086
880.224	22109
880.351	22177
880.478	22120
880.605	22078
880.732	22139
880.859	22356
880.986	22177
881.112	22154
881.239	21899
881.366	21854
881.493	21751
881.619	21835
881.746	21827
881.872	21789
881.999	21603
882.125	21576
882.252	21759
882.378	21599
882.505	21812
882.631	21663
882.757	21462
882.883	21629
883.01	21428
883.136	21355
883.262	21348
883.388	21252
883.514	21412
883.64	21534
883.766	21348
883.892	21260
884.018	21184
884.143	21344
884.269	21458
884.395	21032
884.52	21032
884.646	21093
884.772	21131
884.897	20994
885.023	21112
885.148	21203
885.274	21291
885.399	21207
885.524	21119
885.65	21176
885.775	21142
885.9	21024
886.025	21116
886.15	21146
886.275	21085
886.4	20910
886.525	21081
886.65	21100
886.775	20956
886.9	21100
887.025	21306
887.149	21020
887.274	20967
887.399	20838
887.523	20796
887.648	20792
887.773	20739
887.897	20842
888.021	20811
888.146	20880
888.27	20891
888.395	20845
888.519	20906
888.643	20925
888.767	20941
888.891	20880
889.015	20754
889.139	20724
889.263	20670
889.387	20823
889.511	20769
889.635	20785
889.759	20670
889.883	20606
890.006	20682
890.13	20834
890.254	20594
890.377	20522
890.501	20404
890.624	20412
890.748	20488
890.871	20332
890.995	20206
891.118	20202
891.241	20332
891.364	20199
891.488	20408
891.611	20195
891.734	20305
891.857	20157
891.98	20256
892.103	20168
892.226	20119
892.349	20111
892.471	20176
892.594	20119
892.717	20084
892.839	20046
892.962	20092
893.085	20362
893.207	20164
893.33	20050
893.452	20005
893.575	20157
893.697	20119
893.819	20248
893.941	20317
894.064	20324
894.186	19997
894.308	20065
894.43	20233
894.552	20237
894.674	20130
894.796	20024
894.918	20088
895.04	20145
895.161	20088
895.283	20157
895.405	20005
895.526	20077
895.648	20180
895.769	20119
895.891	20240
896.012	20309
896.134	20202
896.255	20119
896.376	20008
896.498	19982
896.619	20115
896.74	20012
896.861	20278
896.982	20438
897.103	20648
897.224	20374
897.345	20298
897.466	20336
897.587	20339
897.708	20454
897.828	20446
897.949	20347
898.07	20199
898.19	20332
898.311	20404
898.431	20237
898.552	20191
898.672	20347
898.792	20423
898.913	20256
899.033	20271
899.153	20088
899.273	20031
899.393	20043
899.513	20107
899.633	20161
899.753	20126
899.873	19967
899.993	20065
900.113	20077
900.232	20103
900.352	20073
900.472	19879
900.591	19894
900.711	19894
900.83	19780
900.95	20081
901.069	19868
901.189	19715
901.308	19491
901.427	19460
901.546	19369
901.665	19430
901.784	19472
901.904	19278
902.023	19171
902.141	19031
902.26	18924
902.379	19000
902.498	18977
902.617	18962
902.735	19000
902.854	18943
902.973	18890
903.091	18711
903.21	18749
903.328	18597
903.446	18479
903.565	18437
903.683	18395
903.801	18361
903.919	18490
904.038	18445
904.156	18258
904.274	18296
904.392	18224
904.51	18205
904.627	18102
904.745	18194
904.863	18243
904.981	17969
905.098	17942
905.216	17821
905.334	17912
905.451	17885
905.569	17885
905.686	17980
905.803	17832
905.921	17707
906.038	17748
906.155	17684
906.272	17592
906.389	17646
906.506	17471
906.623	17444
906.74	17455
906.857	17318
906.974	17330
907.091	17474
907.208	17467
907.324	17337
907.441	17383
907.557	17242
907.674	17155
907.79	17048
907.907	17018
908.023	17098
908.139	17056
908.256	17113
908.372	17018
908.488	16980
908.604	16831
908.72	16744
908.836	16835
908.952	16759
909.068	16873
909.184	16911
909.3	16892
909.415	16873
909.531	16828
909.647	16596
909.762	16542
909.878	16618
909.993	16561
910.108	16489
910.224	16489
910.339	16588
910.454	16474
910.57	16379
910.685	16382
910.8	16584
910.915	16538
911.03	16478
911.145	16120
911.259	16147
911.374	16238
911.489	16017
911.604	16059
911.718	15945
911.833	15808
911.947	15728
912.062	15667
912.176	15941
912.291	15903
912.405	15903
912.519	15994
912.633	16097
912.748	15918
912.862	15922
912.976	15785
913.09	15644
913.204	15648
913.318	15682
913.431	15739
913.545	15812
913.659	15797
913.772	15652
913.886	15519
914	15481
914.113	15534
914.226	15701
914.34	15542
914.453	15378
914.566	15561
914.68	15351
914.793	15370
914.906	15203
915.019	15089
915.132	15024
915.245	15081
915.358	15165
915.47	15032
915.583	15074
915.696	15195
915.809	15161
915.921	15237
916.034	15047
916.146	15074
916.259	15005
916.371	15123
916.483	14990
916.595	14975
916.708	14925
916.82	14960
916.932	14902
917.044	14845
917.156	14815
917.268	14804
917.38	14716
917.491	14773
917.603	14720
917.715	14842
917.826	14944
917.938	14693
918.049	14590
918.161	14834
918.272	14804
918.384	14830
918.495	14716
918.606	14621
918.717	14465
918.828	14579
918.939	14579
919.05	14427
919.161	14568
919.272	14256
919.383	14385
919.494	14530
919.604	14731
919.715	14499
919.826	14358
919.936	14423
920.047	14575
920.157	14446
920.267	14731
920.378	14484
920.488	14454
920.598	14674
920.708	14758
920.818	14678
920.928	14598
921.038	14769
921.148	14682
921.258	14438
921.368	14328
921.477	14259
921.587	14180
921.697	14024
921.806	14233
921.916	14069
922.025	13944
922.134	13883
922.244	13868
922.353	13978
922.462	13689
922.571	13772
922.68	13575
922.789	13495
922.898	13540
923.007	13411
923.116	13548
923.224	13491
923.333	13483
923.442	13381
923.55	13362
923.659	13396
923.767	13441
923.876	13339
923.984	13331
924.092	13350
924.201	13232
924.309	13278
924.417	13179
924.525	13145
924.633	13289
924.741	13909
924.849	12939
924.956	13137
925.064	13042
925.172	12993
925.279	12913
925.387	12901
925.494	12939
925.602	13088
925.709	12909
925.816	12863
925.924	12878
926.031	12951
926.138	12916
926.245	12905
926.352	12798
926.459	12840
926.566	12890
926.673	12852
926.779	12821
926.886	12665
926.993	12486
927.099	12452
927.206	12441
927.312	12384
927.419	12521
927.525	12464
927.631	12494
927.737	12464
927.843	12292
927.95	12224
928.056	12342
928.162	12281
928.267	12433
928.373	12973
928.479	12441
928.585	12022
928.69	12262
928.796	12391
928.901	12163
929.007	12030
929.112	12224
929.218	12114
929.323	12049
929.428	12030
929.533	12064
929.638	11980
929.743	11992
929.848	11923
929.953	12026
930.058	11855
930.163	11756
930.267	11722
930.372	11828
930.477	11672
930.581	11931
930.685	11847
930.79	11577
930.894	11661
930.998	11581
931.103	11794
931.207	11425
931.311	11318
931.415	11170
931.519	10957
931.623	10847
