Data from test_V78500241_2937.txt Node
Date: Fri Mar 25 15:30:18 CST 2022
User: usil
Spectrometer: V785-0024
Trigger mode: 0
Integration Time (sec): 4.000000E-1
Scans to average: 1
Nonlinearity correction enabled: false
Boxcar width: 0
Storing dark spectrum: false
XAxis mode: Wavelengths
Number of Pixels in Spectrum: 1024
>>>>>Begin Spectral Data<<<<<
801.071	27397
801.214	27161
801.356	27036
801.499	26967
801.641	26769
801.783	26727
801.926	26891
802.068	26845
802.211	26686
802.353	26640
802.496	26568
802.638	26530
802.78	26476
802.923	26290
803.065	26343
803.208	26263
803.35	26503
803.492	26594
803.635	26640
803.777	26461
803.919	26708
804.061	26971
804.204	26773
804.346	26465
804.488	26522
804.63	26530
804.773	26427
804.915	26583
805.057	26724
805.199	26651
805.341	26568
805.483	26735
805.626	26609
805.768	26621
805.91	26659
806.052	26765
806.194	26571
806.336	26910
806.478	26746
806.62	26743
806.762	26830
806.904	26994
807.046	27313
807.188	27104
807.33	27199
807.472	27287
807.614	26979
807.756	27093
807.898	27013
808.04	26864
808.182	26861
808.324	27104
808.465	27013
808.607	27123
808.749	27332
808.891	27496
809.033	27439
809.174	27340
809.316	27332
809.458	27431
809.6	27249
809.741	27488
809.883	27405
810.025	27637
810.166	27587
810.308	27743
810.45	27587
810.591	27408
810.733	27462
810.875	27218
811.016	27313
811.158	27154
811.299	27447
811.441	27538
811.582	27511
811.724	27272
811.865	27291
812.007	27260
812.148	27306
812.29	27408
812.431	27393
812.573	27641
812.714	27728
812.855	27743
812.997	27892
813.138	28032
813.279	27911
813.421	27774
813.562	27709
813.703	27713
813.845	27488
813.986	27154
814.127	27142
814.268	27051
814.41	26956
814.551	26982
814.692	27055
814.833	26864
814.974	26914
815.115	27005
815.256	26880
815.397	26895
815.539	26910
815.68	26727
815.821	26590
815.962	26800
816.103	26724
816.244	26453
816.385	26522
816.526	26533
816.666	26210
816.807	26134
816.948	26237
817.089	26343
817.23	26294
817.371	26225
817.512	26240
817.653	26187
817.793	26153
817.934	26134
818.075	26233
818.216	26248
818.356	26248
818.497	26229
818.638	25864
818.778	26005
818.919	26024
819.06	26001
819.2	26096
819.341	26107
819.481	26218
819.622	26294
819.762	26442
819.903	26434
820.043	26381
820.184	26256
820.324	26309
820.465	26317
820.605	26339
820.746	26191
820.886	26119
821.026	26229
821.167	26290
821.307	26351
821.447	26183
821.588	26157
821.728	26035
821.868	25902
822.008	25620
822.149	25704
822.289	25696
822.429	25449
822.569	25487
822.709	25411
822.849	25217
822.99	25088
823.13	25213
823.27	25053
823.41	24947
823.55	24913
823.69	25015
823.83	24920
823.97	24848
824.11	24886
824.25	24749
824.389	24852
824.529	24897
824.669	24692
824.809	24970
824.949	24878
825.089	24886
825.228	24947
825.368	24700
825.508	24639
825.648	24684
825.787	24631
825.927	24787
826.067	24703
826.206	24608
826.346	24696
826.485	24753
826.625	24665
826.765	24715
826.904	24681
827.044	24528
827.183	24452
827.323	24414
827.462	24330
827.601	24380
827.741	24410
827.88	24388
828.02	24308
828.159	24277
828.298	24334
828.437	24422
828.577	24342
828.716	24403
828.855	24403
828.994	24018
829.134	23992
829.273	24194
829.412	24060
829.551	24011
829.69	24136
829.829	24125
829.968	24133
830.107	24076
830.246	24159
830.385	23961
830.524	23980
830.663	23901
830.802	23718
830.941	23687
831.08	23760
831.219	23638
831.357	23676
831.496	23939
831.635	23619
831.774	23528
831.913	23524
832.051	23414
832.19	23398
832.329	23414
832.467	23330
832.606	23318
832.744	23189
832.883	23280
833.022	23360
833.16	23345
833.299	23284
833.437	23448
833.576	23524
833.714	23334
833.852	23474
833.991	23474
834.129	23539
834.267	23509
834.406	23379
834.544	23334
834.682	23356
834.821	23383
834.959	23516
835.097	23417
835.235	23402
835.373	23360
835.511	23307
835.65	23398
835.788	23261
835.926	23197
836.064	23075
836.202	23010
836.34	23288
836.478	23322
836.615	23166
836.753	23315
836.891	23334
837.029	23246
837.167	23083
837.305	23204
837.443	23185
837.58	23064
837.718	23086
837.856	23132
837.993	22999
838.131	23010
838.269	22919
838.406	22949
838.544	22854
838.681	22805
838.819	22744
838.956	22542
839.094	22592
839.231	22550
839.369	22653
839.506	23041
839.643	22809
839.781	22508
839.918	22459
840.055	22550
840.193	22580
840.33	22455
840.467	22535
840.604	22569
840.742	22653
840.879	22402
841.016	22322
841.153	22390
841.29	22557
841.427	22405
841.564	22459
841.701	22542
841.838	22428
841.975	22470
842.112	22466
842.249	22299
842.385	22196
842.522	22440
842.659	22428
842.796	22139
842.933	22299
843.069	22253
843.206	22223
843.343	22188
843.479	22246
843.616	22276
843.752	21956
843.889	22063
844.025	22238
844.162	21968
844.298	22093
844.435	21899
844.571	21987
844.708	21926
844.844	22169
844.98	22067
845.117	22150
845.253	21892
845.389	21956
845.525	21956
845.661	21869
845.798	21778
845.934	21884
846.07	21644
846.206	21724
846.342	21987
846.478	21709
846.614	21507
846.75	21557
846.886	21485
847.022	21622
847.158	21435
847.294	21511
847.429	21519
847.565	21454
847.701	21603
847.837	21237
847.972	21093
848.108	21302
848.244	21207
848.379	21104
848.515	21051
848.65	21013
848.786	21112
848.921	21089
849.057	21116
849.192	21199
849.328	21135
849.463	21230
849.598	20994
849.734	21039
849.869	20941
850.004	20914
850.14	20773
850.275	20941
850.41	20830
850.545	20868
850.68	20804
850.815	20811
850.95	20853
851.085	21188
851.22	20880
851.355	20826
851.49	20819
851.625	20830
851.76	20838
851.895	20842
852.03	20773
852.165	20785
852.299	20826
852.434	20788
852.569	20933
852.703	20807
852.838	20956
852.973	20906
853.107	20880
853.242	20731
853.376	20583
853.511	20556
853.645	20644
853.78	20781
853.914	20579
854.048	20644
854.183	20617
854.317	20800
854.451	20864
854.585	20659
854.72	20693
854.854	20762
854.988	20587
855.122	20785
855.256	20389
855.39	20590
855.524	20727
855.658	20621
855.792	20613
855.926	20686
856.06	20735
856.194	20834
856.327	20644
856.461	20590
856.595	20590
856.729	20594
856.862	20716
856.996	20720
857.13	20731
857.263	20686
857.397	20792
857.53	20632
857.664	20632
857.797	20781
857.931	20701
858.064	20724
858.197	20773
858.331	20625
858.464	20659
858.597	20564
858.731	20659
858.864	20598
858.997	20632
859.13	20636
859.263	20682
859.396	20773
859.529	20678
859.662	20533
859.795	20560
859.928	20705
860.061	20842
860.194	20906
860.327	20701
860.46	20815
860.592	20815
860.725	20792
860.858	20727
860.99	20640
861.123	20579
861.256	20663
861.388	20648
861.521	21211
861.653	20621
861.786	20511
861.918	20609
862.05	20579
862.183	20594
862.315	20651
862.447	20689
862.58	20625
862.712	20412
862.844	20374
862.976	20514
863.108	20377
863.24	20811
863.372	20282
863.504	20408
863.636	20358
863.768	20309
863.9	20400
864.032	20305
864.164	20339
864.296	20374
864.428	20431
864.559	20499
864.691	20343
864.823	20381
864.954	20450
865.086	20343
865.217	20271
865.349	20244
865.48	20381
865.612	20328
865.743	20347
865.875	20259
866.006	20180
866.137	20290
866.269	20214
866.4	20210
866.531	20103
866.662	20221
866.793	20259
866.924	20252
867.055	20237
867.186	20210
867.317	20180
867.448	20145
867.579	20267
867.71	20206
867.841	20248
867.972	20183
868.103	20256
868.233	20168
868.364	20332
868.495	20301
868.625	20377
868.756	20583
868.886	20385
869.017	20339
869.147	20533
869.278	20537
869.408	20465
869.539	20526
869.669	20362
869.799	20560
869.929	20575
870.06	20537
870.19	20750
870.32	20769
870.45	20781
870.58	20853
870.71	20857
870.84	21020
870.97	20788
871.1	20815
871.23	21024
871.36	21119
871.489	20963
871.619	21062
871.749	20994
871.879	21055
872.008	21161
872.138	21047
872.267	21112
872.397	20990
872.526	20925
872.656	20781
872.785	20952
872.915	21123
873.044	21154
873.173	21100
873.303	21188
873.432	21176
873.561	21211
873.69	21127
873.819	21108
873.948	21264
874.077	21070
874.206	21066
874.335	21085
874.464	21252
874.593	21283
874.722	21317
874.851	21401
874.979	21435
875.108	21386
875.237	21340
875.365	21195
875.494	21264
875.623	21344
875.751	21317
875.88	21367
876.008	21583
876.136	21454
876.265	21717
876.393	21827
876.521	21854
876.65	21857
876.778	21842
876.906	21713
877.034	21622
877.162	21629
877.29	21618
877.418	21679
877.546	21732
877.674	21724
877.802	21614
877.93	21663
878.058	21549
878.185	21644
878.313	21591
878.441	21595
878.568	21488
878.696	21587
878.824	21679
878.951	21778
879.079	21808
879.206	21873
879.333	21751
879.461	21705
879.588	21816
879.715	21838
879.842	21953
879.97	21671
880.097	21568
880.224	21481
880.351	21378
880.478	21523
880.605	21367
880.732	21435
880.859	21618
880.986	21496
881.112	21473
881.239	21386
881.366	21192
881.493	21161
881.619	20994
881.746	21199
881.872	21051
881.999	21043
882.125	21051
882.252	21100
882.378	20960
882.505	21142
882.631	20998
882.757	20902
882.883	20891
883.01	20838
883.136	20712
883.262	20613
883.388	20693
883.514	20739
883.64	20689
883.766	20785
883.892	20522
884.018	20644
884.143	20689
884.269	20929
884.395	20511
884.52	20484
884.646	20427
884.772	20339
884.897	20271
885.023	20518
885.148	20602
885.274	20541
885.399	20552
885.524	20484
885.65	20530
885.775	20492
885.9	20385
886.025	20579
886.15	20568
886.275	20465
886.4	20377
886.525	20415
886.65	20358
886.775	20301
886.9	20568
887.025	20682
887.149	20404
887.274	20202
887.399	20134
887.523	20096
887.648	20046
887.773	20122
887.897	20332
888.021	20256
888.146	20119
888.27	20267
888.395	20256
888.519	20221
888.643	20351
888.767	20180
888.891	20103
889.015	20058
889.139	20043
889.263	20107
889.387	20122
889.511	20103
889.635	20168
889.759	20043
889.883	20008
890.006	20046
890.13	20062
890.254	20031
890.377	20008
890.501	19791
890.624	19818
890.748	19841
890.871	19643
890.995	19624
891.118	19548
891.241	19575
891.364	19651
891.488	19765
891.611	19647
891.734	19620
891.857	19624
891.98	19594
892.103	19662
892.226	19559
892.349	19571
892.471	19312
892.594	19506
892.717	19563
892.839	19571
892.962	19495
893.085	19624
893.207	19491
893.33	19358
893.452	19502
893.575	19514
893.697	19499
893.819	19791
893.941	19738
894.064	19693
894.186	19464
894.308	19354
894.43	19715
894.552	19780
894.674	19605
894.796	19388
894.918	19483
895.04	19548
895.161	19571
895.283	19616
895.405	19419
895.526	19616
895.648	19597
895.769	19407
895.891	19563
896.012	19605
896.134	19575
896.255	19537
896.376	19525
896.498	19609
896.619	19464
896.74	19529
896.861	19529
896.982	19902
897.103	19925
897.224	19833
897.345	19849
897.466	19753
897.587	19879
897.708	19917
897.828	19753
897.949	19841
898.07	19727
898.19	19700
898.311	19772
898.431	19628
898.552	19708
898.672	19879
898.792	19833
898.913	19700
899.033	19674
899.153	19525
899.273	19407
899.393	19525
899.513	19556
899.633	19582
899.753	19586
899.873	19460
899.993	19556
900.113	19499
900.232	19514
900.352	19430
900.472	19430
900.591	19331
900.711	19324
900.83	19232
900.95	19430
901.069	19396
901.189	19190
901.308	19072
901.427	18779
901.546	18985
901.665	18897
901.784	18897
901.904	18795
902.023	18669
902.141	18486
902.26	18483
902.379	18585
902.498	18350
902.617	18445
902.735	18532
902.854	18361
902.973	18376
903.091	18064
903.21	18121
903.328	18182
903.446	18003
903.565	17821
903.683	17977
903.801	17726
903.919	17889
904.038	17790
904.156	17767
904.274	17813
904.392	17592
904.51	17604
904.627	17630
904.745	17619
904.863	17638
904.981	17459
905.098	17318
905.216	17330
905.334	17273
905.451	17360
905.569	17277
905.686	17353
905.803	17410
905.921	17109
906.038	17223
906.155	17113
906.272	17064
906.389	17071
906.506	16911
906.623	16946
906.74	16824
906.857	16763
906.974	16778
907.091	16881
907.208	17045
907.324	16915
907.441	16774
907.557	16645
907.674	16668
907.79	16485
907.907	16542
908.023	16634
908.139	16607
908.256	16618
908.372	16497
908.488	16516
908.604	16375
908.72	16329
908.836	16363
908.952	16363
909.068	16409
909.184	16474
909.3	16303
909.415	16352
909.531	16341
909.647	16173
909.762	16112
909.878	15979
909.993	15983
910.108	16010
910.224	15907
910.339	16074
910.454	15903
910.57	15869
910.685	15739
910.8	15968
910.915	16143
911.03	15892
911.145	15660
911.259	15713
911.374	15591
911.489	15557
911.604	15530
911.718	15416
911.833	15435
911.947	15344
912.062	15275
912.176	15408
912.291	15523
912.405	15405
912.519	15591
912.633	15549
912.748	15435
912.862	15367
912.976	15184
913.09	15074
913.204	15268
913.318	15249
913.431	15317
913.545	15298
913.659	15245
913.772	15085
913.886	15116
914	15112
914.113	15108
914.226	15093
914.34	15093
914.453	14941
914.566	14986
914.68	14872
914.793	14887
914.906	14655
915.019	14625
915.132	14560
915.245	14594
915.358	14686
915.47	14735
915.583	14670
915.696	14739
915.809	14701
915.921	14739
916.034	14606
916.146	14579
916.259	14549
916.371	14686
916.483	14678
916.595	14499
916.708	14499
916.82	14469
916.932	14389
917.044	14484
917.156	14476
917.268	14278
917.38	14294
917.491	14233
917.603	14294
917.715	14309
917.826	14423
917.938	14278
918.049	14157
918.161	14286
918.272	14343
918.384	14454
918.495	14248
918.606	14134
918.717	14012
918.828	14035
918.939	14142
919.05	13986
919.161	13993
919.272	13932
919.383	14012
919.494	14142
919.604	14282
919.715	14161
919.826	14088
919.936	14081
920.047	14187
920.157	14142
920.267	14301
920.378	14084
920.488	14077
920.598	14202
920.708	14317
920.818	14244
920.928	14149
921.038	14271
921.148	14259
921.258	14024
921.368	13909
921.477	13734
921.587	13822
921.697	13681
921.806	13845
921.916	13639
922.025	13533
922.134	13491
922.244	13407
922.353	13453
922.462	13285
922.571	13362
922.68	13072
922.789	13156
922.898	13133
923.007	13031
923.116	13202
923.224	13076
923.333	13122
923.442	13004
923.55	12966
923.659	13012
923.767	13031
923.876	12867
923.984	13038
924.092	12814
924.201	12867
924.309	12928
924.417	12814
924.525	12726
924.633	12829
924.741	13742
924.849	12547
924.956	12696
925.064	12566
925.172	12475
925.279	12555
925.387	12540
925.494	12479
925.602	12654
925.709	12604
925.816	12338
925.924	12502
926.031	12528
926.138	12445
926.245	12528
926.352	12414
926.459	12589
926.566	12582
926.673	12456
926.779	12361
926.886	12289
926.993	12144
927.099	12114
927.206	12106
927.312	12064
927.419	12175
927.525	12129
927.631	12228
927.737	12019
927.843	12057
927.95	11935
928.056	11939
928.162	12045
928.267	12015
928.373	12604
928.479	11992
928.585	11851
928.69	11916
928.796	11912
928.901	11805
929.007	11653
929.112	11923
929.218	11809
929.323	11748
929.428	11703
929.533	11859
929.638	11649
929.743	11665
929.848	11668
929.953	11672
930.058	11539
930.163	11299
930.267	11471
930.372	11592
930.477	11383
930.581	11566
930.685	11417
930.79	11212
930.894	11299
930.998	11220
931.103	11356
931.207	11033
931.311	10915
931.415	10927
931.519	10691
931.623	10626
