Data from test_V78500241_3200.txt Node
Date: Fri Mar 25 15:32:08 CST 2022
User: usil
Spectrometer: V785-0024
Trigger mode: 0
Integration Time (sec): 4.000000E-1
Scans to average: 1
Nonlinearity correction enabled: false
Boxcar width: 0
Storing dark spectrum: false
XAxis mode: Wavelengths
Number of Pixels in Spectrum: 1024
>>>>>Begin Spectral Data<<<<<
801.071	27074
801.214	26849
801.356	26754
801.499	26689
801.641	26609
801.783	26465
801.926	26621
802.068	26568
802.211	26423
802.353	26385
802.496	26191
802.638	26214
802.78	26191
802.923	26073
803.065	25989
803.208	25989
803.35	26229
803.492	26278
803.635	26389
803.777	26176
803.919	26313
804.061	26781
804.204	26294
804.346	26187
804.488	26210
804.63	26366
804.773	26351
804.915	26453
805.057	26507
805.199	26259
805.341	26244
805.483	26484
805.626	26473
805.768	26229
805.91	26442
806.052	26537
806.194	26366
806.336	26659
806.478	26385
806.62	26351
806.762	26518
806.904	26743
807.046	26887
807.188	26899
807.33	26887
807.472	26933
807.614	26750
807.756	26686
807.898	26758
808.04	26549
808.182	26564
808.324	26716
808.465	26636
808.607	26937
808.749	26914
808.891	27009
809.033	27131
809.174	27157
809.316	26944
809.458	26971
809.6	26975
809.741	27043
809.883	26986
810.025	27306
810.166	27268
810.308	27127
810.45	27199
810.591	27184
810.733	27032
810.875	26906
811.016	26838
811.158	26887
811.299	27066
811.441	27222
811.582	27142
811.724	27051
811.865	27009
812.007	26906
812.148	26975
812.29	27051
812.431	27009
812.573	27207
812.714	27401
812.855	27481
812.997	27526
813.138	27751
813.279	27709
813.421	27447
813.562	27367
813.703	27443
813.845	27173
813.986	27074
814.127	26697
814.268	26746
814.41	26720
814.551	26564
814.692	26735
814.833	26583
814.974	26552
815.115	26629
815.256	26503
815.397	26438
815.539	26533
815.68	26374
815.821	26298
815.962	26450
816.103	26457
816.244	26282
816.385	26210
816.526	26096
816.666	25906
816.807	25986
816.948	26031
817.089	25959
817.23	25906
817.371	25822
817.512	25902
817.653	25868
817.793	25803
817.934	25925
818.075	25860
818.216	26001
818.356	25909
818.497	25715
818.638	25594
818.778	25677
818.919	25727
819.06	25719
819.2	25989
819.341	26012
819.481	25921
819.622	26027
819.762	26240
819.903	26225
820.043	26058
820.184	26153
820.324	25944
820.465	26039
820.605	25902
820.746	25917
820.886	25925
821.026	25951
821.167	25890
821.307	26016
821.447	25913
821.588	25928
821.728	25769
821.868	25403
822.008	25403
822.149	25403
822.289	25377
822.429	25027
822.569	24958
822.709	25171
822.849	24951
822.99	24939
823.13	24875
823.27	24817
823.41	24673
823.55	24608
823.69	24749
823.83	24650
823.97	24532
824.11	24570
824.25	24475
824.389	24437
824.529	24532
824.669	24445
824.809	24540
824.949	24509
825.089	24559
825.228	24471
825.368	24460
825.508	24388
825.648	24262
825.787	24407
825.927	24441
826.067	24391
826.206	24376
826.346	24486
826.485	24437
826.625	24346
826.765	24429
826.904	24528
827.044	24353
827.183	24155
827.323	24182
827.462	24155
827.601	24026
827.741	23992
827.88	24095
828.02	23980
828.159	24117
828.298	23965
828.437	24182
828.577	23988
828.716	24254
828.855	24072
828.994	23779
829.134	23824
829.273	23794
829.412	23726
829.551	23703
829.69	23878
829.829	23828
829.968	23863
830.107	23954
830.246	23741
830.385	23680
830.524	23703
830.663	23608
830.802	23528
830.941	23406
831.08	23440
831.219	23463
831.357	23592
831.496	23707
831.635	23334
831.774	23280
831.913	23242
832.051	23143
832.19	23178
832.329	23216
832.467	23136
832.606	22999
832.744	23121
832.883	23162
833.022	22995
833.16	23242
833.299	23117
833.437	23098
833.576	23079
833.714	23060
833.852	23322
833.991	23220
834.129	23258
834.267	23292
834.406	23094
834.544	23216
834.682	23174
834.821	23071
834.959	23273
835.097	23102
835.235	23246
835.373	23102
835.511	23033
835.65	23048
835.788	23029
835.926	23029
836.064	22820
836.202	22831
836.34	23044
836.478	23079
836.615	22877
836.753	22930
836.891	23010
837.029	22987
837.167	22957
837.305	22968
837.443	22767
837.58	22866
837.718	22858
837.856	22820
837.993	22801
838.131	22786
838.269	22771
838.406	22729
838.544	22729
838.681	22485
838.819	22546
838.956	22382
839.094	22405
839.231	22527
839.369	22436
839.506	22759
839.643	22584
839.781	22417
839.918	22329
840.055	22356
840.193	22299
840.33	22116
840.467	22402
840.604	22211
840.742	22478
840.879	22181
841.016	22287
841.153	22192
841.29	22409
841.427	22226
841.564	22234
841.701	22215
841.838	22204
841.975	22230
842.112	22188
842.249	22124
842.385	22074
842.522	22352
842.659	22044
842.796	22044
842.933	22051
843.069	21911
843.206	22021
843.343	22074
843.479	22002
843.616	22010
843.752	21934
843.889	21816
844.025	21987
844.162	21819
844.298	21975
844.435	21884
844.571	21804
844.708	21793
844.844	21857
844.98	21983
845.117	21972
845.253	21747
845.389	21610
845.525	21675
845.661	21652
845.798	21557
845.934	21637
846.07	21526
846.206	21568
846.342	21732
846.478	21526
846.614	21454
846.75	21256
846.886	21226
847.022	21386
847.158	21298
847.294	21302
847.429	21272
847.565	21332
847.701	21481
847.837	20937
847.972	21047
848.108	21108
848.244	21096
848.379	20906
848.515	20845
848.65	20815
848.786	20800
848.921	20830
849.057	21116
849.192	20944
849.328	20929
849.463	20895
849.598	20857
849.734	20792
849.869	20727
850.004	20750
850.14	20720
850.275	20716
850.41	20507
850.545	20644
850.68	20575
850.815	20617
850.95	20682
851.085	20853
851.22	20731
851.355	20731
851.49	20606
851.625	20613
851.76	20598
851.895	20575
852.03	20518
852.165	20682
852.299	20644
852.434	20689
852.569	20716
852.703	20701
852.838	20636
852.973	20750
853.107	20712
853.242	20473
853.376	20469
853.511	20396
853.645	20434
853.78	20564
853.914	20541
854.048	20522
854.183	20476
854.317	20446
854.451	20598
854.585	20492
854.72	20518
854.854	20552
854.988	20427
855.122	20396
855.256	20400
855.39	20476
855.524	20644
855.658	20431
855.792	20423
855.926	20434
856.06	20533
856.194	20549
856.327	20377
856.461	20355
856.595	20465
856.729	20469
856.862	20648
856.996	20511
857.13	20480
857.263	20526
857.397	20514
857.53	20404
857.664	20480
857.797	20415
857.931	20598
858.064	20575
858.197	20670
858.331	20461
858.464	20442
858.597	20324
858.731	20419
858.864	20480
858.997	20442
859.13	20457
859.263	20480
859.396	20640
859.529	20355
859.662	20415
859.795	20568
859.928	20564
860.061	20651
860.194	20693
860.327	20560
860.46	20419
860.592	20484
860.725	20602
860.858	20617
860.99	20389
861.123	20313
861.256	20450
861.388	20454
861.521	21058
861.653	20282
861.786	20240
861.918	20263
862.05	20317
862.183	20374
862.315	20438
862.447	20438
862.58	20332
862.712	20244
862.844	20172
862.976	20206
863.108	20233
863.24	20511
863.372	20122
863.504	20145
863.636	20172
863.768	20183
863.9	20202
864.032	20149
864.164	20218
864.296	20199
864.428	20336
864.559	20195
864.691	20180
864.823	20176
864.954	20126
865.086	20225
865.217	20069
865.349	20020
865.48	20043
865.612	20008
865.743	20157
865.875	20172
866.006	20088
866.137	20130
866.269	20111
866.4	20111
866.531	20088
866.662	20005
866.793	19955
866.924	20005
867.055	19955
867.186	19955
867.317	19928
867.448	19986
867.579	19879
867.71	19940
867.841	19932
867.972	20081
868.103	20001
868.233	20100
868.364	20138
868.495	20214
868.625	20336
868.756	20332
868.886	20096
869.017	20214
869.147	20275
869.278	20389
869.408	20309
869.539	20237
869.669	20454
869.799	20233
869.929	20396
870.06	20393
870.19	20613
870.32	20480
870.45	20655
870.58	20701
870.71	20701
870.84	20716
870.97	20678
871.1	20568
871.23	20918
871.36	20872
871.489	20796
871.619	20686
871.749	20910
871.879	20921
872.008	20994
872.138	20857
872.267	20906
872.397	20754
872.526	20716
872.656	20864
872.785	20743
872.915	20990
873.044	20994
873.173	20819
873.303	20956
873.432	20902
873.561	20979
873.69	21032
873.819	20906
873.948	20990
874.077	20956
874.206	20868
874.335	20880
874.464	20933
874.593	21096
874.722	21112
874.851	21199
874.979	21195
875.108	21165
875.237	21081
875.365	21100
875.494	21150
875.623	21249
875.751	21112
875.88	21112
876.008	21389
876.136	21332
876.265	21564
876.393	21595
876.521	21637
876.65	21641
876.778	21606
876.906	21557
877.034	21416
877.162	21473
877.29	21450
877.418	21622
877.546	21511
877.674	21420
877.802	21511
877.93	21530
878.058	21530
878.185	21336
878.313	21473
878.441	21504
878.568	21306
878.696	21405
878.824	21542
878.951	21564
879.079	21679
879.206	21797
879.333	21770
879.461	21496
879.588	21606
879.715	21618
879.842	21816
879.97	21622
880.097	21386
880.224	21386
880.351	21473
880.478	21420
880.605	21260
880.732	21325
880.859	21507
880.986	21393
881.112	21351
881.239	21173
881.366	21085
881.493	21055
881.619	20807
881.746	20975
881.872	20891
881.999	20876
882.125	20701
882.252	21020
882.378	20861
882.505	21051
882.631	20670
882.757	20648
882.883	20708
883.01	20575
883.136	20648
883.262	20571
883.388	20431
883.514	20648
883.64	20667
883.766	20545
883.892	20442
884.018	20412
884.143	20560
884.269	20872
884.395	20358
884.52	20206
884.646	20271
884.772	20240
884.897	20130
885.023	20389
885.148	20351
885.274	20370
885.399	20415
885.524	20328
885.65	20100
885.775	20126
885.9	20419
886.025	20374
886.15	20385
886.275	20237
886.4	20183
886.525	20263
886.65	20172
886.775	20157
886.9	20412
887.025	20457
887.149	20252
887.274	19993
887.399	20005
887.523	20012
887.648	19959
887.773	19997
887.897	20164
888.021	20081
888.146	19955
888.27	20111
888.395	20119
888.519	20039
888.643	20024
888.767	20180
888.891	20031
889.015	19814
889.139	19830
889.263	19738
889.387	19978
889.511	19997
889.635	19986
889.759	19849
889.883	19944
890.006	19818
890.13	20016
890.254	19765
890.377	19879
890.501	19616
890.624	19575
890.748	19540
890.871	19499
890.995	19460
891.118	19335
891.241	19449
891.364	19388
891.488	19567
891.611	19384
891.734	19464
891.857	19525
891.98	19483
892.103	19491
892.226	19468
892.349	19324
892.471	19221
892.594	19346
892.717	19365
892.839	19487
892.962	19396
893.085	19403
893.207	19312
893.33	19362
893.452	19221
893.575	19301
893.697	19365
893.819	19533
893.941	19605
894.064	19449
894.186	19285
894.308	19293
894.43	19453
894.552	19476
894.674	19491
894.796	19228
894.918	19304
895.04	19293
895.161	19483
895.283	19339
895.405	19274
895.526	19407
895.648	19331
895.769	19369
895.891	19476
896.012	19472
896.134	19282
896.255	19308
896.376	19369
896.498	19354
896.619	19324
896.74	19472
896.861	19411
896.982	19731
897.103	19772
897.224	19655
897.345	19590
897.466	19563
897.587	19651
897.708	19811
897.828	19578
897.949	19556
898.07	19422
898.19	19567
898.311	19685
898.431	19514
898.552	19590
898.672	19628
898.792	19658
898.913	19651
899.033	19445
899.153	19472
899.273	19354
899.393	19324
899.513	19472
899.633	19449
899.753	19362
899.873	19247
899.993	19285
900.113	19384
900.232	19255
900.352	19297
900.472	19221
900.591	19152
900.711	19236
900.83	19088
900.95	19263
901.069	19133
901.189	19088
901.308	18837
901.427	18703
901.546	18711
901.665	18802
901.784	18715
901.904	18574
902.023	18540
902.141	18342
902.26	18235
902.379	18330
902.498	18251
902.617	18266
902.735	18270
902.854	18213
902.973	18232
903.091	17802
903.21	17946
903.328	17851
903.446	17923
903.565	17813
903.683	17809
903.801	17699
903.919	17733
904.038	17741
904.156	17558
904.274	17687
904.392	17512
904.51	17429
904.627	17512
904.745	17532
904.863	17570
904.981	17284
905.098	17261
905.216	17273
905.334	17178
905.451	17121
905.569	17254
905.686	17162
905.803	17231
905.921	16968
906.038	17083
906.155	17067
906.272	16767
906.389	16866
906.506	16759
906.623	16713
906.74	16752
906.857	16607
906.974	16577
907.091	16744
907.208	16828
907.324	16782
907.441	16645
907.557	16470
907.674	16497
907.79	16348
907.907	16512
908.023	16580
908.139	16402
908.256	16405
908.372	16344
908.488	16291
908.604	16257
908.72	16116
908.836	16173
908.952	16105
909.068	16223
909.184	16299
909.3	16139
909.415	16040
909.531	16173
909.647	15998
909.762	15903
909.878	15876
909.993	15983
910.108	15930
910.224	15915
910.339	15876
910.454	15755
910.57	15648
910.685	15564
910.8	15979
910.915	15808
911.03	15641
911.145	15580
911.259	15481
911.374	15477
911.489	15515
911.604	15351
911.718	15256
911.833	15230
911.947	15108
912.062	15161
912.176	15272
912.291	15336
912.405	15272
912.519	15389
912.633	15428
912.748	15363
912.862	15256
912.976	15104
913.09	14937
913.204	14994
913.318	15047
913.431	15245
913.545	15150
913.659	15127
913.772	14971
913.886	14918
914	14914
914.113	15036
914.226	14960
914.34	14864
914.453	14819
914.566	14929
914.68	14834
914.793	14788
914.906	14537
915.019	14457
915.132	14408
915.245	14427
915.358	14503
915.47	14571
915.583	14476
915.696	14541
915.809	14571
915.921	14613
916.034	14423
916.146	14396
916.259	14507
916.371	14541
916.483	14571
916.595	14298
916.708	14332
916.82	14347
916.932	14259
917.044	14328
917.156	14301
917.268	14180
917.38	14176
917.491	14237
917.603	14317
917.715	14336
917.826	14294
917.938	14134
918.049	13959
918.161	14161
918.272	14355
918.384	14278
918.495	14218
918.606	14043
918.717	13879
918.828	13974
918.939	13982
919.05	13856
919.161	13894
919.272	13795
919.383	13795
919.494	14012
919.604	14142
919.715	13970
919.826	13822
919.936	13780
920.047	13978
920.157	14016
920.267	14119
920.378	13852
920.488	13978
920.598	14130
920.708	14240
920.818	14149
920.928	14123
921.038	14164
921.148	14130
921.258	13936
921.368	13807
921.477	13712
921.587	13647
921.697	13613
921.806	13700
921.916	13632
922.025	13411
922.134	13400
922.244	13335
922.353	13365
922.462	13263
922.571	13141
922.68	13103
922.789	12943
922.898	13023
923.007	12996
923.116	13038
923.224	13095
923.333	13008
923.442	12825
923.55	12795
923.659	12871
923.767	12909
923.876	12783
923.984	12821
924.092	12658
924.201	12715
924.309	12772
924.417	12787
924.525	12597
924.633	12639
924.741	13605
924.849	12540
924.956	12566
925.064	12502
925.172	12429
925.279	12346
925.387	12407
925.494	12418
925.602	12582
925.709	12517
925.816	12350
925.924	12350
926.031	12517
926.138	12426
926.245	12429
926.352	12205
926.459	12502
926.566	12452
926.673	12376
926.779	12209
926.886	12148
926.993	12098
927.099	11996
927.206	11988
927.312	11958
927.419	12053
927.525	11946
927.631	12079
927.737	11901
927.843	11809
927.95	11767
928.056	11828
928.162	11798
928.267	11863
928.373	12593
928.479	11935
928.585	11714
928.69	11847
928.796	11897
928.901	11703
929.007	11615
929.112	11703
929.218	11634
929.323	11596
929.428	11608
929.533	11748
929.638	11490
929.743	11535
929.848	11501
929.953	11554
930.058	11501
930.163	11258
930.267	11303
930.372	11448
930.477	11337
930.581	11520
930.685	11292
930.79	11201
930.894	11208
930.998	11048
931.103	11349
931.207	10968
931.311	10854
931.415	10733
931.519	10573
931.623	10599
