Data from test_V78500241_3548.txt Node
Date: Fri Mar 25 15:34:33 CST 2022
User: usil
Spectrometer: V785-0024
Trigger mode: 0
Integration Time (sec): 4.000000E-1
Scans to average: 1
Nonlinearity correction enabled: false
Boxcar width: 0
Storing dark spectrum: false
XAxis mode: Wavelengths
Number of Pixels in Spectrum: 1024
>>>>>Begin Spectral Data<<<<<
801.071	27302
801.214	27233
801.356	26940
801.499	26994
801.641	26826
801.783	26792
801.926	26765
802.068	26758
802.211	26876
802.353	26686
802.496	26579
802.638	26575
802.78	26457
802.923	26343
803.065	26389
803.208	26366
803.35	26465
803.492	26568
803.635	26568
803.777	26549
803.919	26663
804.061	26880
804.204	26716
804.346	26568
804.488	26492
804.63	26663
804.773	26727
804.915	26602
805.057	26636
805.199	26423
805.341	26533
805.483	26712
805.626	26598
805.768	26701
805.91	26750
806.052	26788
806.194	26663
806.336	26811
806.478	26788
806.62	26864
806.762	26769
806.904	27013
807.046	27203
807.188	27104
807.33	27108
807.472	27131
807.614	27138
807.756	27074
807.898	26960
808.04	26861
808.182	26971
808.324	26994
808.465	27001
808.607	27138
808.749	27454
808.891	27511
809.033	27450
809.174	27416
809.316	27237
809.458	27416
809.6	27180
809.741	27427
809.883	27397
810.025	27724
810.166	27625
810.308	27534
810.45	27519
810.591	27557
810.733	27340
810.875	27408
811.016	27169
811.158	27332
811.299	27374
811.441	27568
811.582	27511
811.724	27382
811.865	27256
812.007	27222
812.148	27302
812.29	27275
812.431	27469
812.573	27732
812.714	27618
812.855	27743
812.997	27945
813.138	28097
813.279	27827
813.421	27774
813.562	27831
813.703	27641
813.845	27507
813.986	27184
814.127	27173
814.268	26986
814.41	27104
814.551	26975
814.692	27116
814.833	26834
814.974	26891
815.115	26990
815.256	26979
815.397	26720
815.539	26804
815.68	26868
815.821	26750
815.962	26849
816.103	26739
816.244	26659
816.385	26598
816.526	26488
816.666	26324
816.807	26225
816.948	26275
817.089	26343
817.23	26240
817.371	26286
817.512	26332
817.653	26187
817.793	26149
817.934	26206
818.075	26244
818.216	26305
818.356	26256
818.497	26157
818.638	25917
818.778	26073
818.919	26031
819.06	26100
819.2	26077
819.341	26271
819.481	26393
819.622	26404
819.762	26609
819.903	26347
820.043	26412
820.184	26431
820.324	26370
820.465	26374
820.605	26442
820.746	26408
820.886	26214
821.026	26355
821.167	26271
821.307	26290
821.447	26275
821.588	26324
821.728	25966
821.868	25841
822.008	25799
822.149	25807
822.289	25727
822.429	25506
822.569	25377
822.709	25274
822.849	25206
822.99	25247
823.13	25270
823.27	25148
823.41	25129
823.55	24951
823.69	25038
823.83	25095
823.97	25053
824.11	24981
824.25	24840
824.389	24787
824.529	25057
824.669	24935
824.809	25000
824.949	25015
825.089	24920
825.228	25061
825.368	24726
825.508	24753
825.648	24566
825.787	24757
825.927	24821
826.067	24745
826.206	24814
826.346	24962
826.485	24772
826.625	24817
826.765	24905
826.904	24768
827.044	24601
827.183	24517
827.323	24426
827.462	24486
827.601	24589
827.741	24441
827.88	24410
828.02	24372
828.159	24369
828.298	24544
828.437	24578
828.577	24338
828.716	24589
828.855	24395
828.994	24209
829.134	24228
829.273	24270
829.412	24125
829.551	24178
829.69	24114
829.829	24182
829.968	24243
830.107	24163
830.246	24163
830.385	24125
830.524	24186
830.663	23965
830.802	24011
830.941	23874
831.08	23794
831.219	23866
831.357	23828
831.496	24034
831.635	23767
831.774	23646
831.913	23687
832.051	23558
832.19	23604
832.329	23585
832.467	23528
832.606	23429
832.744	23360
832.883	23581
833.022	23482
833.16	23467
833.299	23634
833.437	23524
833.576	23463
833.714	23531
833.852	23547
833.991	23596
834.129	23649
834.267	23634
834.406	23554
834.544	23707
834.682	23554
834.821	23608
834.959	23805
835.097	23497
835.235	23646
835.373	23535
835.511	23547
835.65	23482
835.788	23410
835.926	23315
836.064	23231
836.202	23261
836.34	23482
836.478	23490
836.615	23311
836.753	23402
836.891	23501
837.029	23414
837.167	23376
837.305	23288
837.443	23345
837.58	23315
837.718	23337
837.856	23181
837.993	23208
838.131	23254
838.269	23121
838.406	23151
838.544	23083
838.681	22976
838.819	22820
838.956	22839
839.094	22702
839.231	22774
839.369	22904
839.506	23166
839.643	23033
839.781	22839
839.918	22725
840.055	22706
840.193	22763
840.33	22721
840.467	22767
840.604	22672
840.742	22972
840.879	22615
841.016	22554
841.153	22694
841.29	22733
841.427	22557
841.564	22683
841.701	22504
841.838	22656
841.975	22649
842.112	22550
842.249	22584
842.385	22493
842.522	22592
842.659	22402
842.796	22459
842.933	22470
843.069	22462
843.206	22428
843.343	22428
843.479	22443
843.616	22489
843.752	22154
843.889	22200
844.025	22405
844.162	22200
844.298	22291
844.435	22131
844.571	22135
844.708	22257
844.844	22379
844.98	22333
845.117	22287
845.253	22143
845.389	22090
845.525	22207
845.661	22002
845.798	21888
845.934	21926
846.07	21926
846.206	22006
846.342	21907
846.478	21907
846.614	21789
846.75	21648
846.886	21618
847.022	21743
847.158	21701
847.294	21694
847.429	21717
847.565	21671
847.701	21876
847.837	21298
847.972	21447
848.108	21572
848.244	21504
848.379	21420
848.515	21260
848.65	21241
848.786	21298
848.921	21317
849.057	21359
849.192	21256
849.328	21298
849.463	21332
849.598	21154
849.734	21226
849.869	21066
850.004	21001
850.14	21077
850.275	21089
850.41	20937
850.545	20944
850.68	20994
850.815	21055
850.95	21017
851.085	21291
851.22	21157
851.355	21108
851.49	21013
851.625	21195
851.76	21017
851.895	20986
852.03	20925
852.165	21100
852.299	21108
852.434	20937
852.569	21058
852.703	20971
852.838	20925
852.973	21165
853.107	21055
853.242	20929
853.376	20918
853.511	20743
853.645	20853
853.78	21017
853.914	20777
854.048	20769
854.183	20773
854.317	20921
854.451	21081
854.585	20864
854.72	20952
854.854	20925
854.988	20925
855.122	20838
855.256	20708
855.39	20868
855.524	21070
855.658	20819
855.792	20693
855.926	20800
856.06	20918
856.194	20944
856.327	20918
856.461	20823
856.595	20773
856.729	20823
856.862	20910
856.996	20963
857.13	20842
857.263	21070
857.397	21074
857.53	20906
857.664	20929
857.797	20960
857.931	20952
858.064	20834
858.197	20899
858.331	20910
858.464	20876
858.597	20823
858.731	20777
858.864	20845
858.997	20746
859.13	20864
859.263	20910
859.396	20921
859.529	20876
859.662	20777
859.795	20731
859.928	20777
860.061	21047
860.194	21043
860.327	20807
860.46	20956
860.592	20960
860.725	21066
860.858	20845
860.99	20773
861.123	20845
861.256	20830
861.388	20880
861.521	21717
861.653	20758
861.786	20632
861.918	20629
862.05	20720
862.183	20750
862.315	20636
862.447	20845
862.58	20727
862.712	20545
862.844	20609
862.976	20617
863.108	20712
863.24	20819
863.372	20556
863.504	20488
863.636	20480
863.768	20606
863.9	20583
864.032	20457
864.164	20583
864.296	20571
864.428	20590
864.559	20564
864.691	20720
864.823	20697
864.954	20564
865.086	20568
865.217	20450
865.349	20442
865.48	20549
865.612	20396
865.743	20651
865.875	20541
866.006	20488
866.137	20393
866.269	20446
866.4	20374
866.531	20355
866.662	20336
866.793	20419
866.924	20404
867.055	20377
867.186	20370
867.317	20358
867.448	20286
867.579	20427
867.71	20336
867.841	20294
867.972	20412
868.103	20358
868.233	20507
868.364	20393
868.495	20526
868.625	20613
868.756	20663
868.886	20617
869.017	20549
869.147	20720
869.278	20845
869.408	20712
869.539	20663
869.669	20746
869.799	20716
869.929	20739
870.06	20883
870.19	21043
870.32	20887
870.45	20967
870.58	21119
870.71	21252
870.84	21146
870.97	21085
871.1	20941
871.23	21211
871.36	21283
871.489	21112
871.619	21176
871.749	21272
871.879	21359
872.008	21393
872.138	21393
872.267	21245
872.397	21119
872.526	21096
872.656	21055
872.785	21047
872.915	21367
873.044	21473
873.173	21222
873.303	21393
873.432	21393
873.561	21401
873.69	21351
873.819	21230
873.948	21359
874.077	21249
874.206	21214
874.335	21272
874.464	21355
874.593	21526
874.722	21477
874.851	21507
874.979	21553
875.108	21530
875.237	21530
875.365	21428
875.494	21439
875.623	21553
875.751	21538
875.88	21591
876.008	21682
876.136	21800
876.265	21850
876.393	22010
876.521	22036
876.65	22036
876.778	21926
876.906	21899
877.034	21789
877.162	21911
877.29	21884
877.418	21922
877.546	21945
877.674	21797
877.802	21854
877.93	21907
878.058	21888
878.185	21698
878.313	21888
878.441	21789
878.568	21717
878.696	21812
878.824	21816
878.951	22013
879.079	22051
879.206	22226
879.333	22112
879.461	21941
879.588	22044
879.715	22143
879.842	22067
879.97	21842
880.097	21724
880.224	21724
880.351	21713
880.478	21778
880.605	21709
880.732	21709
880.859	21797
880.986	21732
881.112	21720
881.239	21614
881.366	21359
881.493	21431
881.619	21287
881.746	21355
881.872	21272
881.999	21268
882.125	21176
882.252	21264
882.378	21329
882.505	21450
882.631	21112
882.757	20971
882.883	21058
883.01	21055
883.136	20895
883.262	20902
883.388	20872
883.514	21009
883.64	21066
883.766	20834
883.892	20735
884.018	20758
884.143	20975
884.269	21047
884.395	20765
884.52	20674
884.646	20625
884.772	20659
884.897	20568
885.023	20640
885.148	20689
885.274	20727
885.399	20823
885.524	20689
885.65	20579
885.775	20640
885.9	20590
886.025	20743
886.15	20830
886.275	20583
886.4	20587
886.525	20724
886.65	20609
886.775	20549
886.9	20674
887.025	20826
887.149	20594
887.274	20465
887.399	20370
887.523	20484
887.648	20339
887.773	20309
887.897	20461
888.021	20488
888.146	20305
888.27	20503
888.395	20507
888.519	20412
888.643	20461
888.767	20533
888.891	20286
889.015	20145
889.139	20214
889.263	20149
889.387	20271
889.511	20377
889.635	20313
889.759	20259
889.883	20122
890.006	20164
890.13	20400
890.254	20161
890.377	20081
890.501	20073
890.624	19871
890.748	20081
890.871	19837
890.995	19818
891.118	19689
891.241	19826
891.364	19791
891.488	19818
891.611	19898
891.734	19849
891.857	19689
891.98	19845
892.103	19803
892.226	19765
892.349	19628
892.471	19693
892.594	19727
892.717	19849
892.839	19734
892.962	19769
893.085	19571
893.207	19765
893.33	19548
893.452	19704
893.575	19685
893.697	19719
893.819	19856
893.941	19936
894.064	19833
894.186	19563
894.308	19624
894.43	19788
894.552	19753
894.674	19742
894.796	19582
894.918	19674
895.04	19658
895.161	19772
895.283	19731
895.405	19628
895.526	19658
895.648	19750
895.769	19708
895.891	19734
896.012	19712
896.134	19753
896.255	19734
896.376	19666
896.498	19689
896.619	19833
896.74	19807
896.861	19803
896.982	19898
897.103	20138
897.224	19894
897.345	19989
897.466	19833
897.587	19978
897.708	20103
897.828	20039
897.949	19887
898.07	19833
898.19	19894
898.311	20054
898.431	19883
898.552	19871
898.672	20035
898.792	19940
898.913	19974
899.033	19811
899.153	19696
899.273	19681
899.393	19738
899.513	19696
899.633	19658
899.753	19772
899.873	19563
899.993	19685
900.113	19594
900.232	19685
900.352	19491
900.472	19559
900.591	19312
900.711	19472
900.83	19381
900.95	19632
901.069	19533
901.189	19339
901.308	19076
901.427	18958
901.546	19110
901.665	18996
901.784	18985
901.904	18863
902.023	18871
902.141	18673
902.26	18604
902.379	18696
902.498	18547
902.617	18464
902.735	18692
902.854	18566
902.973	18483
903.091	18243
903.21	18159
903.328	18296
903.446	18186
903.565	18019
903.683	18038
903.801	17920
903.919	18087
904.038	17908
904.156	17866
904.274	17931
904.392	17897
904.51	17786
904.627	17760
904.745	17832
904.863	17882
904.981	17657
905.098	17459
905.216	17429
905.334	17623
905.451	17611
905.569	17414
905.686	17501
905.803	17410
905.921	17277
906.038	17322
906.155	17318
906.272	17197
906.389	17113
906.506	17025
906.623	16987
906.74	16987
906.857	16946
906.974	16919
907.091	17060
907.208	17189
907.324	17048
907.441	16980
907.557	16782
907.674	16847
907.79	16755
907.907	16630
908.023	16771
908.139	16721
908.256	16713
908.372	16615
908.488	16672
908.604	16584
908.72	16478
908.836	16508
908.952	16462
909.068	16478
909.184	16599
909.3	16550
909.415	16538
909.531	16535
909.647	16211
909.762	16242
909.878	16181
909.993	16257
910.108	16219
910.224	16253
910.339	16128
910.454	16059
910.57	15953
910.685	15915
910.8	16268
910.915	16044
911.03	15941
911.145	15907
911.259	15804
911.374	15804
911.489	15827
911.604	15538
911.718	15549
911.833	15557
911.947	15606
912.062	15302
912.176	15549
912.291	15504
912.405	15576
912.519	15759
912.633	15728
912.748	15477
912.862	15439
912.976	15405
913.09	15275
913.204	15222
913.318	15340
913.431	15397
913.545	15416
913.659	15481
913.772	15370
913.886	15108
914	15131
914.113	15283
914.226	15336
914.34	15108
914.453	15077
914.566	15211
914.68	15108
914.793	15093
914.906	14826
915.019	14777
915.132	14819
915.245	14674
915.358	14743
915.47	14720
915.583	14716
915.696	14914
915.809	14880
915.921	14872
916.034	14712
916.146	14705
916.259	14651
916.371	14743
916.483	14754
916.595	14598
916.708	14560
916.82	14575
916.932	14629
917.044	14617
917.156	14598
917.268	14381
917.38	14419
917.491	14473
917.603	14545
917.715	14526
917.826	14530
917.938	14389
918.049	14343
918.161	14286
918.272	14488
918.384	14465
918.495	14374
918.606	14195
918.717	14176
918.828	14259
918.939	14229
919.05	14065
919.161	14183
919.272	13989
919.383	14073
919.494	14240
919.604	14400
919.715	14229
919.826	14054
919.936	14077
920.047	14336
920.157	14134
920.267	14252
920.378	14164
920.488	14138
920.598	14286
920.708	14408
920.818	14278
920.928	14225
921.038	14374
921.148	14465
921.258	14119
921.368	14073
921.477	13921
921.587	13993
921.697	13784
921.806	13997
921.916	13803
922.025	13693
922.134	13567
922.244	13472
922.353	13616
922.462	13506
922.571	13495
922.68	13259
922.789	13213
922.898	13240
923.007	13152
923.116	13198
923.224	13217
923.333	13202
923.442	13065
923.55	13080
923.659	13072
923.767	13053
923.876	13000
923.984	13069
924.092	12905
924.201	13031
924.309	12901
924.417	12958
924.525	12886
924.633	12875
924.741	13616
924.849	12665
924.956	12856
925.064	12707
925.172	12585
925.279	12665
925.387	12673
925.494	12654
925.602	12745
925.709	12677
925.816	12452
925.924	12616
926.031	12696
926.138	12593
926.245	12616
926.352	12456
926.459	12551
926.566	12692
926.673	12517
926.779	12479
926.886	12445
926.993	12205
927.099	12175
927.206	12171
927.312	12167
927.419	12277
927.525	12209
927.631	12220
927.737	12152
927.843	12053
927.95	11942
928.056	12098
928.162	12068
928.267	12057
928.373	12502
928.479	12110
928.585	11794
928.69	12015
928.796	11946
928.901	11908
929.007	11817
929.112	11927
929.218	11870
929.323	11779
929.428	11809
929.533	11923
929.638	11699
929.743	11748
929.848	11779
929.953	11672
930.058	11604
930.163	11455
930.267	11493
930.372	11630
930.477	11444
930.581	11695
930.685	11528
930.79	11349
930.894	11425
930.998	11376
931.103	11433
931.207	11155
931.311	11098
931.415	10980
931.519	10774
931.623	10755
