Data from test_V78500241_1825.txt Node
Date: Fri Mar 25 15:22:33 CST 2022
User: usil
Spectrometer: V785-0024
Trigger mode: 0
Integration Time (sec): 4.000000E-1
Scans to average: 1
Nonlinearity correction enabled: false
Boxcar width: 0
Storing dark spectrum: false
XAxis mode: Wavelengths
Number of Pixels in Spectrum: 1024
>>>>>Begin Spectral Data<<<<<
801.071	27789
801.214	27800
801.356	27511
801.499	27439
801.641	27325
801.783	27420
801.926	27485
802.068	27466
802.211	27359
802.353	27245
802.496	27066
802.638	27028
802.78	27123
802.923	26921
803.065	26842
803.208	26887
803.35	27005
803.492	27180
803.635	27222
803.777	26998
803.919	27252
804.061	27599
804.204	27370
804.346	27203
804.488	27256
804.63	27176
804.773	27222
804.915	27241
805.057	27313
805.199	27161
805.341	27302
805.483	27462
805.626	27195
805.768	27108
805.91	27325
806.052	27351
806.194	27340
806.336	27542
806.478	27302
806.62	27370
806.762	27416
806.904	27644
807.046	27831
807.188	27694
807.33	27625
807.472	27743
807.614	27762
807.756	27759
807.898	27545
808.04	27542
808.182	27542
808.324	27705
808.465	27747
808.607	27785
808.749	27876
808.891	28074
809.033	28147
809.174	28036
809.316	27854
809.458	27861
809.6	27930
809.741	28097
809.883	28135
810.025	28162
810.166	28310
810.308	28268
810.45	28120
810.591	28063
810.733	27892
810.875	28006
811.016	27880
811.158	27759
811.299	27937
811.441	28002
811.582	28055
811.724	28021
811.865	27914
812.007	27778
812.148	27911
812.29	27953
812.431	28154
812.573	28257
812.714	28341
812.855	28432
812.997	28580
813.138	28656
813.279	28683
813.421	28538
813.562	28478
813.703	28272
813.845	28177
813.986	28067
814.127	27709
814.268	27641
814.41	27656
814.551	27705
814.692	27701
814.833	27564
814.974	27587
815.115	27625
815.256	27580
815.397	27686
815.539	27523
815.68	27496
815.821	27363
815.962	27450
816.103	27348
816.244	27405
816.385	27363
816.526	27112
816.666	26967
816.807	26937
816.948	26975
817.089	27036
817.23	26982
817.371	26979
817.512	26929
817.653	26883
817.793	26914
817.934	26811
818.075	26979
818.216	26963
818.356	26864
818.497	26819
818.638	26655
818.778	26655
818.919	26724
819.06	26788
819.2	26705
819.341	27017
819.481	26925
819.622	27077
819.762	27226
819.903	27230
820.043	27058
820.184	26979
820.324	27020
820.465	27032
820.605	26967
820.746	27013
820.886	26963
821.026	27070
821.167	26971
821.307	27039
821.447	26998
821.588	26876
821.728	26712
821.868	26488
822.008	26457
822.149	26549
822.289	26358
822.429	26122
822.569	26062
822.709	26145
822.849	25963
822.99	26005
823.13	25932
823.27	25940
823.41	25746
823.55	25746
823.69	25807
823.83	25822
823.97	25738
824.11	25533
824.25	25487
824.389	25616
824.529	25575
824.669	25586
824.809	25601
824.949	25712
825.089	25563
825.228	25586
825.368	25521
825.508	25438
825.648	25346
825.787	25377
825.927	25563
826.067	25483
826.206	25304
826.346	25479
826.485	25499
826.625	25476
826.765	25491
826.904	25441
827.044	25251
827.183	25247
827.323	25194
827.462	25156
827.601	25213
827.741	25122
827.88	25228
828.02	24920
828.159	25069
828.298	25187
828.437	25171
828.577	25065
828.716	25183
828.855	25088
828.994	24833
829.134	24821
829.273	24954
829.412	24829
829.551	24779
829.69	24837
829.829	24905
829.968	24954
830.107	24916
830.246	24840
830.385	24802
830.524	24627
830.663	24711
830.802	24684
830.941	24429
831.08	24388
831.219	24479
831.357	24582
831.496	24700
831.635	24597
831.774	24426
831.913	24410
832.051	24319
832.19	24323
832.329	24182
832.467	24102
832.606	24125
832.744	24163
832.883	24292
833.022	24041
833.16	24167
833.299	24300
833.437	24148
833.576	24270
833.714	24292
833.852	24323
833.991	24289
834.129	24361
834.267	24247
834.406	24228
834.544	24220
834.682	24254
834.821	24102
834.959	24407
835.097	24110
835.235	24342
835.373	24243
835.511	24194
835.65	24091
835.788	24125
835.926	23946
836.064	23847
836.202	23946
836.34	23992
836.478	24216
836.615	23954
836.753	23988
836.891	24053
837.029	24144
837.167	23999
837.305	24049
837.443	23946
837.58	24011
837.718	23927
837.856	24026
837.993	23714
838.131	23893
838.269	23786
838.406	23908
838.544	23695
838.681	23680
838.819	23611
838.956	23467
839.094	23463
839.231	23444
839.369	23516
839.506	23783
839.643	23558
839.781	23372
839.918	23414
840.055	23353
840.193	23337
840.33	23417
840.467	23448
840.604	23414
840.742	23524
840.879	23079
841.016	23155
841.153	23197
841.29	23493
841.427	23296
841.564	23436
841.701	23269
841.838	23185
841.975	23132
842.112	23140
842.249	23037
842.385	23086
842.522	23280
842.659	23147
842.796	23162
842.933	23102
843.069	22957
843.206	23056
843.343	23048
843.479	23025
843.616	23136
843.752	22915
843.889	22873
844.025	22976
844.162	22839
844.298	22892
844.435	22850
844.571	22915
844.708	22862
844.844	22965
844.98	22862
845.117	22984
845.253	22831
845.389	22706
845.525	22733
845.661	22664
845.798	22584
845.934	22618
846.07	22508
846.206	22512
846.342	22679
846.478	22634
846.614	22268
846.75	22287
846.886	22398
847.022	22405
847.158	22421
847.294	22398
847.429	22306
847.565	22303
847.701	22485
847.837	22105
847.972	22112
848.108	22211
848.244	22105
848.379	21907
848.515	21850
848.65	21937
848.786	21979
848.921	21846
849.057	21972
849.192	21960
849.328	21972
849.463	21838
849.598	21930
849.734	21690
849.869	21819
850.004	21713
850.14	21850
850.275	21717
850.41	21667
850.545	21671
850.68	21629
850.815	21701
850.95	21667
851.085	21979
851.22	21907
851.355	21663
851.49	21633
851.625	21583
851.76	21660
851.895	21542
852.03	21500
852.165	21606
852.299	21614
852.434	21720
852.569	21709
852.703	21728
852.838	21656
852.973	21838
853.107	21709
853.242	21622
853.376	21625
853.511	21329
853.645	21431
853.78	21496
853.914	21523
854.048	21515
854.183	21553
854.317	21587
854.451	21610
854.585	21416
854.72	21504
854.854	21511
854.988	21370
855.122	21447
855.256	21443
855.39	21542
855.524	21595
855.658	21671
855.792	21526
855.926	21454
856.06	21530
856.194	21580
856.327	21428
856.461	21458
856.595	21439
856.729	21500
856.862	21542
856.996	21583
857.13	21644
857.263	21618
857.397	21576
857.53	21473
857.664	21606
857.797	21488
857.931	21641
858.064	21542
858.197	21500
858.331	21515
858.464	21450
858.597	21367
858.731	21367
858.864	21458
858.997	21389
859.13	21389
859.263	21485
859.396	21583
859.529	21450
859.662	21504
859.795	21355
859.928	21405
860.061	21580
860.194	21648
860.327	21473
860.46	21439
860.592	21549
860.725	21739
860.858	21553
860.99	21504
861.123	21363
861.256	21515
861.388	21485
861.521	22116
861.653	21329
861.786	21207
861.918	21374
862.05	21275
862.183	21393
862.315	21370
862.447	21507
862.58	21336
862.712	21252
862.844	21150
862.976	21218
863.108	21233
863.24	21591
863.372	21150
863.504	21165
863.636	21291
863.768	21260
863.9	21058
864.032	21100
864.164	21119
864.296	21211
864.428	21268
864.559	21241
864.691	21313
864.823	21237
864.954	21188
865.086	21199
865.217	21108
865.349	20925
865.48	21051
865.612	21051
865.743	21272
865.875	21032
866.006	21017
866.137	21165
866.269	21028
866.4	21058
866.531	21093
866.662	21039
866.793	21017
866.924	20948
867.055	21176
867.186	20967
867.317	20948
867.448	20876
867.579	20994
867.71	20990
867.841	20933
867.972	21017
868.103	20986
868.233	20971
868.364	20910
868.495	21070
868.625	21325
868.756	21348
868.886	21203
869.017	21192
869.147	21401
869.278	21313
869.408	21340
869.539	21332
869.669	21340
869.799	21306
869.929	21397
870.06	21424
870.19	21610
870.32	21488
870.45	21644
870.58	21675
870.71	21762
870.84	21576
870.97	21644
871.1	21504
871.23	21717
871.36	21888
871.489	21743
871.619	21823
871.749	21865
871.879	21888
872.008	21987
872.138	21835
872.267	21937
872.397	21755
872.526	21667
872.656	21701
872.785	21644
872.915	21880
873.044	21964
873.173	21816
873.303	21945
873.432	21884
873.561	22013
873.69	21827
873.819	21934
873.948	21915
874.077	22002
874.206	21876
874.335	21956
874.464	21983
874.593	22074
874.722	22082
874.851	22192
874.979	22230
875.108	22131
875.237	22032
875.365	22002
875.494	22070
875.623	22101
875.751	22078
875.88	22188
876.008	22196
876.136	22200
876.265	22432
876.393	22748
876.521	22580
876.65	22557
876.778	22504
876.906	22550
877.034	22405
877.162	22500
877.29	22310
877.418	22436
877.546	22363
877.674	22394
877.802	22523
877.93	22436
878.058	22390
878.185	22238
878.313	22485
878.441	22390
878.568	22249
878.696	22432
878.824	22455
878.951	22561
879.079	22660
879.206	22812
879.333	22599
879.461	22447
879.588	22569
879.715	22702
879.842	22736
879.97	22596
880.097	22356
880.224	22211
880.351	22249
880.478	22325
880.605	22086
880.732	22443
880.859	22592
880.986	22329
881.112	22371
881.239	22147
881.366	22074
881.493	22017
881.619	21797
881.746	21918
881.872	21930
881.999	21835
882.125	21766
882.252	21895
882.378	21835
882.505	21911
882.631	21633
882.757	21523
882.883	21572
883.01	21504
883.136	21644
883.262	21336
883.388	21332
883.514	21587
883.64	21622
883.766	21424
883.892	21237
884.018	21264
884.143	21526
884.269	21515
884.395	21165
884.52	21112
884.646	21146
884.772	21173
884.897	21032
885.023	21222
885.148	21180
885.274	21355
885.399	21275
885.524	21321
885.65	21161
885.775	21081
885.9	21218
886.025	21367
886.15	21428
886.275	21241
886.4	21020
886.525	21165
886.65	21020
886.775	21062
886.9	21211
887.025	21374
887.149	21074
887.274	21108
887.399	21009
887.523	20937
887.648	20857
887.773	20902
887.897	20967
888.021	20887
888.146	20830
888.27	21062
888.395	20994
888.519	20937
888.643	21005
888.767	21017
888.891	20899
889.015	20769
889.139	20807
889.263	20705
889.387	20883
889.511	20956
889.635	20834
889.759	20686
889.883	20674
890.006	20739
890.13	20891
890.254	20629
890.377	20769
890.501	20651
890.624	20545
890.748	20533
890.871	20450
890.995	20313
891.118	20244
891.241	20408
891.364	20244
891.488	20522
891.611	20343
891.734	20484
891.857	20431
891.98	20389
892.103	20412
892.226	20259
892.349	20153
892.471	20122
892.594	20370
892.717	20252
892.839	20199
892.962	20221
893.085	20259
893.207	20183
893.33	20153
893.452	20134
893.575	20313
893.697	20267
893.819	20332
893.941	20454
894.064	20339
894.186	20210
894.308	20035
894.43	20187
894.552	20381
894.674	20229
894.796	20130
894.918	20206
895.04	20168
895.161	20233
895.283	20218
895.405	20092
895.526	20195
895.648	20183
895.769	20142
895.891	20187
896.012	20267
896.134	20191
896.255	20107
896.376	20229
896.498	20145
896.619	20199
896.74	20134
896.861	20210
896.982	20522
897.103	20636
897.224	20488
897.345	20362
897.466	20362
897.587	20336
897.708	20488
897.828	20476
897.949	20278
898.07	20339
898.19	20282
898.311	20526
898.431	20419
898.552	20495
898.672	20484
898.792	20450
898.913	20438
899.033	20256
899.153	20149
899.273	20176
899.393	20172
899.513	20259
899.633	20111
899.753	20278
899.873	20084
899.993	20206
900.113	20161
900.232	20107
900.352	20058
900.472	20084
900.591	19849
900.711	19974
900.83	19818
900.95	20081
901.069	20001
901.189	19807
901.308	19582
901.427	19533
901.546	19533
901.665	19537
901.784	19438
901.904	19476
902.023	19297
902.141	19145
902.26	19023
902.379	19168
902.498	18954
902.617	18977
902.735	19084
902.854	19004
902.973	18837
903.091	18707
903.21	18798
903.328	18837
903.446	18544
903.565	18574
903.683	18479
903.801	18433
903.919	18612
904.038	18388
904.156	18330
904.274	18315
904.392	18220
904.51	18338
904.627	18277
904.745	18369
904.863	18201
904.981	18060
905.098	17935
905.216	17878
905.334	17889
905.451	18003
905.569	18007
905.686	17939
905.803	17927
905.921	17764
906.038	17760
906.155	17764
906.272	17566
906.389	17737
906.506	17589
906.623	17414
906.74	17410
906.857	17322
906.974	17391
907.091	17634
907.208	17657
907.324	17493
907.441	17459
907.557	17254
907.674	17303
907.79	17109
907.907	17220
908.023	17280
908.139	17185
908.256	17159
908.372	17048
908.488	17098
908.604	16938
908.72	16953
908.836	16892
908.952	16858
909.068	16847
909.184	16995
909.3	16908
909.415	16858
909.531	16927
909.647	16626
909.762	16733
909.878	16656
909.993	16542
910.108	16630
910.224	16554
910.339	16615
910.454	16516
910.57	16451
910.685	16402
910.8	16580
910.915	16634
911.03	16500
911.145	16371
911.259	16284
911.374	16291
911.489	16036
911.604	16029
911.718	16002
911.833	15945
911.947	15915
912.062	15690
912.176	15930
912.291	15934
912.405	15941
912.519	16173
912.633	16112
912.748	15949
912.862	15888
912.976	15876
913.09	15637
913.204	15751
913.318	15808
913.431	15903
913.545	15762
913.659	15880
913.772	15671
913.886	15534
914	15500
914.113	15709
914.226	15694
914.34	15622
914.453	15408
914.566	15557
914.68	15466
914.793	15488
914.906	15291
915.019	15188
915.132	15173
915.245	15275
915.358	15131
915.47	15211
915.583	15188
915.696	15218
915.809	15268
915.921	15272
916.034	15135
916.146	15097
916.259	15020
916.371	15169
916.483	15032
916.595	15085
916.708	15009
916.82	14982
916.932	14990
917.044	14960
917.156	14944
917.268	14823
917.38	14838
917.491	14769
917.603	14769
917.715	14948
917.826	14933
917.938	14830
918.049	14636
918.161	14845
918.272	15036
918.384	15005
918.495	14765
918.606	14670
918.717	14621
918.828	14575
918.939	14587
919.05	14484
919.161	14514
919.272	14339
919.383	14412
919.494	14629
919.604	14765
919.715	14602
919.826	14537
919.936	14488
920.047	14610
920.157	14579
920.267	14716
920.378	14530
920.488	14522
920.598	14731
920.708	14800
920.818	14625
920.928	14674
921.038	14811
921.148	14777
921.258	14476
921.368	14313
921.477	14309
921.587	14256
921.697	14214
921.806	14290
921.916	14092
922.025	14111
922.134	13986
922.244	13883
922.353	13970
922.462	13837
922.571	13750
922.68	13601
922.789	13556
922.898	13586
923.007	13514
923.116	13605
923.224	13525
923.333	13464
923.442	13460
923.55	13426
923.659	13407
923.767	13499
923.876	13320
923.984	13460
924.092	13354
924.201	13304
924.309	13247
924.417	13339
924.525	13202
924.633	13206
924.741	14107
924.849	13069
924.956	13190
925.064	13038
925.172	13050
925.279	12901
925.387	12962
925.494	12897
925.602	13069
925.709	13034
925.816	12886
925.924	12905
926.031	12985
926.138	12928
926.245	12981
926.352	12897
926.459	12928
926.566	13038
926.673	12875
926.779	12684
926.886	12783
926.993	12551
927.099	12528
927.206	12437
927.312	12414
927.419	12532
927.525	12509
927.631	12566
927.737	12509
927.843	12407
927.95	12254
928.056	12350
928.162	12350
928.267	12399
928.373	12977
928.479	12426
928.585	12178
928.69	12330
928.796	12330
928.901	12178
929.007	12015
929.112	12235
929.218	12201
929.323	12110
929.428	12026
929.533	12213
929.638	12019
929.743	12072
929.848	12140
929.953	12068
930.058	11927
930.163	11710
930.267	11756
930.372	11996
930.477	11786
930.581	11973
930.685	11866
930.79	11668
930.894	11771
930.998	11623
931.103	11718
931.207	11455
931.311	11326
931.415	11265
931.519	11128
931.623	11166
