Data from test_V78500241_2242.txt Node
Date: Fri Mar 25 15:25:28 CST 2022
User: usil
Spectrometer: V785-0024
Trigger mode: 0
Integration Time (sec): 4.000000E-1
Scans to average: 1
Nonlinearity correction enabled: false
Boxcar width: 0
Storing dark spectrum: false
XAxis mode: Wavelengths
Number of Pixels in Spectrum: 1024
>>>>>Begin Spectral Data<<<<<
801.071	27675
801.214	27785
801.356	27496
801.499	27408
801.641	27405
801.783	27382
801.926	27351
802.068	27370
802.211	27386
802.353	27313
802.496	27058
802.638	27108
802.78	27047
802.923	26944
803.065	26902
803.208	26986
803.35	27070
803.492	27211
803.635	27180
803.777	27024
803.919	27127
804.061	27641
804.204	27176
804.346	27093
804.488	27104
804.63	27165
804.773	27085
804.915	27268
805.057	27154
805.199	27211
805.341	27218
805.483	27249
805.626	27336
805.768	27332
805.91	27233
806.052	27367
806.194	27214
806.336	27424
806.478	27275
806.62	27340
806.762	27507
806.904	27644
807.046	27728
807.188	27747
807.33	27770
807.472	27686
807.614	27736
807.756	27656
807.898	27458
808.04	27583
808.182	27496
808.324	27660
808.465	27705
808.607	27812
808.749	28048
808.891	27991
809.033	28207
809.174	27964
809.316	27869
809.458	27899
809.6	27911
809.741	28082
809.883	28002
810.025	28097
810.166	28234
810.308	28344
810.45	28128
810.591	28181
810.733	27983
810.875	27994
811.016	27907
811.158	27739
811.299	27914
811.441	28105
811.582	28029
811.724	28032
811.865	27964
812.007	27930
812.148	27945
812.29	27968
812.431	28120
812.573	28417
812.714	28432
812.855	28371
812.997	28584
813.138	28641
813.279	28668
813.421	28478
813.562	28398
813.703	28200
813.845	28249
813.986	27934
814.127	27755
814.268	27675
814.41	27705
814.551	27751
814.692	27838
814.833	27587
814.974	27663
815.115	27629
815.256	27595
815.397	27458
815.539	27496
815.68	27370
815.821	27306
815.962	27439
816.103	27420
816.244	27310
816.385	27344
816.526	27241
816.666	27081
816.807	26960
816.948	27077
817.089	27070
817.23	27028
817.371	26838
817.512	26921
817.653	26982
817.793	26845
817.934	27005
818.075	26929
818.216	26842
818.356	26952
818.497	26773
818.638	26476
818.778	26636
818.919	26724
819.06	26708
819.2	26727
819.341	26868
819.481	26853
819.622	26872
819.762	27104
819.903	27138
820.043	27013
820.184	26971
820.324	27116
820.465	27146
820.605	27001
820.746	26990
820.886	26830
821.026	27009
821.167	27047
821.307	27077
821.447	26861
821.588	26792
821.728	26632
821.868	26537
822.008	26282
822.149	26377
822.289	26343
822.429	26142
822.569	26149
822.709	26008
822.849	25761
822.99	25784
823.13	25814
823.27	25807
823.41	25753
823.55	25529
823.69	25689
823.83	25655
823.97	25643
824.11	25449
824.25	25346
824.389	25415
824.529	25548
824.669	25552
824.809	25704
824.949	25533
825.089	25506
825.228	25533
825.368	25358
825.508	25384
825.648	25335
825.787	25426
825.927	25415
826.067	25175
826.206	25438
826.346	25350
826.485	25327
826.625	25460
826.765	25575
826.904	25388
827.044	25251
827.183	25171
827.323	25015
827.462	25057
827.601	25190
827.741	25076
827.88	25088
828.02	24916
828.159	24905
828.298	25034
828.437	25061
828.577	24916
828.716	25046
828.855	25118
828.994	24837
829.134	24734
829.273	24783
829.412	24669
829.551	24665
829.69	24703
829.829	24825
829.968	24779
830.107	24787
830.246	24795
830.385	24612
830.524	24745
830.663	24688
830.802	24505
830.941	24376
831.08	24414
831.219	24403
831.357	24437
831.496	24623
831.635	24380
831.774	24254
831.913	24239
832.051	24144
832.19	24167
832.329	24083
832.467	24098
832.606	23984
832.744	23912
832.883	24076
833.022	23992
833.16	24068
833.299	24232
833.437	24064
833.576	24095
833.714	23992
833.852	24174
833.991	24091
834.129	24266
834.267	24178
834.406	24178
834.544	24121
834.682	24076
834.821	24121
834.959	24254
835.097	24064
835.235	24232
835.373	23965
835.511	24121
835.65	23897
835.788	23923
835.926	23878
836.064	23729
836.202	23764
836.34	23965
836.478	23965
836.615	23973
836.753	23897
836.891	24041
837.029	23798
837.167	24011
837.305	23760
837.443	23802
837.58	23832
837.718	23824
837.856	23843
837.993	23756
838.131	23737
838.269	23547
838.406	23596
838.544	23577
838.681	23474
838.819	23398
838.956	23254
839.094	23280
839.231	23299
839.369	23490
839.506	23767
839.643	23497
839.781	23235
839.918	23208
840.055	23197
840.193	23189
840.33	23174
840.467	23174
840.604	23197
840.742	23387
840.879	22972
841.016	23109
841.153	22965
841.29	23159
841.427	23064
841.564	23162
841.701	23113
841.838	23216
841.975	23083
842.112	23003
842.249	23018
842.385	22949
842.522	23109
842.659	22934
842.796	22904
842.933	22972
843.069	22862
843.206	22938
843.343	22953
843.479	22835
843.616	22850
843.752	22554
843.889	22767
844.025	22767
844.162	22668
844.298	22816
844.435	22694
844.571	22656
844.708	22733
844.844	22858
844.98	22774
845.117	22771
845.253	22542
845.389	22668
845.525	22622
845.661	22512
845.798	22386
845.934	22493
846.07	22413
846.206	22348
846.342	22470
846.478	22489
846.614	22223
846.75	22150
846.886	22166
847.022	22188
847.158	22154
847.294	22101
847.429	22223
847.565	22162
847.701	22394
847.837	22025
847.972	21838
848.108	21972
848.244	21880
848.379	21690
848.515	21648
848.65	21637
848.786	21717
848.921	21800
849.057	21880
849.192	21762
849.328	21717
849.463	21793
849.598	21690
849.734	21652
849.869	21515
850.004	21454
850.14	21530
850.275	21591
850.41	21485
850.545	21310
850.68	21511
850.815	21580
850.95	21595
851.085	21641
851.22	21591
851.355	21530
851.49	21462
851.625	21435
851.76	21542
851.895	21439
852.03	21298
852.165	21370
852.299	21568
852.434	21587
852.569	21450
852.703	21507
852.838	21534
852.973	21622
853.107	21637
853.242	21481
853.376	21348
853.511	21119
853.645	21222
853.78	21462
853.914	21374
854.048	21256
854.183	21428
854.317	21336
854.451	21526
854.585	21298
854.72	21374
854.854	21382
854.988	21245
855.122	21344
855.256	21252
855.39	21302
855.524	21477
855.658	21363
855.792	21302
855.926	21378
856.06	21374
856.194	21363
856.327	21317
856.461	21287
856.595	21176
856.729	21268
856.862	21439
856.996	21389
857.13	21310
857.263	21599
857.397	21500
857.53	21344
857.664	21313
857.797	21260
857.931	21507
858.064	21393
858.197	21454
858.331	21325
858.464	21359
858.597	21329
858.731	21294
858.864	21325
858.997	21363
859.13	21268
859.263	21355
859.396	21408
859.529	21348
859.662	21294
859.795	21275
859.928	21260
860.061	21458
860.194	21488
860.327	21424
860.46	21268
860.592	21488
860.725	21557
860.858	21526
860.99	21382
861.123	21321
861.256	21351
861.388	21317
861.521	22025
861.653	21256
861.786	21135
861.918	21203
862.05	21188
862.183	21241
862.315	21161
862.447	21386
862.58	21325
862.712	21062
862.844	21047
862.976	21150
863.108	21112
863.24	21504
863.372	21055
863.504	21112
863.636	21104
863.768	21100
863.9	21062
864.032	20960
864.164	21081
864.296	21100
864.428	21123
864.559	21085
864.691	21089
864.823	21093
864.954	20925
865.086	20990
865.217	20876
865.349	20902
865.48	21032
865.612	20906
865.743	21135
865.875	20910
866.006	20914
866.137	20838
866.269	21024
866.4	20853
866.531	20845
866.662	20853
866.793	20948
866.924	20914
867.055	20952
867.186	20929
867.317	20925
867.448	20952
867.579	20830
867.71	20800
867.841	20724
867.972	20899
868.103	20815
868.233	20887
868.364	20777
868.495	20944
868.625	21131
868.756	21214
868.886	21036
869.017	21165
869.147	21291
869.278	21291
869.408	21306
869.539	21081
869.669	21249
869.799	21188
869.929	21150
870.06	21199
870.19	21416
870.32	21424
870.45	21405
870.58	21439
870.71	21599
870.84	21629
870.97	21488
871.1	21534
871.23	21644
871.36	21671
871.489	21663
871.619	21663
871.749	21804
871.879	21720
872.008	21835
872.138	21739
872.267	21717
872.397	21583
872.526	21530
872.656	21644
872.785	21572
872.915	21625
873.044	21854
873.173	21717
873.303	21739
873.432	21842
873.561	21808
873.69	21857
873.819	21804
873.948	21819
874.077	21686
874.206	21671
874.335	21701
874.464	21926
874.593	22067
874.722	21998
874.851	22090
874.979	21865
875.108	22051
875.237	21892
875.365	21835
875.494	21953
875.623	22055
875.751	21915
875.88	21930
876.008	22166
876.136	22143
876.265	22322
876.393	22481
876.521	22417
876.65	22436
876.778	22333
876.906	22295
877.034	22253
877.162	22367
877.29	22394
877.418	22268
877.546	22322
877.674	22306
877.802	22440
877.93	22249
878.058	22181
878.185	22143
878.313	22257
878.441	22188
878.568	22074
878.696	22211
878.824	22246
878.951	22451
879.079	22424
879.206	22626
879.333	22481
879.461	22303
879.588	22405
879.715	22466
879.842	22459
879.97	22417
880.097	22173
880.224	22109
880.351	22196
880.478	22234
880.605	22150
880.732	22116
880.859	22356
880.986	22204
881.112	22150
881.239	21876
881.366	21819
881.493	21751
881.619	21694
881.746	21789
881.872	21603
881.999	21739
882.125	21580
882.252	21751
882.378	21660
882.505	21728
882.631	21496
882.757	21397
882.883	21549
883.01	21332
883.136	21279
883.262	21195
883.388	21180
883.514	21344
883.64	21462
883.766	21310
883.892	21195
884.018	21211
884.143	21420
884.269	21386
884.395	21154
884.52	21032
884.646	21081
884.772	21074
884.897	20967
885.023	20921
885.148	21093
885.274	21127
885.399	21165
885.524	20994
885.65	21036
885.775	21074
885.9	21036
886.025	21184
886.15	21093
886.275	20979
886.4	20933
886.525	20967
886.65	21005
886.775	21089
886.9	21036
887.025	21222
887.149	20986
887.274	20944
887.399	20785
887.523	20712
887.648	20762
887.773	20868
887.897	20861
888.021	20910
888.146	20701
888.27	20796
888.395	20902
888.519	20853
888.643	20739
888.767	20906
888.891	20743
889.015	20648
889.139	20670
889.263	20533
889.387	20773
889.511	20769
889.635	20785
889.759	20655
889.883	20473
890.006	20545
890.13	20518
890.254	20526
890.377	20549
890.501	20396
890.624	20298
890.748	20461
890.871	20282
890.995	20225
891.118	20065
891.241	20221
891.364	20248
891.488	20336
891.611	20206
891.734	20111
891.857	20317
891.98	20062
892.103	20214
892.226	20187
892.349	20077
892.471	19849
892.594	20073
892.717	20134
892.839	20084
892.962	20176
893.085	20161
893.207	20031
893.33	19989
893.452	20069
893.575	20069
893.697	19982
893.819	20168
893.941	20290
894.064	20221
894.186	19944
894.308	20039
894.43	20271
894.552	20244
894.674	20115
894.796	19993
894.918	20046
895.04	20031
895.161	20107
895.283	20073
895.405	20043
895.526	19944
895.648	20062
895.769	20062
895.891	20157
896.012	20084
896.134	19967
896.255	20122
896.376	20020
896.498	20130
896.619	20062
896.74	20043
896.861	20115
896.982	20393
897.103	20381
897.224	20343
897.345	20225
897.466	20263
897.587	20298
897.708	20476
897.828	20339
897.949	20221
898.07	20233
898.19	20290
898.311	20393
898.431	20142
898.552	20267
898.672	20248
898.792	20351
898.913	20282
899.033	20282
899.153	20157
899.273	19970
899.393	20050
899.513	20161
899.633	20168
899.753	19978
899.873	19993
899.993	20103
900.113	19978
900.232	20005
900.352	19978
900.472	19978
900.591	19753
900.711	19898
900.83	19799
900.95	19883
901.069	20001
901.189	19731
901.308	19460
901.427	19403
901.546	19381
901.665	19304
901.784	19445
901.904	19278
902.023	19209
902.141	18935
902.26	19012
902.379	19015
902.498	18924
902.617	18924
902.735	18981
902.854	18932
902.973	18840
903.091	18692
903.21	18589
903.328	18688
903.446	18635
903.565	18464
903.683	18384
903.801	18418
903.919	18311
904.038	18327
904.156	18186
904.274	18391
904.392	18117
904.51	18163
904.627	18106
904.745	18213
904.863	18262
904.981	17942
905.098	17832
905.216	17946
905.334	17882
905.451	17908
905.569	17802
905.686	17836
905.803	17874
905.921	17592
906.038	17840
906.155	17718
906.272	17493
906.389	17516
906.506	17414
906.623	17364
906.74	17303
906.857	17265
906.974	17307
907.091	17379
907.208	17433
907.324	17402
907.441	17296
907.557	17239
907.674	17117
907.79	17079
907.907	16995
908.023	17052
908.139	16991
908.256	16972
908.372	16923
908.488	16957
908.604	16873
908.72	16839
908.836	16923
908.952	16782
909.068	16744
909.184	16869
909.3	16866
909.415	16790
909.531	16752
909.647	16573
909.762	16443
909.878	16428
909.993	16508
910.108	16504
910.224	16489
910.339	16405
910.454	16382
910.57	16295
910.685	16280
910.8	16538
910.915	16436
911.03	16268
911.145	16215
911.259	16101
911.374	16101
911.489	15979
911.604	15991
911.718	15713
911.833	16017
911.947	15804
912.062	15614
912.176	15911
912.291	15865
912.405	15793
912.519	15994
912.633	15972
912.748	15808
912.862	15869
912.976	15686
913.09	15538
913.204	15648
913.318	15713
913.431	15732
913.545	15778
913.659	15770
913.772	15759
913.886	15534
914	15466
914.113	15614
914.226	15625
914.34	15633
914.453	15332
914.566	15538
914.68	15367
914.793	15283
914.906	15207
915.019	15180
915.132	15047
915.245	15135
915.358	15138
915.47	15077
915.583	15150
915.696	15119
915.809	15146
915.921	15222
916.034	14952
916.146	14895
916.259	14902
916.371	15097
916.483	15051
916.595	14944
916.708	14872
916.82	14880
916.932	14807
917.044	14830
917.156	14781
917.268	14781
917.38	14781
917.491	14716
917.603	14697
917.715	14807
917.826	14739
917.938	14697
918.049	14575
918.161	14746
918.272	14773
918.384	14842
918.495	14537
918.606	14549
918.717	14442
918.828	14537
918.939	14408
919.05	14374
919.161	14495
919.272	14233
919.383	14362
919.494	14533
919.604	14590
919.715	14511
919.826	14415
919.936	14393
920.047	14465
920.157	14476
920.267	14560
920.378	14522
920.488	14400
920.598	14606
920.708	14777
920.818	14560
920.928	14522
921.038	14606
921.148	14670
921.258	14431
921.368	14248
921.477	14180
921.587	14206
921.697	14024
921.806	14142
921.916	14115
922.025	13906
922.134	13791
922.244	13708
922.353	13807
922.462	13780
922.571	13552
922.68	13480
922.789	13460
922.898	13495
923.007	13491
923.116	13483
923.224	13438
923.333	13460
923.442	13407
923.55	13308
923.659	13339
923.767	13339
923.876	13217
923.984	13274
924.092	13160
924.201	13240
924.309	13297
924.417	13129
924.525	13122
924.633	13164
924.741	13909
924.849	12966
924.956	13156
925.064	12859
925.172	12848
925.279	12863
925.387	12863
925.494	12837
925.602	12905
925.709	12947
925.816	12768
925.924	12878
926.031	12951
926.138	12829
926.245	12932
926.352	12798
926.459	12913
926.566	12878
926.673	12738
926.779	12681
926.886	12578
926.993	12513
927.099	12467
927.206	12456
927.312	12361
927.419	12464
927.525	12456
927.631	12407
927.737	12376
927.843	12277
927.95	12251
928.056	12239
928.162	12273
928.267	12353
928.373	12901
928.479	12403
928.585	12057
928.69	12292
928.796	12243
928.901	12186
929.007	11901
929.112	12106
929.218	12136
929.323	12007
929.428	12022
929.533	12136
929.638	11954
929.743	11920
929.848	11996
929.953	11912
930.058	11836
930.163	11699
930.267	11767
930.372	11794
930.477	11665
930.581	11866
930.685	11710
930.79	11512
930.894	11688
930.998	11611
931.103	11699
931.207	11307
931.311	11227
931.415	11166
931.519	10999
931.623	10965
