Data from test_V78500241_2964.txt Node
Date: Fri Mar 25 15:30:29 CST 2022
User: usil
Spectrometer: V785-0024
Trigger mode: 0
Integration Time (sec): 4.000000E-1
Scans to average: 1
Nonlinearity correction enabled: false
Boxcar width: 0
Storing dark spectrum: false
XAxis mode: Wavelengths
Number of Pixels in Spectrum: 1024
>>>>>Begin Spectral Data<<<<<
801.071	26781
801.214	26914
801.356	26556
801.499	26484
801.641	26476
801.783	26336
801.926	26499
802.068	26484
802.211	26263
802.353	26119
802.496	26084
802.638	26012
802.78	26005
802.923	25864
803.065	25978
803.208	25826
803.35	25966
803.492	26187
803.635	26107
803.777	26024
803.919	26142
804.061	26385
804.204	26233
804.346	26031
804.488	26100
804.63	26024
804.773	26024
804.915	26096
805.057	26252
805.199	26138
805.341	26096
805.483	26233
805.626	26240
805.768	26138
805.91	26233
806.052	26313
806.194	26187
806.336	26374
806.478	26168
806.62	26214
806.762	26377
806.904	26408
807.046	26777
807.188	26796
807.33	26686
807.472	26739
807.614	26587
807.756	26697
807.898	26453
808.04	26442
808.182	26370
808.324	26396
808.465	26609
808.607	26781
808.749	26864
808.891	26758
809.033	26807
809.174	26785
809.316	26872
809.458	26895
809.6	26613
809.741	26937
809.883	26944
810.025	27058
810.166	27036
810.308	27146
810.45	26979
810.591	27070
810.733	26773
810.875	26906
811.016	26663
811.158	26765
811.299	26944
811.441	26990
811.582	26952
811.724	26826
811.865	26743
812.007	26823
812.148	26769
812.29	26716
812.431	26868
812.573	27081
812.714	27096
812.855	27317
812.997	27344
813.138	27530
813.279	27420
813.421	27157
813.562	27256
813.703	27039
813.845	26906
813.986	26682
814.127	26545
814.268	26465
814.41	26434
814.551	26427
814.692	26537
814.833	26385
814.974	26469
815.115	26434
815.256	26267
815.397	26298
815.539	26286
815.68	26180
815.821	26233
815.962	26248
816.103	26142
816.244	26005
816.385	26001
816.526	25887
816.666	25738
816.807	25647
816.948	25776
817.089	25776
817.23	25746
817.371	25689
817.512	25715
817.653	25578
817.793	25518
817.934	25750
818.075	25632
818.216	25776
818.356	25666
818.497	25677
818.638	25388
818.778	25426
818.919	25369
819.06	25514
819.2	25582
819.341	25681
819.481	25628
819.622	25753
819.762	25959
819.903	25936
820.043	25849
820.184	25799
820.324	25670
820.465	25791
820.605	25814
820.746	25658
820.886	25586
821.026	25647
821.167	25651
821.307	25898
821.447	25552
821.588	25533
821.728	25483
821.868	25324
822.008	25168
822.149	25088
822.289	25015
822.429	24932
822.569	24787
822.709	24711
822.849	24692
822.99	24650
823.13	24604
823.27	24509
823.41	24262
823.55	24300
823.69	24483
823.83	24388
823.97	24338
824.11	24235
824.25	24174
824.389	24239
824.529	24304
824.669	24281
824.809	24311
824.949	24262
825.089	24281
825.228	24171
825.368	24072
825.508	24038
825.648	24194
825.787	24205
825.927	24083
826.067	23992
826.206	24049
826.346	24243
826.485	24095
826.625	24133
826.765	24148
826.904	24018
827.044	23843
827.183	23847
827.323	23790
827.462	23805
827.601	23638
827.741	23687
827.88	23764
828.02	23687
828.159	23718
828.298	23874
828.437	23855
828.577	23737
828.716	23889
828.855	23718
828.994	23440
829.134	23558
829.273	23501
829.412	23364
829.551	23414
829.69	23425
829.829	23490
829.968	23623
830.107	23528
830.246	23398
830.385	23471
830.524	23349
830.663	23307
830.802	23159
830.941	23109
831.08	23090
831.219	23105
831.357	23204
831.496	23433
831.635	23155
831.774	23033
831.913	22938
832.051	22942
832.19	22847
832.329	22919
832.467	22763
832.606	22740
832.744	22793
832.883	22748
833.022	22854
833.16	22858
833.299	22816
833.437	22854
833.576	22923
833.714	22831
833.852	22839
833.991	22858
834.129	22873
834.267	22797
834.406	22843
834.544	22900
834.682	22915
834.821	22820
834.959	22984
835.097	22862
835.235	22793
835.373	22881
835.511	22793
835.65	22687
835.788	22637
835.926	22523
836.064	22489
836.202	22577
836.34	22611
836.478	22812
836.615	22611
836.753	22626
836.891	22744
837.029	22782
837.167	22702
837.305	22618
837.443	22523
837.58	22485
837.718	22729
837.856	22455
837.993	22356
838.131	22478
838.269	22344
838.406	22424
838.544	22356
838.681	22139
838.819	22093
838.956	22063
839.094	22063
839.231	21987
839.369	22074
839.506	22436
839.643	22215
839.781	21975
839.918	22063
840.055	22109
840.193	21979
840.33	21759
840.467	21987
840.604	22002
840.742	22101
840.879	21823
841.016	21865
841.153	21793
841.29	22002
841.427	21808
841.564	21922
841.701	21953
841.838	21850
841.975	21907
842.112	21915
842.249	21751
842.385	21690
842.522	21892
842.659	21850
842.796	21644
842.933	21743
843.069	21614
843.206	21717
843.343	21774
843.479	21694
843.616	21561
843.752	21519
843.889	21492
844.025	21660
844.162	21355
844.298	21557
844.435	21435
844.571	21447
844.708	21405
844.844	21625
844.98	21507
845.117	21530
845.253	21363
845.389	21374
845.525	21454
845.661	21344
845.798	21188
845.934	21336
846.07	21135
846.206	21218
846.342	21386
846.478	21237
846.614	20982
846.75	20830
846.886	20758
847.022	20956
847.158	20834
847.294	20956
847.429	21051
847.565	20918
847.701	21096
847.837	20629
847.972	20689
848.108	20800
848.244	20750
848.379	20583
848.515	20431
848.65	20488
848.786	20400
848.921	20374
849.057	20663
849.192	20606
849.328	20609
849.463	20617
849.598	20396
849.734	20374
849.869	20351
850.004	20298
850.14	20408
850.275	20294
850.41	20320
850.545	20290
850.68	20317
850.815	20347
850.95	20233
851.085	20400
851.22	20358
851.355	20362
851.49	20240
851.625	20351
851.76	20362
851.895	20290
852.03	20149
852.165	20187
852.299	20393
852.434	20385
852.569	20259
852.703	20286
852.838	20427
852.973	20415
853.107	20381
853.242	20202
853.376	20168
853.511	19997
853.645	20050
853.78	20206
853.914	20046
854.048	19993
854.183	20096
854.317	20107
854.451	20221
854.585	20149
854.72	20088
854.854	20119
854.988	20103
855.122	20065
855.256	20073
855.39	20195
855.524	20130
855.658	20221
855.792	20145
855.926	20164
856.06	20191
856.194	20157
856.327	20149
856.461	20100
856.595	20027
856.729	20180
856.862	20191
856.996	20103
857.13	20229
857.263	20229
857.397	20248
857.53	20244
857.664	20214
857.797	20176
857.931	20199
858.064	20084
858.197	20313
858.331	20031
858.464	20145
858.597	19909
858.731	20122
858.864	20054
858.997	20062
859.13	20008
859.263	20103
859.396	20275
859.529	19928
859.662	20100
859.795	20073
859.928	20100
860.061	20298
860.194	20305
860.327	20122
860.46	20084
860.592	20138
860.725	20347
860.858	20374
860.99	20092
861.123	20008
861.256	20062
861.388	20043
861.521	20693
861.653	19986
861.786	19852
861.918	20024
862.05	20050
862.183	20096
862.315	20035
862.447	20092
862.58	20062
862.712	19894
862.844	19826
862.976	19906
863.108	19902
863.24	20286
863.372	19871
863.504	19890
863.636	19818
863.768	19803
863.9	19761
864.032	19906
864.164	19811
864.296	19894
864.428	19868
864.559	19902
864.691	19917
864.823	19852
864.954	19746
865.086	19837
865.217	19666
865.349	19670
865.48	19746
865.612	19734
865.743	19814
865.875	19704
866.006	19776
866.137	19734
866.269	19769
866.4	19609
866.531	19609
866.662	19590
866.793	19719
866.924	19803
867.055	19601
867.186	19681
867.317	19662
867.448	19639
867.579	19776
867.71	19616
867.841	19491
867.972	19666
868.103	19689
868.233	19662
868.364	19788
868.495	19818
868.625	19944
868.756	20069
868.886	19795
869.017	19780
869.147	19898
869.278	20005
869.408	19986
869.539	19875
869.669	20020
869.799	19940
869.929	19978
870.06	20084
870.19	20275
870.32	20126
870.45	20377
870.58	20275
870.71	20332
870.84	20412
870.97	20396
871.1	20252
871.23	20568
871.36	20480
871.489	20423
871.619	20419
871.749	20530
871.879	20609
872.008	20674
872.138	20530
872.267	20564
872.397	20358
872.526	20328
872.656	20370
872.785	20385
872.915	20617
873.044	20625
873.173	20659
873.303	20571
873.432	20701
873.561	20655
873.69	20651
873.819	20522
873.948	20651
874.077	20556
874.206	20461
874.335	20629
874.464	20678
874.593	20864
874.722	20735
874.851	20834
874.979	20781
875.108	20804
875.237	20712
875.365	20594
875.494	20811
875.623	20975
875.751	20804
875.88	20883
876.008	20910
876.136	21013
876.265	21214
876.393	21279
876.521	21195
876.65	21275
876.778	21180
876.906	21138
877.034	21146
877.162	21192
877.29	21127
877.418	21131
877.546	21161
877.674	21104
877.802	21161
877.93	21119
878.058	21100
878.185	21142
878.313	21119
878.441	21180
878.568	20937
878.696	21169
878.824	21169
878.951	21222
879.079	21317
879.206	21477
879.333	21412
879.461	21180
879.588	21260
879.715	21359
879.842	21355
879.97	21374
880.097	20986
880.224	20963
880.351	21104
880.478	20986
880.605	20868
880.732	20906
880.859	21230
880.986	20925
881.112	20937
881.239	20883
881.366	20804
881.493	20648
881.619	20625
881.746	20594
881.872	20552
881.999	20537
882.125	20492
882.252	20613
882.378	20606
882.505	20613
882.631	20427
882.757	20434
882.883	20366
883.01	20309
883.136	20320
883.262	20157
883.388	20153
883.514	20305
883.64	20271
883.766	20206
883.892	20100
884.018	20107
884.143	20206
884.269	20336
884.395	19997
884.52	19932
884.646	20027
884.772	19921
884.897	19860
885.023	19921
885.148	20005
885.274	20035
885.399	20073
885.524	19959
885.65	19913
885.775	20008
885.9	19883
886.025	20062
886.15	19940
886.275	19963
886.4	19906
886.525	19959
886.65	19883
886.775	19879
886.9	20100
887.025	20138
887.149	19967
887.274	19723
887.399	19795
887.523	19632
887.648	19563
887.773	19624
887.897	19788
888.021	19723
888.146	19670
888.27	19845
888.395	19913
888.519	19704
888.643	19731
888.767	19791
888.891	19632
889.015	19597
889.139	19575
889.263	19499
889.387	19712
889.511	19753
889.635	19772
889.759	19449
889.883	19628
890.006	19476
890.13	19677
890.254	19563
890.377	19548
890.501	19350
890.624	19266
890.748	19316
890.871	19179
890.995	19209
891.118	19129
891.241	19164
891.364	19118
891.488	19274
891.611	19293
891.734	19171
891.857	19244
891.98	19168
892.103	19213
892.226	19209
892.349	19114
892.471	19015
892.594	19110
892.717	19202
892.839	19076
892.962	19091
893.085	19168
893.207	19061
893.33	18989
893.452	19122
893.575	19209
893.697	19114
893.819	19282
893.941	19324
894.064	19274
894.186	19046
894.308	18996
894.43	19110
894.552	19126
894.674	19232
894.796	18916
894.918	18973
895.04	19042
895.161	19129
895.283	19107
895.405	19118
895.526	19183
895.648	19099
895.769	19152
895.891	19133
896.012	19129
896.134	19221
896.255	19034
896.376	19000
896.498	19133
896.619	19091
896.74	19141
896.861	19156
896.982	19506
897.103	19499
897.224	19388
897.345	19301
897.466	19304
897.587	19263
897.708	19407
897.828	19358
897.949	19346
898.07	19259
898.19	19293
898.311	19529
898.431	19282
898.552	19480
898.672	19403
898.792	19495
898.913	19419
899.033	19221
899.153	19175
899.273	19114
899.393	19057
899.513	19187
899.633	19099
899.753	19175
899.873	19084
899.993	19133
900.113	19038
900.232	19183
900.352	19050
900.472	18935
900.591	18939
900.711	18996
900.83	18890
900.95	19046
901.069	18962
901.189	18840
901.308	18688
901.427	18593
901.546	18490
901.665	18570
901.784	18593
901.904	18395
902.023	18323
902.141	18087
902.26	17992
902.379	18114
902.498	18091
902.617	17988
902.735	17969
902.854	17961
902.973	18015
903.091	17642
903.21	17642
903.328	17832
903.446	17684
903.565	17524
903.683	17455
903.801	17459
903.919	17444
904.038	17433
904.156	17337
904.274	17383
904.392	17345
904.51	17356
904.627	17349
904.745	17223
904.863	17337
904.981	17098
905.098	17079
905.216	17045
905.334	17098
905.451	16938
905.569	16995
905.686	17014
905.803	16930
905.921	16809
906.038	16824
906.155	16713
906.272	16710
906.389	16782
906.506	16508
906.623	16592
906.74	16481
906.857	16413
906.974	16428
907.091	16577
907.208	16599
907.324	16489
907.441	16409
907.557	16265
907.674	16287
907.79	16124
907.907	16223
908.023	16261
908.139	16238
908.256	16120
908.372	16105
908.488	16090
908.604	15979
908.72	15911
908.836	16059
908.952	15949
909.068	15953
909.184	16173
909.3	15865
909.415	15937
909.531	15926
909.647	15785
909.762	15800
909.878	15576
909.993	15679
910.108	15648
910.224	15720
910.339	15587
910.454	15584
910.57	15553
910.685	15389
910.8	15804
910.915	15614
911.03	15462
911.145	15306
911.259	15408
911.374	15329
911.489	15306
911.604	15256
911.718	15051
911.833	15077
911.947	15036
912.062	14994
912.176	15123
912.291	15062
912.405	15055
912.519	15298
912.633	15241
912.748	15150
912.862	15104
912.976	14921
913.09	14895
913.204	14838
913.318	14933
913.431	14899
913.545	14971
913.659	15032
913.772	14861
913.886	14811
914	14762
914.113	14899
914.226	14845
914.34	14712
914.453	14583
914.566	14659
914.68	14568
914.793	14549
914.906	14339
915.019	14317
915.132	14275
915.245	14298
915.358	14415
915.47	14374
915.583	14278
915.696	14320
915.809	14522
915.921	14457
916.034	14164
916.146	14313
916.259	14237
916.371	14358
916.483	14271
916.595	14221
916.708	14172
916.82	14176
916.932	14237
917.044	14043
917.156	14058
917.268	13989
917.38	14001
917.491	14035
917.603	13947
917.715	14065
917.826	14069
917.938	13925
918.049	13852
918.161	13974
918.272	14069
918.384	14046
918.495	13963
918.606	13807
918.717	13753
918.828	13841
918.939	13799
919.05	13693
919.161	13769
919.272	13575
919.383	13616
919.494	13803
919.604	13967
919.715	13696
919.826	13655
919.936	13715
920.047	13814
920.157	13712
920.267	13989
920.378	13837
920.488	13719
920.598	13852
920.708	13967
920.818	13932
920.928	13906
921.038	14020
921.148	13955
921.258	13746
921.368	13616
921.477	13575
921.587	13548
921.697	13369
921.806	13525
921.916	13350
922.025	13251
922.134	13107
922.244	13137
922.353	13251
922.462	13149
922.571	13038
922.68	12795
922.789	12871
922.898	12833
923.007	12745
923.116	12787
923.224	12779
923.333	12719
923.442	12658
923.55	12715
923.659	12585
923.767	12760
923.876	12589
923.984	12795
924.092	12597
924.201	12608
924.309	12479
924.417	12563
924.525	12448
924.633	12593
924.741	13244
924.849	12292
924.956	12327
925.064	12361
925.172	12224
925.279	12239
925.387	12281
925.494	12338
925.602	12365
925.709	12346
925.816	12182
925.924	12243
926.031	12296
926.138	12270
926.245	12300
926.352	12209
926.459	12277
926.566	12308
926.673	12171
926.779	12049
926.886	12019
926.993	11950
927.099	11828
927.206	11817
927.312	11813
927.419	11961
927.525	11935
927.631	11893
927.737	11767
927.843	11668
927.95	11661
928.056	11676
928.162	11665
928.267	11809
928.373	12300
928.479	11798
928.585	11608
928.69	11680
928.796	11760
928.901	11535
929.007	11490
929.112	11509
929.218	11566
929.323	11467
929.428	11452
929.533	11459
929.638	11334
929.743	11349
929.848	11455
929.953	11341
930.058	11242
930.163	11197
930.267	11121
930.372	11277
930.477	11132
930.581	11330
930.685	11261
930.79	10991
930.894	11041
930.998	11048
931.103	11117
931.207	10736
931.311	10763
931.415	10664
931.519	10424
931.623	10413
