Data from test_V78500241_3468.txt Node
Date: Fri Mar 25 15:34:00 CST 2022
User: usil
Spectrometer: V785-0024
Trigger mode: 0
Integration Time (sec): 4.000000E-1
Scans to average: 1
Nonlinearity correction enabled: false
Boxcar width: 0
Storing dark spectrum: false
XAxis mode: Wavelengths
Number of Pixels in Spectrum: 1024
>>>>>Begin Spectral Data<<<<<
801.071	27348
801.214	27150
801.356	26933
801.499	26925
801.641	26792
801.783	26868
801.926	26834
802.068	26902
802.211	26674
802.353	26739
802.496	26575
802.638	26465
802.78	26438
802.923	26377
803.065	26381
803.208	26434
803.35	26488
803.492	26590
803.635	26625
803.777	26583
803.919	26575
804.061	26777
804.204	26731
804.346	26457
804.488	26636
804.63	26606
804.773	26484
804.915	26625
805.057	26712
805.199	26629
805.341	26579
805.483	26617
805.626	26663
805.768	26609
805.91	26777
806.052	26750
806.194	26648
806.336	26876
806.478	26667
806.62	26583
806.762	26792
806.904	26940
807.046	27104
807.188	27032
807.33	27028
807.472	27192
807.614	27043
807.756	27089
807.898	26998
808.04	27001
808.182	26883
808.324	26986
808.465	26902
808.607	27180
808.749	27302
808.891	27321
809.033	27412
809.174	27462
809.316	27245
809.458	27279
809.6	27184
809.741	27393
809.883	27378
810.025	27500
810.166	27507
810.308	27641
810.45	27523
810.591	27576
810.733	27401
810.875	27157
811.016	27108
811.158	27195
811.299	27405
811.441	27431
811.582	27317
811.724	27401
811.865	27245
812.007	27203
812.148	27317
812.29	27291
812.431	27408
812.573	27599
812.714	27724
812.855	27812
812.997	27873
813.138	27987
813.279	28002
813.421	27720
813.562	27762
813.703	27523
813.845	27427
813.986	27252
814.127	27207
814.268	27055
814.41	27043
814.551	26975
814.692	26967
814.833	26800
814.974	26956
815.115	26933
815.256	26754
815.397	26864
815.539	26792
815.68	26811
815.821	26648
815.962	26735
816.103	26880
816.244	26476
816.385	26396
816.526	26404
816.666	26206
816.807	26199
816.948	26259
817.089	26278
817.23	26275
817.371	26244
817.512	26248
817.653	26180
817.793	26092
817.934	26164
818.075	26202
818.216	26161
818.356	26092
818.497	26153
818.638	25944
818.778	25959
818.919	26130
819.06	25970
819.2	26122
819.341	26142
819.481	26092
819.622	26400
819.762	26446
819.903	26587
820.043	26393
820.184	26298
820.324	26271
820.465	26358
820.605	26343
820.746	26195
820.886	26145
821.026	26294
821.167	26180
821.307	26301
821.447	26252
821.588	26035
821.728	26027
821.868	25849
822.008	25647
822.149	25860
822.289	25597
822.429	25495
822.569	25369
822.709	25335
822.849	25088
822.99	25148
823.13	24996
823.27	25088
823.41	25061
823.55	24875
823.69	25080
823.83	24973
823.97	24867
824.11	24802
824.25	24928
824.389	24890
824.529	24867
824.669	24620
824.809	24901
824.949	24772
825.089	24837
825.228	24787
825.368	24646
825.508	24635
825.648	24726
825.787	24620
825.927	24787
826.067	24741
826.206	24654
826.346	24798
826.485	24787
826.625	24642
826.765	24821
826.904	24768
827.044	24479
827.183	24445
827.323	24460
827.462	24464
827.601	24433
827.741	24266
827.88	24388
828.02	24277
828.159	24327
828.298	24353
828.437	24376
828.577	24232
828.716	24403
828.855	24270
828.994	24095
829.134	24148
829.273	24182
829.412	24091
829.551	24041
829.69	24057
829.829	24060
829.968	24163
830.107	24155
830.246	24076
830.385	24079
830.524	23882
830.663	23904
830.802	23813
830.941	23813
831.08	23707
831.219	23779
831.357	23836
831.496	24114
831.635	23775
831.774	23592
831.913	23676
832.051	23543
832.19	23452
832.329	23649
832.467	23307
832.606	23455
832.744	23315
832.883	23455
833.022	23330
833.16	23356
833.299	23395
833.437	23463
833.576	23440
833.714	23551
833.852	23520
833.991	23444
834.129	23490
834.267	23471
834.406	23539
834.544	23577
834.682	23417
834.821	23482
834.959	23649
835.097	23482
835.235	23395
835.373	23383
835.511	23455
835.65	23360
835.788	23368
835.926	23151
836.064	23223
836.202	23181
836.34	23223
836.478	23376
836.615	23296
836.753	23322
836.891	23326
837.029	23345
837.167	23261
837.305	23181
837.443	23105
837.58	23208
837.718	23239
837.856	23166
837.993	23162
838.131	23223
838.269	23181
838.406	23170
838.544	23090
838.681	22752
838.819	22877
838.956	22721
839.094	22675
839.231	22630
839.369	22934
839.506	23033
839.643	22972
839.781	22755
839.918	22733
840.055	22664
840.193	22577
840.33	22481
840.467	22580
840.604	22531
840.742	22835
840.879	22459
841.016	22451
841.153	22538
841.29	22668
841.427	22504
841.564	22565
841.701	22580
841.838	22622
841.975	22497
842.112	22470
842.249	22493
842.385	22322
842.522	22538
842.659	22409
842.796	22322
842.933	22329
843.069	22284
843.206	22219
843.343	22394
843.479	22249
843.616	22360
843.752	22215
843.889	22169
844.025	22314
844.162	21983
844.298	22166
844.435	22036
844.571	22135
844.708	22147
844.844	22238
844.98	22196
845.117	22200
845.253	22093
845.389	21968
845.525	22086
845.661	22090
845.798	21842
845.934	21911
846.07	21781
846.206	21972
846.342	21816
846.478	21987
846.614	21785
846.75	21481
846.886	21595
847.022	21698
847.158	21671
847.294	21553
847.429	21603
847.565	21496
847.701	21842
847.837	21370
847.972	21325
848.108	21428
848.244	21359
848.379	21306
848.515	21157
848.65	21154
848.786	21180
848.921	21287
849.057	21260
849.192	21348
849.328	21241
849.463	21188
849.598	21127
849.734	21001
849.869	21123
850.004	21009
850.14	21017
850.275	20986
850.41	20880
850.545	20891
850.68	20944
850.815	21051
850.95	20902
851.085	21119
851.22	21135
851.355	21104
851.49	20914
851.625	20906
851.76	20994
851.895	20826
852.03	20887
852.165	21036
852.299	20982
852.434	21017
852.569	20937
852.703	21028
852.838	20929
852.973	21009
853.107	21062
853.242	20899
853.376	20899
853.511	20587
853.645	20746
853.78	20891
853.914	20849
854.048	20788
854.183	20792
854.317	20826
854.451	20941
854.585	20796
854.72	20823
854.854	20880
854.988	20724
855.122	20750
855.256	20712
855.39	20731
855.524	20845
855.658	20762
855.792	20716
855.926	20785
856.06	20769
856.194	20864
856.327	20796
856.461	20674
856.595	20773
856.729	20845
856.862	20948
856.996	20956
857.13	20819
857.263	20834
857.397	20960
857.53	20773
857.664	20785
857.797	20853
857.931	20910
858.064	20735
858.197	20967
858.331	20716
858.464	20689
858.597	20579
858.731	20727
858.864	20602
858.997	20678
859.13	20842
859.263	20838
859.396	20842
859.529	20788
859.662	20765
859.795	20769
859.928	20880
860.061	20868
860.194	20998
860.327	20819
860.46	20720
860.592	20861
860.725	20944
860.858	20868
860.99	20746
861.123	20682
861.256	20777
861.388	20868
861.521	21443
861.653	20670
861.786	20667
861.918	20651
862.05	20636
862.183	20762
862.315	20800
862.447	20800
862.58	20686
862.712	20518
862.844	20434
862.976	20625
863.108	20598
863.24	20990
863.372	20469
863.504	20492
863.636	20533
863.768	20571
863.9	20503
864.032	20431
864.164	20393
864.296	20590
864.428	20537
864.559	20571
864.691	20648
864.823	20602
864.954	20465
865.086	20423
865.217	20450
865.349	20336
865.48	20503
865.612	20328
865.743	20560
865.875	20446
866.006	20355
866.137	20389
866.269	20450
866.4	20362
866.531	20377
866.662	20358
866.793	20347
866.924	20237
867.055	20446
867.186	20343
867.317	20434
867.448	20164
867.579	20351
867.71	20298
867.841	20225
867.972	20328
868.103	20309
868.233	20301
868.364	20370
868.495	20396
868.625	20571
868.756	20701
868.886	20412
869.017	20461
869.147	20682
869.278	20648
869.408	20674
869.539	20587
869.669	20667
869.799	20530
869.929	20655
870.06	20644
870.19	20887
870.32	20819
870.45	20933
870.58	20944
870.71	21024
870.84	21043
870.97	21009
871.1	20971
871.23	21157
871.36	21161
871.489	21005
871.619	21199
871.749	21184
871.879	21287
872.008	21306
872.138	21161
872.267	21272
872.397	21154
872.526	21093
872.656	21062
872.785	21112
872.915	21211
873.044	21279
873.173	21199
873.303	21298
873.432	21222
873.561	21245
873.69	21161
873.819	21211
873.948	21344
874.077	21199
874.206	21104
874.335	21207
874.464	21298
874.593	21485
874.722	21306
874.851	21534
874.979	21469
875.108	21492
875.237	21218
875.365	21428
875.494	21389
875.623	21530
875.751	21469
875.88	21500
876.008	21644
876.136	21800
876.265	21854
876.393	21972
876.521	21895
876.65	21865
876.778	21907
876.906	21755
877.034	21747
877.162	21774
877.29	21800
877.418	21880
877.546	21941
877.674	21789
877.802	21785
877.93	21884
878.058	21682
878.185	21637
878.313	21705
878.441	21690
878.568	21622
878.696	21709
878.824	21747
878.951	21774
879.079	21949
879.206	22048
879.333	21972
879.461	21816
879.588	21842
879.715	22036
879.842	22051
879.97	21983
880.097	21553
880.224	21564
880.351	21622
880.478	21652
880.605	21652
880.732	21694
880.859	21850
880.986	21667
881.112	21789
881.239	21473
881.366	21363
881.493	21321
881.619	21214
881.746	21256
881.872	21329
881.999	21310
882.125	21161
882.252	21313
882.378	21173
882.505	21294
882.631	21089
882.757	20819
882.883	21085
883.01	21039
883.136	20769
883.262	20853
883.388	20739
883.514	20929
883.64	21001
883.766	20864
883.892	20640
884.018	20674
884.143	20849
884.269	21001
884.395	20708
884.52	20541
884.646	20651
884.772	20488
884.897	20454
885.023	20545
885.148	20640
885.274	20712
885.399	20636
885.524	20606
885.65	20530
885.775	20560
885.9	20541
886.025	20670
886.15	20568
886.275	20530
886.4	20450
886.525	20488
886.65	20507
886.775	20427
886.9	20648
887.025	20868
887.149	20526
887.274	20351
887.399	20351
887.523	20282
887.648	20290
887.773	20225
887.897	20355
888.021	20415
888.146	20347
888.27	20313
888.395	20473
888.519	20336
888.643	20290
888.767	20454
888.891	20244
889.015	20145
889.139	20195
889.263	20103
889.387	20301
889.511	20298
889.635	20328
889.759	20157
889.883	20161
890.006	20240
890.13	20278
890.254	20115
890.377	20035
890.501	19864
890.624	19906
890.748	20008
890.871	19803
890.995	19674
891.118	19689
891.241	19666
891.364	19769
891.488	19830
891.611	19898
891.734	19742
891.857	19799
891.98	19666
892.103	19704
892.226	19544
892.349	19597
892.471	19422
892.594	19662
892.717	19734
892.839	19632
892.962	19567
893.085	19670
893.207	19670
893.33	19460
893.452	19586
893.575	19700
893.697	19540
893.819	19780
893.941	19868
894.064	19845
894.186	19578
894.308	19582
894.43	19704
894.552	19704
894.674	19662
894.796	19491
894.918	19575
895.04	19677
895.161	19666
895.283	19727
895.405	19582
895.526	19681
895.648	19655
895.769	19666
895.891	19632
896.012	19681
896.134	19655
896.255	19639
896.376	19613
896.498	19772
896.619	19753
896.74	19662
896.861	19731
896.982	20065
897.103	20164
897.224	19978
897.345	19868
897.466	19772
897.587	19868
897.708	20016
897.828	20020
897.949	19875
898.07	19719
898.19	19780
898.311	19906
898.431	19765
898.552	19791
898.672	19993
898.792	19955
898.913	19909
899.033	19780
899.153	19628
899.273	19552
899.393	19651
899.513	19616
899.633	19632
899.753	19712
899.873	19613
899.993	19548
900.113	19510
900.232	19605
900.352	19396
900.472	19453
900.591	19358
900.711	19445
900.83	19365
900.95	19441
901.069	19476
901.189	19297
901.308	19217
901.427	18962
901.546	18962
901.665	18951
901.784	18993
901.904	18833
902.023	18772
902.141	18486
902.26	18555
902.379	18623
902.498	18506
902.617	18388
902.735	18448
902.854	18490
902.973	18300
903.091	18117
903.21	18125
903.328	18178
903.446	18133
903.565	18022
903.683	17961
903.801	17916
903.919	17969
904.038	17927
904.156	17672
904.274	17923
904.392	17676
904.51	17767
904.627	17699
904.745	17760
904.863	17836
904.981	17551
905.098	17383
905.216	17535
905.334	17406
905.451	17467
905.569	17410
905.686	17505
905.803	17444
905.921	17254
906.038	17288
906.155	17280
906.272	17178
906.389	17178
906.506	17064
906.623	17056
906.74	16976
906.857	16881
906.974	16786
907.091	17025
907.208	17109
907.324	16999
907.441	16972
907.557	16683
907.674	16672
907.79	16774
907.907	16656
908.023	16740
908.139	16748
908.256	16596
908.372	16596
908.488	16588
908.604	16489
908.72	16402
908.836	16390
908.952	16337
909.068	16394
909.184	16577
909.3	16478
909.415	16493
909.531	16485
909.647	16150
909.762	16109
909.878	16105
909.993	16253
910.108	16093
910.224	16048
910.339	16116
910.454	15926
910.57	15953
910.685	15873
910.8	16223
910.915	16055
911.03	15907
911.145	15819
911.259	15728
911.374	15755
911.489	15682
911.604	15713
911.718	15572
911.833	15481
911.947	15325
912.062	15458
912.176	15515
912.291	15538
912.405	15485
912.519	15728
912.633	15568
912.748	15538
912.862	15466
912.976	15325
913.09	15279
913.204	15351
913.318	15298
913.431	15435
913.545	15291
913.659	15424
913.772	15268
913.886	15169
914	15055
914.113	15108
914.226	15279
914.34	15180
914.453	14971
914.566	15199
914.68	14921
914.793	14967
914.906	14781
915.019	14777
915.132	14727
915.245	14724
915.358	14743
915.47	14796
915.583	14708
915.696	14644
915.809	14788
915.921	14788
916.034	14693
916.146	14594
916.259	14629
916.371	14758
916.483	14602
916.595	14594
916.708	14526
916.82	14552
916.932	14507
917.044	14552
917.156	14450
917.268	14343
917.38	14469
917.491	14457
917.603	14309
917.715	14465
917.826	14507
917.938	14450
918.049	14332
918.161	14328
918.272	14476
918.384	14533
918.495	14408
918.606	14210
918.717	14111
918.828	14183
918.939	14218
919.05	14081
919.161	14172
919.272	13894
919.383	14084
919.494	14092
919.604	14393
919.715	14172
919.826	14103
919.936	14092
920.047	14149
920.157	14077
920.267	14294
920.378	14100
920.488	14001
920.598	14256
920.708	14355
920.818	14221
920.928	14229
921.038	14358
921.148	14408
921.258	14084
921.368	13947
921.477	13909
921.587	13890
921.697	13788
921.806	13902
921.916	13757
922.025	13548
922.134	13639
922.244	13510
922.353	13514
922.462	13438
922.571	13384
922.68	13179
922.789	13160
922.898	13141
923.007	13126
923.116	13213
923.224	13118
923.333	13072
923.442	13065
923.55	13057
923.659	13000
923.767	13095
923.876	12958
923.984	13084
924.092	12951
924.201	12859
924.309	12932
924.417	12852
924.525	12928
924.633	12973
924.741	13552
924.849	12700
924.956	12779
925.064	12612
925.172	12547
925.279	12536
925.387	12620
925.494	12635
925.602	12722
925.709	12612
925.816	12521
925.924	12589
926.031	12654
926.138	12532
926.245	12582
926.352	12490
926.459	12703
926.566	12642
926.673	12509
926.779	12437
926.886	12391
926.993	12243
927.099	12190
927.206	12190
927.312	12117
927.419	12262
927.525	12175
927.631	12201
927.737	12057
927.843	11980
927.95	11908
928.056	11965
928.162	12034
928.267	12129
928.373	12555
928.479	12076
928.585	11832
928.69	11958
928.796	12079
928.901	11840
929.007	11729
929.112	11901
929.218	11813
929.323	11722
929.428	11760
929.533	11901
929.638	11604
929.743	11634
929.848	11661
929.953	11680
930.058	11634
930.163	11505
930.267	11467
930.372	11608
930.477	11372
930.581	11657
930.685	11478
930.79	11391
930.894	11307
930.998	11406
931.103	11425
931.207	11109
931.311	11022
931.415	10930
931.519	10702
931.623	10717
