Data from test_V78500241_1883.txt Node
Date: Fri Mar 25 15:22:58 CST 2022
User: usil
Spectrometer: V785-0024
Trigger mode: 0
Integration Time (sec): 4.000000E-1
Scans to average: 1
Nonlinearity correction enabled: false
Boxcar width: 0
Storing dark spectrum: false
XAxis mode: Wavelengths
Number of Pixels in Spectrum: 1024
>>>>>Begin Spectral Data<<<<<
801.071	27941
801.214	27823
801.356	27561
801.499	27435
801.641	27313
801.783	27351
801.926	27534
802.068	27485
802.211	27230
802.353	27294
802.496	27211
802.638	27142
802.78	27119
802.923	26853
803.065	26891
803.208	26826
803.35	27051
803.492	27127
803.635	27241
803.777	27058
803.919	27173
804.061	27408
804.204	27283
804.346	27089
804.488	27096
804.63	27245
804.773	27096
804.915	27169
805.057	27321
805.199	27264
805.341	27249
805.483	27329
805.626	27359
805.768	27321
805.91	27412
806.052	27291
806.194	27313
806.336	27530
806.478	27412
806.62	27370
806.762	27492
806.904	27504
807.046	27766
807.188	27850
807.33	27850
807.472	27956
807.614	27739
807.756	27648
807.898	27553
808.04	27431
808.182	27538
808.324	27595
808.465	27610
808.607	27842
808.749	28074
808.891	27987
809.033	28169
809.174	27949
809.316	27759
809.458	27949
809.6	27945
809.741	28120
809.883	28116
810.025	28272
810.166	28325
810.308	28284
810.45	28238
810.591	28097
810.733	28063
810.875	27945
811.016	27918
811.158	27854
811.299	27907
811.441	28063
811.582	28097
811.724	27907
811.865	27953
812.007	27857
812.148	27960
812.29	27869
812.431	28166
812.573	28280
812.714	28348
812.855	28497
812.997	28611
813.138	28664
813.279	28603
813.421	28550
813.562	28481
813.703	28299
813.845	28253
813.986	28017
814.127	27717
814.268	27728
814.41	27595
814.551	27663
814.692	27530
814.833	27572
814.974	27652
815.115	27705
815.256	27534
815.397	27507
815.539	27481
815.68	27393
815.821	27348
815.962	27348
816.103	27435
816.244	27264
816.385	27157
816.526	27203
816.666	27017
816.807	26868
816.948	27001
817.089	27119
817.23	26944
817.371	27001
817.512	26933
817.653	26933
817.793	26777
817.934	26933
818.075	27009
818.216	27032
818.356	27001
818.497	26739
818.638	26727
818.778	26644
818.919	26632
819.06	26746
819.2	26842
819.341	26902
819.481	27036
819.622	27138
819.762	27180
819.903	27222
820.043	27138
820.184	26994
820.324	27043
820.465	27001
820.605	26933
820.746	27104
820.886	26902
821.026	26971
821.167	26899
821.307	27001
821.447	26998
821.588	26952
821.728	26754
821.868	26507
822.008	26537
822.149	26393
822.289	26453
822.429	26180
822.569	25989
822.709	25993
822.849	25913
822.99	25902
823.13	26050
823.27	25993
823.41	25757
823.55	25727
823.69	25784
823.83	25746
823.97	25776
824.11	25521
824.25	25487
824.389	25556
824.529	25601
824.669	25540
824.809	25605
824.949	25746
825.089	25616
825.228	25457
825.368	25445
825.508	25343
825.648	25384
825.787	25586
825.927	25487
826.067	25396
826.206	25449
826.346	25506
826.485	25441
826.625	25369
826.765	25537
826.904	25628
827.044	25190
827.183	25171
827.323	25240
827.462	25343
827.601	25171
827.741	25255
827.88	25255
828.02	24943
828.159	25126
828.298	25202
828.437	25114
828.577	25053
828.716	25213
828.855	25095
828.994	24776
829.134	24856
829.273	24848
829.412	24867
829.551	24658
829.69	24852
829.829	24768
829.968	24939
830.107	24795
830.246	24795
830.385	24726
830.524	24741
830.663	24696
830.802	24505
830.941	24357
831.08	24376
831.219	24517
831.357	24521
831.496	24741
831.635	24456
831.774	24532
831.913	24327
832.051	24353
832.19	24357
832.329	24205
832.467	24224
832.606	24049
832.744	24106
832.883	24148
833.022	24106
833.16	24110
833.299	24232
833.437	24140
833.576	24194
833.714	24239
833.852	24311
833.991	24251
834.129	24300
834.267	24270
834.406	24232
834.544	24232
834.682	24350
834.821	24091
834.959	24342
835.097	24266
835.235	24167
835.373	24262
835.511	24258
835.65	24041
835.788	24152
835.926	23999
836.064	24003
836.202	23832
836.34	24060
836.478	24216
836.615	24110
836.753	24068
836.891	24068
837.029	24254
837.167	23908
837.305	24049
837.443	23786
837.58	23885
837.718	23897
837.856	23771
837.993	23809
838.131	23824
838.269	23817
838.406	23866
838.544	23634
838.681	23562
838.819	23638
838.956	23482
839.094	23402
839.231	23436
839.369	23551
839.506	23904
839.643	23657
839.781	23425
839.918	23372
840.055	23311
840.193	23318
840.33	23280
840.467	23254
840.604	23341
840.742	23581
840.879	23200
841.016	23121
841.153	23311
841.29	23402
841.427	23261
841.564	23307
841.701	23197
841.838	23162
841.975	23143
842.112	23132
842.249	23197
842.385	23060
842.522	23242
842.659	23014
842.796	23075
842.933	23052
843.069	23029
843.206	23014
843.343	23147
843.479	23197
843.616	23105
843.752	22729
843.889	22850
844.025	22927
844.162	22809
844.298	22835
844.435	22812
844.571	22835
844.708	22930
844.844	23006
844.98	22911
845.117	22866
845.253	22679
845.389	22790
845.525	22713
845.661	22649
845.798	22516
845.934	22592
846.07	22508
846.206	22573
846.342	22687
846.478	22519
846.614	22409
846.75	22284
846.886	22276
847.022	22363
847.158	22329
847.294	22314
847.429	22417
847.565	22291
847.701	22550
847.837	22211
847.972	21994
848.108	22067
848.244	22044
848.379	21907
848.515	21888
848.65	21873
848.786	21911
848.921	21873
849.057	22097
849.192	21972
849.328	21979
849.463	21922
849.598	21873
849.734	21732
849.869	21717
850.004	21583
850.14	21751
850.275	21610
850.41	21557
850.545	21595
850.68	21599
850.815	21599
850.95	21679
851.085	21679
851.22	21751
851.355	21629
851.49	21663
851.625	21572
851.76	21542
851.895	21576
852.03	21610
852.165	21629
852.299	21766
852.434	21713
852.569	21671
852.703	21679
852.838	21705
852.973	21690
853.107	21854
853.242	21641
853.376	21515
853.511	21313
853.645	21568
853.78	21530
853.914	21534
854.048	21401
854.183	21397
854.317	21431
854.451	21671
854.585	21462
854.72	21515
854.854	21519
854.988	21412
855.122	21515
855.256	21313
855.39	21374
855.524	21549
855.658	21595
855.792	21405
855.926	21523
856.06	21549
856.194	21515
856.327	21526
856.461	21367
856.595	21412
856.729	21428
856.862	21405
856.996	21382
857.13	21485
857.263	21648
857.397	21542
857.53	21500
857.664	21325
857.797	21603
857.931	21610
858.064	21439
858.197	21549
858.331	21492
858.464	21378
858.597	21408
858.731	21469
858.864	21302
858.997	21504
859.13	21378
859.263	21462
859.396	21603
859.529	21420
859.662	21310
859.795	21500
859.928	21405
860.061	21568
860.194	21682
860.327	21511
860.46	21462
860.592	21580
860.725	21705
860.858	21618
860.99	21515
861.123	21397
861.256	21412
861.388	21412
861.521	22097
861.653	21389
861.786	21264
861.918	21287
862.05	21386
862.183	21363
862.315	21374
862.447	21431
862.58	21367
862.712	21325
862.844	21165
862.976	21321
863.108	21252
863.24	21641
863.372	21195
863.504	21127
863.636	21142
863.768	21154
863.9	21188
864.032	21081
864.164	21089
864.296	21173
864.428	21294
864.559	21237
864.691	21241
864.823	21135
864.954	21226
865.086	21051
865.217	21127
865.349	21108
865.48	21085
865.612	21123
865.743	21245
865.875	21066
866.006	21047
866.137	21043
866.269	21116
866.4	20975
866.531	21081
866.662	20986
866.793	20895
866.924	20971
867.055	20918
867.186	21100
867.317	21055
867.448	20895
867.579	21043
867.71	20876
867.841	21047
867.972	20975
868.103	20918
868.233	20994
868.364	21020
868.495	21085
868.625	21279
868.756	21279
868.886	21154
869.017	21264
869.147	21386
869.278	21367
869.408	21081
869.539	21123
869.669	21211
869.799	21310
869.929	21340
870.06	21317
870.19	21530
870.32	21614
870.45	21492
870.58	21587
870.71	21789
870.84	21694
870.97	21606
871.1	21633
871.23	21800
871.36	21705
871.489	21717
871.619	21808
871.749	21800
871.879	21842
872.008	21884
872.138	21884
872.267	21846
872.397	21690
872.526	21701
872.656	21663
872.785	21606
872.915	21857
873.044	21945
873.173	21880
873.303	21873
873.432	21857
873.561	21972
873.69	21751
873.819	21926
873.948	21949
874.077	21880
874.206	21842
874.335	21865
874.464	21968
874.593	22025
874.722	21994
874.851	22116
874.979	22070
875.108	22097
875.237	21998
875.365	21838
875.494	22006
875.623	22105
875.751	21979
875.88	22150
876.008	22196
876.136	22341
876.265	22432
876.393	22573
876.521	22542
876.65	22440
876.778	22394
876.906	22360
877.034	22284
877.162	22519
877.29	22356
877.418	22455
877.546	22443
877.674	22447
877.802	22379
877.93	22436
878.058	22489
878.185	22265
878.313	22360
878.441	22344
878.568	22219
878.696	22333
878.824	22466
878.951	22455
879.079	22508
879.206	22717
879.333	22497
879.461	22436
879.588	22481
879.715	22466
879.842	22675
879.97	22550
880.097	22211
880.224	22226
880.351	22314
880.478	22314
880.605	22261
880.732	22223
880.859	22402
880.986	22219
881.112	22329
881.239	22074
881.366	21983
881.493	21949
881.619	21857
881.746	21903
881.872	21854
881.999	21850
882.125	21625
882.252	21895
882.378	21781
882.505	21979
882.631	21720
882.757	21545
882.883	21564
883.01	21511
883.136	21450
883.262	21397
883.388	21359
883.514	21500
883.64	21568
883.766	21405
883.892	21302
884.018	21466
884.143	21504
884.269	21572
884.395	21237
884.52	21211
884.646	21100
884.772	21249
884.897	21108
885.023	21154
885.148	21260
885.274	21336
885.399	21370
885.524	21241
885.65	21214
885.775	21233
885.9	21146
886.025	21291
886.15	21142
886.275	21169
886.4	21036
886.525	21173
886.65	21081
886.775	21150
886.9	21245
887.025	21306
887.149	21161
887.274	21093
887.399	20990
887.523	20941
887.648	20834
887.773	20826
887.897	20986
888.021	21005
888.146	20979
888.27	21028
888.395	21001
888.519	21062
888.643	20876
888.767	20880
888.891	20838
889.015	20769
889.139	20777
889.263	20716
889.387	20861
889.511	20921
889.635	20792
889.759	20743
889.883	20682
890.006	20754
890.13	20834
890.254	20644
890.377	20621
890.501	20415
890.624	20514
890.748	20545
890.871	20442
890.995	20351
891.118	20267
891.241	20328
891.364	20301
891.488	20450
891.611	20206
891.734	20313
891.857	20206
891.98	20240
892.103	20339
892.226	20358
892.349	20271
892.471	20035
892.594	20237
892.717	20161
892.839	20214
892.962	20210
893.085	20214
893.207	20096
893.33	20157
893.452	20069
893.575	20267
893.697	20138
893.819	20336
893.941	20396
894.064	20275
894.186	20164
894.308	20145
894.43	20347
894.552	20339
894.674	20221
894.796	20088
894.918	20180
895.04	20202
895.161	20168
895.283	20202
895.405	20039
895.526	20263
895.648	20183
895.769	20214
895.891	20210
896.012	20282
896.134	20225
896.255	20172
896.376	20183
896.498	20240
896.619	20183
896.74	20248
896.861	20313
896.982	20446
897.103	20598
897.224	20450
897.345	20423
897.466	20419
897.587	20450
897.708	20560
897.828	20480
897.949	20336
898.07	20240
898.19	20370
898.311	20465
898.431	20282
898.552	20404
898.672	20431
898.792	20503
898.913	20450
899.033	20309
899.153	20225
899.273	20050
899.393	20103
899.513	20259
899.633	20218
899.753	20195
899.873	20027
899.993	20248
900.113	20130
900.232	20027
900.352	19993
900.472	19947
900.591	19822
900.711	19997
900.83	19932
900.95	19955
901.069	19959
901.189	19856
901.308	19590
901.427	19582
901.546	19544
901.665	19552
901.784	19624
901.904	19343
902.023	19297
902.141	19099
902.26	19023
902.379	19114
902.498	18897
902.617	19057
902.735	18973
902.854	18939
902.973	18947
903.091	18688
903.21	18787
903.328	18631
903.446	18593
903.565	18532
903.683	18506
903.801	18361
903.919	18437
904.038	18380
904.156	18266
904.274	18445
904.392	18311
904.51	18262
904.627	18186
904.745	18281
904.863	18262
904.981	18053
905.098	18038
905.216	17889
905.334	18007
905.451	17999
905.569	17931
905.686	18011
905.803	17912
905.921	17824
906.038	17805
906.155	17798
906.272	17634
906.389	17592
906.506	17406
906.623	17512
906.74	17463
906.857	17395
906.974	17330
907.091	17532
907.208	17646
907.324	17467
907.441	17261
907.557	17292
907.674	17216
907.79	17147
907.907	17128
908.023	17094
908.139	17223
908.256	17189
908.372	17079
908.488	17003
908.604	16972
908.72	16835
908.836	16923
908.952	16900
909.068	16930
909.184	16946
909.3	16877
909.415	16927
909.531	16824
909.647	16656
909.762	16721
909.878	16615
909.993	16672
910.108	16516
910.224	16459
910.339	16561
910.454	16489
910.57	16421
910.685	16348
910.8	16538
910.915	16531
911.03	16352
911.145	16268
911.259	16242
911.374	16226
911.489	16067
911.604	16055
911.718	15945
911.833	15945
911.947	15888
912.062	15682
912.176	15937
912.291	15884
912.405	15869
912.519	16169
912.633	16185
912.748	15998
912.862	15953
912.976	15732
913.09	15622
913.204	15774
913.318	15785
913.431	15846
913.545	15895
913.659	15846
913.772	15732
913.886	15694
914	15507
914.113	15641
914.226	15625
914.34	15686
914.453	15504
914.566	15584
914.68	15466
914.793	15412
914.906	15173
915.019	15192
915.132	15131
915.245	15138
915.358	15207
915.47	15188
915.583	15176
915.696	15302
915.809	15302
915.921	15283
916.034	15085
916.146	15043
916.259	14990
916.371	15211
916.483	15241
916.595	15028
916.708	14998
916.82	14948
916.932	14967
917.044	15058
917.156	14982
917.268	14796
917.38	14826
917.491	14845
917.603	14864
917.715	14933
917.826	14963
917.938	14743
918.049	14750
918.161	14853
918.272	14941
918.384	14861
918.495	14788
918.606	14629
918.717	14473
918.828	14564
918.939	14571
919.05	14434
919.161	14579
919.272	14362
919.383	14438
919.494	14678
919.604	14746
919.715	14659
919.826	14503
919.936	14495
920.047	14651
920.157	14621
920.267	14746
920.378	14583
920.488	14629
920.598	14659
920.708	14849
920.818	14739
920.928	14674
921.038	14864
921.148	14785
921.258	14594
921.368	14465
921.477	14332
921.587	14286
921.697	14100
921.806	14248
921.916	14145
922.025	13925
922.134	13989
922.244	13917
922.353	13932
922.462	13902
922.571	13788
922.68	13636
922.789	13578
922.898	13655
923.007	13540
923.116	13655
923.224	13533
923.333	13544
923.442	13499
923.55	13339
923.659	13464
923.767	13419
923.876	13434
923.984	13453
924.092	13335
924.201	13259
924.309	13426
924.417	13358
924.525	13331
924.633	13171
924.741	14126
924.849	13095
924.956	13293
925.064	13023
925.172	12973
925.279	12935
925.387	13069
925.494	12970
925.602	13084
925.709	12996
925.816	12939
925.924	12859
926.031	13053
926.138	12954
926.245	12996
926.352	12890
926.459	12962
926.566	12966
926.673	12859
926.779	12783
926.886	12707
926.993	12566
927.099	12616
927.206	12498
927.312	12532
927.419	12585
927.525	12502
927.631	12589
927.737	12486
927.843	12350
927.95	12239
928.056	12380
928.162	12384
928.267	12399
928.373	13000
928.479	12357
928.585	12205
928.69	12437
928.796	12407
928.901	12281
929.007	12125
929.112	12235
929.218	12220
929.323	12159
929.428	12136
929.533	12262
929.638	11950
929.743	12026
929.848	12125
929.953	12030
930.058	11988
930.163	11748
930.267	11889
930.372	11904
930.477	11824
930.581	11992
930.685	11832
930.79	11630
930.894	11596
930.998	11676
931.103	11809
931.207	11459
931.311	11254
931.415	11277
931.519	11121
931.623	11094
