Data from test_V78500241_980.txt Node
Date: Fri Mar 25 15:16:40 CST 2022
User: usil
Spectrometer: V785-0024
Trigger mode: 0
Integration Time (sec): 4.000000E-1
Scans to average: 1
Nonlinearity correction enabled: false
Boxcar width: 0
Storing dark spectrum: false
XAxis mode: Wavelengths
Number of Pixels in Spectrum: 1024
>>>>>Begin Spectral Data<<<<<
801.071	28272
801.214	28143
801.356	27911
801.499	27869
801.641	27766
801.783	27793
801.926	27857
802.068	27663
802.211	27747
802.353	27660
802.496	27416
802.638	27523
802.78	27481
802.923	27397
803.065	27344
803.208	27405
803.35	27397
803.492	27523
803.635	27648
803.777	27663
803.919	27633
804.061	27998
804.204	27705
804.346	27652
804.488	27557
804.63	27580
804.773	27633
804.915	27701
805.057	27732
805.199	27587
805.341	27663
805.483	27816
805.626	27816
805.768	27675
805.91	27789
806.052	27873
806.194	27717
806.336	27926
806.478	27926
806.62	27869
806.762	28010
806.904	28120
807.046	28238
807.188	28325
807.33	28253
807.472	28443
807.614	28265
807.756	28207
807.898	28154
808.04	27854
808.182	28101
808.324	28109
808.465	28188
808.607	28337
808.749	28421
808.891	28561
809.033	28596
809.174	28500
809.316	28527
809.458	28443
809.6	28295
809.741	28500
809.883	28653
810.025	28694
810.166	28786
810.308	28896
810.45	28691
810.591	28717
810.733	28493
810.875	28557
811.016	28363
811.158	28455
811.299	28428
811.441	28584
811.582	28497
811.724	28478
811.865	28470
812.007	28375
812.148	28409
812.29	28557
812.431	28618
812.573	28934
812.714	28850
812.855	29155
812.997	29178
813.138	29212
813.279	29265
813.421	28987
813.562	28995
813.703	28702
813.845	28771
813.986	28455
814.127	28375
814.268	28249
814.41	28147
814.551	28234
814.692	28276
814.833	28230
814.974	28215
815.115	28204
815.256	28124
815.397	28101
815.539	27994
815.68	28013
815.821	27975
815.962	27964
816.103	28006
816.244	27835
816.385	27869
816.526	27751
816.666	27724
816.807	27488
816.948	27530
817.089	27485
817.23	27515
817.371	27564
817.512	27511
817.653	27587
817.793	27405
817.934	27530
818.075	27637
818.216	27564
818.356	27542
818.497	27439
818.638	27260
818.778	27135
818.919	27287
819.06	27397
819.2	27401
819.341	27583
819.481	27545
819.622	27492
819.762	27819
819.903	27774
820.043	27823
820.184	27564
820.324	27568
820.465	27675
820.605	27766
820.746	27599
820.886	27458
821.026	27553
821.167	27553
821.307	27568
821.447	27618
821.588	27507
821.728	27260
821.868	27089
822.008	26998
822.149	27043
822.289	26990
822.429	26636
822.569	26781
822.709	26640
822.849	26530
822.99	26526
823.13	26457
823.27	26377
823.41	26210
823.55	26233
823.69	26317
823.83	26396
823.97	26256
824.11	26168
824.25	26043
824.389	26092
824.529	26286
824.669	26126
824.809	26263
824.949	26237
825.089	26301
825.228	26248
825.368	25974
825.508	26122
825.648	26077
825.787	26096
825.927	26180
826.067	26073
826.206	26012
826.346	26142
826.485	26252
826.625	26043
826.765	26191
826.904	26103
827.044	25856
827.183	25864
827.323	25715
827.462	25887
827.601	25799
827.741	25833
827.88	25715
828.02	25635
828.159	25632
828.298	25791
828.437	25841
828.577	25723
828.716	25818
828.855	25700
828.994	25586
829.134	25441
829.273	25460
829.412	25358
829.551	25388
829.69	25468
829.829	25479
829.968	25525
830.107	25578
830.246	25479
830.385	25343
830.524	25491
830.663	25236
830.802	25240
830.941	25133
831.08	25080
831.219	25160
831.357	25308
831.496	25282
831.635	25057
831.774	25103
831.913	24981
832.051	24829
832.19	24890
832.329	24977
832.467	24753
832.606	24779
832.744	24738
832.883	24764
833.022	24673
833.16	24753
833.299	24829
833.437	24741
833.576	25008
833.714	24837
833.852	24852
833.991	24856
834.129	24890
834.267	24882
834.406	24787
834.544	24844
834.682	24817
834.821	24833
834.959	25034
835.097	24829
835.235	24924
835.373	24817
835.511	24859
835.65	24589
835.788	24673
835.926	24616
836.064	24410
836.202	24536
836.34	24681
836.478	24715
836.615	24521
836.753	24772
836.891	24642
837.029	24631
837.167	24654
837.305	24471
837.443	24551
837.58	24642
837.718	24639
837.856	24498
837.993	24433
838.131	24467
838.269	24391
838.406	24407
838.544	24346
838.681	24117
838.819	24220
838.956	23977
839.094	23965
839.231	23992
839.369	24194
839.506	24403
839.643	24209
839.781	23904
839.918	23889
840.055	23980
840.193	23889
840.33	23840
840.467	23965
840.604	24022
840.742	24072
840.879	23809
841.016	23863
841.153	23729
841.29	23950
841.427	24030
841.564	24018
841.701	23980
841.838	23863
841.975	23783
842.112	23737
842.249	23653
842.385	23676
842.522	23893
842.659	23737
842.796	23490
842.933	23691
843.069	23562
843.206	23638
843.343	23653
843.479	23543
843.616	23657
843.752	23349
843.889	23543
844.025	23547
844.162	23368
844.298	23570
844.435	23493
844.571	23318
844.708	23531
844.844	23638
844.98	23600
845.117	23524
845.253	23269
845.389	23372
845.525	23391
845.661	23353
845.798	23060
845.934	23284
846.07	23147
846.206	23178
846.342	23185
846.478	23124
846.614	23025
846.75	22812
846.886	22911
847.022	22957
847.158	22816
847.294	22881
847.429	22919
847.565	22831
847.701	23025
847.837	22618
847.972	22592
848.108	22557
848.244	22675
848.379	22360
848.515	22569
848.65	22478
848.786	22440
848.921	22523
849.057	22603
849.192	22459
849.328	22470
849.463	22421
849.598	22481
849.734	22329
849.869	22310
850.004	22086
850.14	22295
850.275	22325
850.41	22261
850.545	22128
850.68	22150
850.815	22116
850.95	22238
851.085	22413
851.22	22413
851.355	22333
851.49	22124
851.625	22318
851.76	22154
851.895	22109
852.03	22090
852.165	22188
852.299	22299
852.434	22287
852.569	22219
852.703	22295
852.838	22306
852.973	22402
853.107	22280
853.242	22051
853.376	22139
853.511	21903
853.645	21991
853.78	22257
853.914	22120
854.048	22036
854.183	22086
854.317	22097
854.451	22169
854.585	22063
854.72	22010
854.854	22124
854.988	21998
855.122	22032
855.256	21972
855.39	22055
855.524	22169
855.658	22082
855.792	22074
855.926	22074
856.06	22051
856.194	22185
856.327	21953
856.461	21991
856.595	22017
856.729	22173
856.862	22177
856.996	22040
857.13	22147
857.263	22166
857.397	22055
857.53	22032
857.664	22055
857.797	22082
857.931	22169
858.064	21991
858.197	21949
858.331	21975
858.464	21994
858.597	21953
858.731	21945
858.864	21926
858.997	22044
859.13	22086
859.263	22010
859.396	22169
859.529	22086
859.662	22040
859.795	21960
859.928	22002
860.061	22135
860.194	22249
860.327	21994
860.46	22135
860.592	22048
860.725	22219
860.858	22116
860.99	22059
861.123	22010
861.256	22025
861.388	22032
861.521	22691
861.653	21797
861.786	21793
861.918	21827
862.05	22013
862.183	21888
862.315	22017
862.447	22067
862.58	21934
862.712	21736
862.844	21857
862.976	21762
863.108	21781
863.24	22169
863.372	21736
863.504	21705
863.636	21762
863.768	21831
863.9	21675
864.032	21637
864.164	21698
864.296	21732
864.428	21831
864.559	21884
864.691	21812
864.823	21637
864.954	21694
865.086	21819
865.217	21717
865.349	21633
865.48	21679
865.612	21641
865.743	21747
865.875	21812
866.006	21610
866.137	21603
866.269	21591
866.4	21682
866.531	21500
866.662	21363
866.793	21549
866.924	21595
867.055	21603
867.186	21466
867.317	21488
867.448	21561
867.579	21633
867.71	21492
867.841	21428
867.972	21618
868.103	21511
868.233	21633
868.364	21507
868.495	21705
868.625	21808
868.756	21903
868.886	21736
869.017	21736
869.147	21964
869.278	21918
869.408	21812
869.539	21823
869.669	21873
869.799	21884
869.929	21899
870.06	21899
870.19	22143
870.32	22070
870.45	22116
870.58	22234
870.71	22276
870.84	22291
870.97	22150
871.1	22322
871.23	22287
871.36	22436
871.489	22284
871.619	22386
871.749	22341
871.879	22363
872.008	22512
872.138	22375
872.267	22367
872.397	22207
872.526	22261
872.656	22192
872.785	22295
872.915	22443
873.044	22470
873.173	22470
873.303	22474
873.432	22478
873.561	22497
873.69	22413
873.819	22375
873.948	22371
874.077	22440
874.206	22322
874.335	22352
874.464	22527
874.593	22660
874.722	22584
874.851	22679
874.979	22717
875.108	22596
875.237	22554
875.365	22527
875.494	22519
875.623	22645
875.751	22577
875.88	22660
876.008	22710
876.136	22812
876.265	22889
876.393	23159
876.521	23064
876.65	23105
876.778	22957
876.906	22946
877.034	22934
877.162	22995
877.29	22797
877.418	23067
877.546	22980
877.674	22919
877.802	22976
877.93	22938
878.058	22866
878.185	22793
878.313	22850
878.441	22915
878.568	22862
878.696	22866
878.824	23033
878.951	23151
879.079	23086
879.206	23109
879.333	23056
879.461	22972
879.588	23006
879.715	23235
879.842	23353
879.97	22934
880.097	22664
880.224	22828
880.351	22885
880.478	22698
880.605	22763
880.732	22889
880.859	23113
880.986	22831
881.112	22824
881.239	22729
881.366	22550
881.493	22405
881.619	22371
881.746	22375
881.872	22337
881.999	22402
882.125	22295
882.252	22287
882.378	22291
882.505	22402
882.631	22196
882.757	22055
882.883	22112
883.01	22109
883.136	21994
883.262	21945
883.388	21926
883.514	21991
883.64	22139
883.766	21975
883.892	21838
884.018	21892
884.143	21987
884.269	21953
884.395	21842
884.52	21724
884.646	21652
884.772	21694
884.897	21625
885.023	21694
885.148	21759
885.274	21865
885.399	21736
885.524	21572
885.65	21701
885.775	21724
885.9	21675
886.025	21846
886.15	21823
886.275	21625
886.4	21416
886.525	21622
886.65	21637
886.775	21606
886.9	21747
887.025	21797
887.149	21637
887.274	21405
887.399	21401
887.523	21447
887.648	21367
887.773	21260
887.897	21526
888.021	21462
888.146	21473
888.27	21587
888.395	21389
888.519	21477
888.643	21485
888.767	21504
888.891	21283
889.015	21192
889.139	21279
889.263	21138
889.387	21249
889.511	21386
889.635	21382
889.759	21279
889.883	21275
890.006	21199
890.13	21180
890.254	21222
890.377	21173
890.501	20948
890.624	20880
890.748	21066
890.871	20933
890.995	20800
891.118	20788
891.241	20739
891.364	20746
891.488	20963
891.611	20762
891.734	20823
891.857	20773
891.98	20727
892.103	20777
892.226	20807
892.349	20686
892.471	20602
892.594	20686
892.717	20712
892.839	20701
892.962	20613
893.085	20773
893.207	20701
893.33	20564
893.452	20629
893.575	20804
893.697	20796
893.819	20716
893.941	20826
894.064	20758
894.186	20552
894.308	20556
894.43	20788
894.552	20765
894.674	20735
894.796	20651
894.918	20579
895.04	20579
895.161	20785
895.283	20613
895.405	20644
895.526	20629
895.648	20556
895.769	20674
895.891	20785
896.012	20785
896.134	20708
896.255	20655
896.376	20617
896.498	20682
896.619	20682
896.74	20644
896.861	20663
896.982	20807
897.103	21100
897.224	20952
897.345	20921
897.466	20902
897.587	20895
897.708	20899
897.828	21028
897.949	20796
898.07	20686
898.19	20815
898.311	20963
898.431	20842
898.552	20941
898.672	20769
898.792	20963
898.913	20910
899.033	20781
899.153	20617
899.273	20511
899.393	20541
899.513	20636
899.633	20682
899.753	20644
899.873	20552
899.993	20640
900.113	20541
900.232	20480
900.352	20518
900.472	20450
900.591	20355
900.711	20480
900.83	20294
900.95	20423
901.069	20434
901.189	20278
901.308	20065
901.427	19997
901.546	19913
901.665	19947
901.784	19986
901.904	19776
902.023	19750
902.141	19601
902.26	19487
902.379	19521
902.498	19487
902.617	19525
902.735	19453
902.854	19415
902.973	19381
903.091	19099
903.21	19175
903.328	19114
903.446	18939
903.565	18989
903.683	18894
903.801	18817
903.919	18924
904.038	18954
904.156	18696
904.274	18673
904.392	18646
904.51	18639
904.627	18661
904.745	18700
904.863	18791
904.981	18494
905.098	18422
905.216	18418
905.334	18490
905.451	18448
905.569	18327
905.686	18388
905.803	18342
905.921	18186
906.038	18224
906.155	18186
906.272	18076
906.389	17897
906.506	17927
906.623	17893
906.74	17878
906.857	17642
906.974	17882
907.091	17870
907.208	17901
907.324	17923
907.441	17779
907.557	17585
907.674	17642
907.79	17463
907.907	17596
908.023	17646
908.139	17547
908.256	17505
908.372	17490
908.488	17592
908.604	17337
908.72	17231
908.836	17376
908.952	17360
909.068	17299
909.184	17452
909.3	17345
909.415	17364
909.531	17337
909.647	17006
909.762	16968
909.878	16976
909.993	17037
910.108	17029
910.224	16987
910.339	17060
910.454	16869
910.57	16862
910.685	16721
910.8	17003
910.915	16904
911.03	16862
911.145	16721
911.259	16637
911.374	16611
911.489	16527
911.604	16466
911.718	16287
911.833	16363
911.947	16261
912.062	16139
912.176	16242
912.291	16367
912.405	16284
912.519	16421
912.633	16504
912.748	16344
912.862	16276
912.976	16162
913.09	16074
913.204	15994
913.318	16211
913.431	16192
913.545	16253
913.659	16291
913.772	16169
913.886	15934
914	16036
914.113	16105
914.226	16101
914.34	16082
914.453	15930
914.566	16002
914.68	15888
914.793	15857
914.906	15625
915.019	15538
915.132	15462
915.245	15610
915.358	15599
915.47	15564
915.583	15557
915.696	15580
915.809	15599
915.921	15629
916.034	15496
916.146	15424
916.259	15336
916.371	15447
916.483	15428
916.595	15412
916.708	15325
916.82	15344
916.932	15283
917.044	15321
917.156	15374
917.268	15230
917.38	15192
917.491	15131
917.603	15173
917.715	15218
917.826	15291
917.938	15070
918.049	14994
918.161	15093
918.272	15264
918.384	15135
918.495	15074
918.606	14895
918.717	14796
918.828	14918
918.939	15009
919.05	14788
919.161	14899
919.272	14785
919.383	14781
919.494	14933
919.604	15138
919.715	14975
919.826	14754
919.936	14864
920.047	14952
920.157	14838
920.267	15085
920.378	14876
920.488	14868
920.598	15104
920.708	15173
920.818	15020
920.928	14994
921.038	15188
921.148	15119
921.258	14925
921.368	14625
921.477	14670
921.587	14606
921.697	14408
921.806	14708
921.916	14450
922.025	14408
922.134	14263
922.244	14229
922.353	14298
922.462	14149
922.571	14096
922.68	14024
922.789	13925
922.898	13932
923.007	13807
923.116	13978
923.224	13913
923.333	13879
923.442	13738
923.55	13693
923.659	13719
923.767	13814
923.876	13719
923.984	13723
924.092	13559
924.201	13689
924.309	13559
924.417	13639
924.525	13521
924.633	13525
924.741	14454
924.849	13316
924.956	13487
925.064	13354
925.172	13289
925.279	13266
925.387	13293
925.494	13255
925.602	13441
925.709	13388
925.816	13149
925.924	13107
926.031	13362
926.138	13297
926.245	13278
926.352	13095
926.459	13270
926.566	13240
926.673	13145
926.779	13038
926.886	13012
926.993	12856
927.099	12897
927.206	12783
927.312	12913
927.419	12939
927.525	12776
927.631	12833
927.737	12833
927.843	12760
927.95	12509
928.056	12654
928.162	12692
928.267	12772
928.373	13240
928.479	12810
928.585	12551
928.69	12669
928.796	12616
928.901	12471
929.007	12365
929.112	12566
929.218	12475
929.323	12315
929.428	12311
929.533	12486
929.638	12338
929.743	12391
929.848	12388
929.953	12254
930.058	12243
930.163	12125
930.267	12114
930.372	12163
930.477	12041
930.581	12262
930.685	12003
930.79	11863
930.894	12022
930.998	11870
931.103	12064
931.207	11672
931.311	11573
931.415	11551
931.519	11364
931.623	11311
