Data from test_V78500241_3147.txt Node
Date: Fri Mar 25 15:31:46 CST 2022
User: usil
Spectrometer: V785-0024
Trigger mode: 0
Integration Time (sec): 4.000000E-1
Scans to average: 1
Nonlinearity correction enabled: false
Boxcar width: 0
Storing dark spectrum: false
XAxis mode: Wavelengths
Number of Pixels in Spectrum: 1024
>>>>>Begin Spectral Data<<<<<
801.071	27355
801.214	27256
801.356	26963
801.499	26952
801.641	26750
801.783	26788
801.926	26830
802.068	26765
802.211	26686
802.353	26762
802.496	26503
802.638	26385
802.78	26503
802.923	26393
803.065	26328
803.208	26237
803.35	26305
803.492	26533
803.635	26549
803.777	26415
803.919	26552
804.061	26861
804.204	26705
804.346	26579
804.488	26541
804.63	26537
804.773	26556
804.915	26564
805.057	26674
805.199	26640
805.341	26575
805.483	26746
805.626	26792
805.768	26457
805.91	26697
806.052	26667
806.194	26583
806.336	26815
806.478	26708
806.62	26568
806.762	26857
806.904	26960
807.046	27157
807.188	27093
807.33	27036
807.472	27093
807.614	26990
807.756	27135
807.898	27070
808.04	26792
808.182	26754
808.324	27070
808.465	27005
808.607	27074
808.749	27237
808.891	27374
809.033	27340
809.174	27344
809.316	27116
809.458	27131
809.6	27264
809.741	27386
809.883	27477
810.025	27652
810.166	27656
810.308	27492
810.45	27454
810.591	27454
810.733	27294
810.875	27233
811.016	27192
811.158	27218
811.299	27481
811.441	27344
811.582	27386
811.724	27291
811.865	27249
812.007	27252
812.148	27211
812.29	27279
812.431	27359
812.573	27538
812.714	27526
812.855	27736
812.997	27861
813.138	27972
813.279	27774
813.421	27774
813.562	27728
813.703	27568
813.845	27416
813.986	27146
814.127	26891
814.268	26906
814.41	26967
814.551	26861
814.692	26994
814.833	26872
814.974	26785
815.115	26834
815.256	26667
815.397	26716
815.539	26883
815.68	26712
815.821	26655
815.962	26769
816.103	26640
816.244	26537
816.385	26450
816.526	26415
816.666	26191
816.807	26161
816.948	26183
817.089	26214
817.23	26084
817.371	26187
817.512	26183
817.653	26153
817.793	26103
817.934	26043
818.075	26122
818.216	26081
818.356	26164
818.497	26039
818.638	25906
818.778	25959
818.919	26005
819.06	26024
819.2	26088
819.341	26206
819.481	26153
819.622	26317
819.762	26465
819.903	26400
820.043	26381
820.184	26343
820.324	26313
820.465	26309
820.605	26202
820.746	26100
820.886	26092
821.026	26157
821.167	26206
821.307	26263
821.447	26065
821.588	26161
821.728	25799
821.868	25693
822.008	25700
822.149	25616
822.289	25666
822.429	25266
822.569	25381
822.709	25274
822.849	25209
822.99	25118
823.13	25225
823.27	25046
823.41	24916
823.55	24897
823.69	24909
823.83	24844
823.97	24894
824.11	24715
824.25	24719
824.389	24859
824.529	24677
824.669	24852
824.809	24920
824.949	24863
825.089	24852
825.228	24779
825.368	24589
825.508	24620
825.648	24635
825.787	24635
825.927	24616
826.067	24616
826.206	24471
826.346	24620
826.485	24749
826.625	24559
826.765	24631
826.904	24528
827.044	24384
827.183	24483
827.323	24232
827.462	24388
827.601	24251
827.741	24437
827.88	24342
828.02	24178
828.159	24232
828.298	24327
828.437	24281
828.577	24213
828.716	24380
828.855	24190
828.994	23942
829.134	24117
829.273	24163
829.412	23973
829.551	24034
829.69	24011
829.829	24018
829.968	24121
830.107	24064
830.246	24076
830.385	23912
830.524	23893
830.663	23897
830.802	23726
830.941	23657
831.08	23638
831.219	23760
831.357	23745
831.496	23840
831.635	23608
831.774	23600
831.913	23547
832.051	23471
832.19	23334
832.329	23558
832.467	23421
832.606	23292
832.744	23280
832.883	23265
833.022	23414
833.16	23398
833.299	23334
833.437	23322
833.576	23311
833.714	23341
833.852	23524
833.991	23345
834.129	23630
834.267	23444
834.406	23444
834.544	23505
834.682	23467
834.821	23410
834.959	23509
835.097	23337
835.235	23414
835.373	23326
835.511	23455
835.65	23330
835.788	23197
835.926	23155
836.064	23124
836.202	23067
836.34	23200
836.478	23258
836.615	23200
836.753	23181
836.891	23280
837.029	23254
837.167	23239
837.305	23200
837.443	23094
837.58	22968
837.718	23140
837.856	23178
837.993	23090
838.131	23060
838.269	22930
838.406	22930
838.544	22881
838.681	22809
838.819	22626
838.956	22580
839.094	22672
839.231	22466
839.369	22824
839.506	22953
839.643	22957
839.781	22538
839.918	22371
840.055	22550
840.193	22504
840.33	22542
840.467	22508
840.604	22573
840.742	22771
840.879	22451
841.016	22417
841.153	22409
841.29	22523
841.427	22451
841.564	22512
841.701	22554
841.838	22379
841.975	22402
842.112	22428
842.249	22382
842.385	22268
842.522	22542
842.659	22200
842.796	22246
842.933	22306
843.069	22185
843.206	22223
843.343	22367
843.479	22147
843.616	22249
843.752	22067
843.889	21979
844.025	22284
844.162	21915
844.298	22063
844.435	22101
844.571	22021
844.708	22135
844.844	22211
844.98	22192
845.117	22150
845.253	21960
845.389	21949
845.525	21899
845.661	21827
845.798	21720
845.934	21918
846.07	21850
846.206	21736
846.342	21937
846.478	21679
846.614	21477
846.75	21370
846.886	21557
847.022	21633
847.158	21496
847.294	21458
847.429	21530
847.565	21496
847.701	21713
847.837	21245
847.972	21211
848.108	21374
848.244	21283
848.379	21096
848.515	21146
848.65	21036
848.786	21104
848.921	21020
849.057	21294
849.192	21142
849.328	20979
849.463	21093
849.598	21028
849.734	21112
849.869	21009
850.004	20777
850.14	20883
850.275	20815
850.41	20800
850.545	20750
850.68	20762
850.815	21020
850.95	20804
851.085	21100
851.22	20975
851.355	20921
851.49	20750
851.625	20769
851.76	20792
851.895	20864
852.03	20804
852.165	20826
852.299	20895
852.434	20902
852.569	20826
852.703	20705
852.838	20906
852.973	20944
853.107	21009
853.242	20853
853.376	20754
853.511	20594
853.645	20613
853.78	20781
853.914	20720
854.048	20735
854.183	20651
854.317	20769
854.451	20872
854.585	20705
854.72	20754
854.854	20705
854.988	20579
855.122	20678
855.256	20518
855.39	20659
855.524	20625
855.658	20769
855.792	20746
855.926	20853
856.06	20800
856.194	20815
856.327	20545
856.461	20659
856.595	20594
856.729	20701
856.862	20823
856.996	20773
857.13	20682
857.263	20811
857.397	20693
857.53	20625
857.664	20708
857.797	20705
857.931	20845
858.064	20674
858.197	20720
858.331	20659
858.464	20701
858.597	20674
858.731	20625
858.864	20663
858.997	20625
859.13	20746
859.263	20667
859.396	20754
859.529	20621
859.662	20640
859.795	20644
859.928	20651
860.061	20769
860.194	20727
860.327	20796
860.46	20701
860.592	20746
860.725	20796
860.858	20773
860.99	20629
861.123	20705
861.256	20716
861.388	20697
861.521	21264
861.653	20400
861.786	20446
861.918	20598
862.05	20537
862.183	20511
862.315	20636
862.447	20682
862.58	20625
862.712	20358
862.844	20385
862.976	20473
863.108	20427
863.24	20815
863.372	20282
863.504	20560
863.636	20286
863.768	20404
863.9	20377
864.032	20324
864.164	20377
864.296	20366
864.428	20518
864.559	20427
864.691	20568
864.823	20438
864.954	20457
865.086	20339
865.217	20252
865.349	20149
865.48	20305
865.612	20351
865.743	20461
865.875	20301
866.006	20370
866.137	20248
866.269	20225
866.4	20294
866.531	20370
866.662	20252
866.793	20214
866.924	20263
867.055	20180
867.186	20256
867.317	20252
867.448	20130
867.579	20324
867.71	19997
867.841	20130
867.972	20267
868.103	20218
868.233	20256
868.364	20438
868.495	20358
868.625	20438
868.756	20579
868.886	20522
869.017	20526
869.147	20594
869.278	20648
869.408	20598
869.539	20488
869.669	20598
869.799	20617
869.929	20541
870.06	20495
870.19	20834
870.32	20849
870.45	20785
870.58	20967
870.71	20944
870.84	20963
870.97	20754
871.1	20853
871.23	21047
871.36	21112
871.489	20937
871.619	20921
871.749	21047
871.879	21062
872.008	21180
872.138	21066
872.267	21081
872.397	21009
872.526	20906
872.656	20902
872.785	20880
872.915	21203
873.044	21138
873.173	21089
873.303	21142
873.432	21119
873.561	21138
873.69	21108
873.819	21104
873.948	21173
874.077	21093
874.206	21127
874.335	21096
874.464	21431
874.593	21237
874.722	21344
874.851	21363
874.979	21344
875.108	21469
875.237	21363
875.365	21329
875.494	21412
875.623	21412
875.751	21397
875.88	21393
876.008	21439
876.136	21511
876.265	21804
876.393	21899
876.521	21797
876.65	21880
876.778	21686
876.906	21663
877.034	21732
877.162	21720
877.29	21633
877.418	21694
877.546	21842
877.674	21717
877.802	21701
877.93	21564
878.058	21595
878.185	21644
878.313	21641
878.441	21770
878.568	21614
878.696	21641
878.824	21823
878.951	21793
879.079	21778
879.206	21945
879.333	21766
879.461	21793
879.588	21903
879.715	21930
879.842	22036
879.97	21819
880.097	21545
880.224	21629
880.351	21641
880.478	21568
880.605	21530
880.732	21599
880.859	21793
880.986	21515
881.112	21576
881.239	21458
881.366	21275
881.493	21195
881.619	21176
881.746	21070
881.872	21192
881.999	21108
882.125	21127
882.252	21268
882.378	21100
882.505	21230
882.631	21058
882.757	20941
882.883	21055
883.01	20899
883.136	20838
883.262	20773
883.388	20670
883.514	20834
883.64	20887
883.766	20815
883.892	20602
884.018	20735
884.143	20811
884.269	20895
884.395	20644
884.52	20476
884.646	20457
884.772	20355
884.897	20408
885.023	20549
885.148	20583
885.274	20632
885.399	20530
885.524	20644
885.65	20537
885.775	20594
885.9	20495
886.025	20629
886.15	20541
886.275	20625
886.4	20374
886.525	20549
886.65	20568
886.775	20480
886.9	20644
887.025	20781
887.149	20457
887.274	20374
887.399	20389
887.523	20328
887.648	20195
887.773	20183
887.897	20400
888.021	20275
888.146	20157
888.27	20256
888.395	20541
888.519	20324
888.643	20252
888.767	20286
888.891	20138
889.015	20096
889.139	20161
889.263	20065
889.387	20180
889.511	20362
889.635	20191
889.759	20073
889.883	20107
890.006	20096
890.13	20176
890.254	20069
890.377	19913
890.501	19887
890.624	19814
890.748	19868
890.871	19704
890.995	19601
891.118	19616
891.241	19780
891.364	19647
891.488	19708
891.611	19719
891.734	19651
891.857	19624
891.98	19674
892.103	19719
892.226	19681
892.349	19559
892.471	19552
892.594	19521
892.717	19586
892.839	19563
892.962	19677
893.085	19708
893.207	19575
893.33	19460
893.452	19533
893.575	19590
893.697	19616
893.819	19704
893.941	19708
894.064	19753
894.186	19499
894.308	19472
894.43	19666
894.552	19811
894.674	19674
894.796	19438
894.918	19605
895.04	19552
895.161	19655
895.283	19635
895.405	19586
895.526	19563
895.648	19620
895.769	19666
895.891	19639
896.012	19537
896.134	19670
896.255	19674
896.376	19514
896.498	19575
896.619	19480
896.74	19624
896.861	19715
896.982	19868
897.103	19944
897.224	19807
897.345	19917
897.466	19662
897.587	19852
897.708	19913
897.828	19940
897.949	19791
898.07	19601
898.19	19769
898.311	19906
898.431	19731
898.552	19818
898.672	19814
898.792	19913
898.913	19898
899.033	19700
899.153	19742
899.273	19559
899.393	19525
899.513	19571
899.633	19685
899.753	19651
899.873	19597
899.993	19632
900.113	19605
900.232	19453
900.352	19582
900.472	19384
900.591	19358
900.711	19445
900.83	19343
900.95	19441
901.069	19358
901.189	19289
901.308	19084
901.427	19027
901.546	19015
901.665	18977
901.784	18989
901.904	18890
902.023	18661
902.141	18525
902.26	18506
902.379	18700
902.498	18429
902.617	18414
902.735	18486
902.854	18467
902.973	18342
903.091	18232
903.21	18239
903.328	18148
903.446	18068
903.565	18034
903.683	18019
903.801	17813
903.919	17927
904.038	17809
904.156	17760
904.274	17840
904.392	17661
904.51	17687
904.627	17741
904.745	17798
904.863	17821
904.981	17497
905.098	17471
905.216	17334
905.334	17433
905.451	17406
905.569	17429
905.686	17345
905.803	17395
905.921	17216
906.038	17216
906.155	17254
906.272	17128
906.389	17136
906.506	16816
906.623	16961
906.74	16858
906.857	16843
906.974	16896
907.091	16976
907.208	17117
907.324	16987
907.441	16892
907.557	16706
907.674	16660
907.79	16599
907.907	16592
908.023	16599
908.139	16694
908.256	16527
908.372	16596
908.488	16402
908.604	16466
908.72	16405
908.836	16341
908.952	16504
909.068	16356
909.184	16413
909.3	16348
909.415	16371
909.531	16268
909.647	16128
909.762	16067
909.878	16048
909.993	16082
910.108	16036
910.224	16048
910.339	16078
910.454	15949
910.57	15907
910.685	15781
910.8	16109
910.915	15956
911.03	16002
911.145	15739
911.259	15705
911.374	15686
911.489	15720
911.604	15450
911.718	15386
911.833	15485
911.947	15382
912.062	15382
912.176	15595
912.291	15481
912.405	15515
912.519	15591
912.633	15500
912.748	15473
912.862	15428
912.976	15306
913.09	15233
913.204	15264
913.318	15302
913.431	15412
913.545	15397
913.659	15443
913.772	15123
913.886	15104
914	14990
914.113	15256
914.226	15279
914.34	15070
914.453	15013
914.566	15100
914.68	14902
914.793	15058
914.906	14743
915.019	14648
915.132	14590
915.245	14613
915.358	14735
915.47	14701
915.583	14724
915.696	14689
915.809	14800
915.921	14800
916.034	14636
916.146	14568
916.259	14552
916.371	14667
916.483	14682
916.595	14537
916.708	14648
916.82	14552
916.932	14518
917.044	14499
917.156	14457
917.268	14351
917.38	14404
917.491	14438
917.603	14328
917.715	14454
917.826	14393
917.938	14366
918.049	14221
918.161	14275
918.272	14503
918.384	14412
918.495	14286
918.606	14214
918.717	14077
918.828	14176
918.939	14077
919.05	14027
919.161	14191
919.272	13849
919.383	13940
919.494	14180
919.604	14324
919.715	14039
919.826	14123
919.936	14145
920.047	14221
920.157	13989
920.267	14278
920.378	14210
920.488	14107
920.598	14244
920.708	14415
920.818	14145
920.928	14278
921.038	14415
921.148	14294
921.258	14096
921.368	13940
921.477	13811
921.587	13890
921.697	13727
921.806	13860
921.916	13784
922.025	13594
922.134	13518
922.244	13396
922.353	13559
922.462	13453
922.571	13331
922.68	13141
922.789	13156
922.898	13202
923.007	13095
923.116	13164
923.224	13149
923.333	13076
923.442	13012
923.55	12973
923.659	13118
923.767	12996
923.876	12882
923.984	12916
924.092	12844
924.201	12848
924.309	12920
924.417	12886
924.525	12772
924.633	12848
924.741	13712
924.849	12566
924.956	12753
925.064	12623
925.172	12502
925.279	12574
925.387	12528
925.494	12547
925.602	12700
925.709	12673
925.816	12494
925.924	12517
926.031	12608
926.138	12555
926.245	12662
926.352	12369
926.459	12612
926.566	12662
926.673	12490
926.779	12376
926.886	12342
926.993	12167
927.099	12159
927.206	12110
927.312	12182
927.419	12190
927.525	12167
927.631	12197
927.737	12079
927.843	12064
927.95	11824
928.056	12026
928.162	11980
928.267	12034
928.373	12612
928.479	12053
928.585	11878
928.69	12007
928.796	11916
928.901	11904
929.007	11707
929.112	11863
929.218	11775
929.323	11710
929.428	11592
929.533	11824
929.638	11619
929.743	11642
929.848	11695
929.953	11649
930.058	11551
930.163	11421
930.267	11433
930.372	11611
930.477	11417
930.581	11604
930.685	11535
930.79	11292
930.894	11353
930.998	11269
931.103	11368
931.207	11037
931.311	11071
931.415	10869
931.519	10740
931.623	10752
