Data from test_V78500241_2441.txt Node
Date: Fri Mar 25 15:26:51 CST 2022
User: usil
Spectrometer: V785-0024
Trigger mode: 0
Integration Time (sec): 4.000000E-1
Scans to average: 1
Nonlinearity correction enabled: false
Boxcar width: 0
Storing dark spectrum: false
XAxis mode: Wavelengths
Number of Pixels in Spectrum: 1024
>>>>>Begin Spectral Data<<<<<
801.071	26910
801.214	27119
801.356	26819
801.499	26682
801.641	26629
801.783	26632
801.926	26507
802.068	26583
802.211	26396
802.353	26530
802.496	26172
802.638	26180
802.78	26180
802.923	26100
803.065	26016
803.208	26035
803.35	26244
803.492	26199
803.635	26469
803.777	26233
803.919	26301
804.061	26670
804.204	26495
804.346	26358
804.488	26195
804.63	26305
804.773	26221
804.915	26374
805.057	26423
805.199	26290
805.341	26453
805.483	26533
805.626	26404
805.768	26362
805.91	26503
806.052	26575
806.194	26298
806.336	26636
806.478	26419
806.62	26461
806.762	26434
806.904	26537
807.046	27005
807.188	26823
807.33	26876
807.472	26830
807.614	26743
807.756	26830
807.898	26686
808.04	26412
808.182	26686
808.324	26750
808.465	26777
808.607	26967
808.749	26975
808.891	27070
809.033	27207
809.174	26982
809.316	27032
809.458	27093
809.6	27089
809.741	27028
809.883	27081
810.025	27329
810.166	27203
810.308	27260
810.45	27264
810.591	27199
810.733	27013
810.875	26933
811.016	26864
811.158	26811
811.299	27051
811.441	27131
811.582	27096
811.724	26952
811.865	26823
812.007	27009
812.148	26940
812.29	27039
812.431	27199
812.573	27348
812.714	27329
812.855	27519
812.997	27595
813.138	27724
813.279	27500
813.421	27507
813.562	27485
813.703	27310
813.845	27161
813.986	27142
814.127	26670
814.268	26640
814.41	26590
814.551	26686
814.692	26769
814.833	26678
814.974	26507
815.115	26689
815.256	26587
815.397	26492
815.539	26511
815.68	26480
815.821	26298
815.962	26609
816.103	26461
816.244	26305
816.385	26290
816.526	26172
816.666	25932
816.807	25879
816.948	25974
817.089	25947
817.23	25940
817.371	25887
817.512	25898
817.653	25841
817.793	25788
817.934	25951
818.075	25993
818.216	25818
818.356	25909
818.497	25894
818.638	25620
818.778	25670
818.919	25620
819.06	25723
819.2	25898
819.341	25780
819.481	26024
819.622	26001
819.762	26206
819.903	26145
820.043	26012
820.184	26084
820.324	25959
820.465	26195
820.605	26046
820.746	25951
820.886	25841
821.026	26024
821.167	26024
821.307	26107
821.447	25887
821.588	25772
821.728	25677
821.868	25369
822.008	25510
822.149	25346
822.289	25343
822.429	25114
822.569	25251
822.709	25095
822.849	25034
822.99	24787
823.13	24654
823.27	24852
823.41	24738
823.55	24585
823.69	24650
823.83	24688
823.97	24677
824.11	24464
824.25	24513
824.389	24357
824.529	24688
824.669	24391
824.809	24544
824.949	24639
825.089	24673
825.228	24623
825.368	24399
825.508	24414
825.648	24410
825.787	24327
825.927	24346
826.067	24353
826.206	24304
826.346	24429
826.485	24369
826.625	24292
826.765	24509
826.904	24475
827.044	24125
827.183	24125
827.323	24022
827.462	24053
827.601	24060
827.741	24148
827.88	24140
828.02	23882
828.159	24060
828.298	24117
828.437	24060
828.577	24038
828.716	24106
828.855	23897
828.994	23726
829.134	23733
829.273	23904
829.412	23767
829.551	23714
829.69	23764
829.829	23832
829.968	24015
830.107	23882
830.246	23847
830.385	23589
830.524	23726
830.663	23642
830.802	23531
830.941	23360
831.08	23376
831.219	23387
831.357	23440
831.496	23547
831.635	23406
831.774	23337
831.913	23372
832.051	23166
832.19	23136
832.329	23220
832.467	23117
832.606	22991
832.744	22949
832.883	23056
833.022	22987
833.16	23140
833.299	23079
833.437	23090
833.576	23178
833.714	23071
833.852	23239
833.991	23284
834.129	23052
834.267	23185
834.406	23117
834.544	23079
834.682	23178
834.821	23143
834.959	23334
835.097	23075
835.235	23254
835.373	23132
835.511	23147
835.65	22946
835.788	22991
835.926	22774
836.064	22995
836.202	22839
836.34	23151
836.478	23006
836.615	23003
836.753	23022
836.891	23025
837.029	23064
837.167	22984
837.305	22869
837.443	22881
837.58	22847
837.718	22919
837.856	22858
837.993	22805
838.131	22919
838.269	22885
838.406	22713
838.544	22569
838.681	22512
838.819	22470
838.956	22428
839.094	22325
839.231	22417
839.369	22538
839.506	22653
839.643	22500
839.781	22417
839.918	22299
840.055	22314
840.193	22512
840.33	22303
840.467	22188
840.604	22314
840.742	22478
840.879	22169
841.016	22291
841.153	22105
841.29	22417
841.427	22299
841.564	22348
841.701	22253
841.838	22143
841.975	22169
842.112	22131
842.249	22112
842.385	22036
842.522	22128
842.659	22131
842.796	21991
842.933	21968
843.069	22074
843.206	21884
843.343	22074
843.479	21960
843.616	22048
843.752	21850
843.889	21907
844.025	21934
844.162	21675
844.298	21907
844.435	21812
844.571	21835
844.708	21766
844.844	21964
844.98	21926
845.117	21884
845.253	21717
845.389	21698
845.525	21686
845.661	21861
845.798	21523
845.934	21614
846.07	21553
846.206	21641
846.342	21587
846.478	21526
846.614	21386
846.75	21298
846.886	21245
847.022	21291
847.158	21249
847.294	21386
847.429	21275
847.565	21310
847.701	21458
847.837	21024
847.972	21009
848.108	21093
848.244	21043
848.379	20925
848.515	20838
848.65	20708
848.786	20956
848.921	20979
849.057	20960
849.192	20887
849.328	20952
849.463	20944
849.598	20921
849.734	20777
849.869	20792
850.004	20602
850.14	20617
850.275	20651
850.41	20511
850.545	20579
850.68	20674
850.815	20705
850.95	20613
851.085	20876
851.22	20811
851.355	20689
851.49	20629
851.625	20625
851.76	20670
851.895	20495
852.03	20583
852.165	20594
852.299	20602
852.434	20750
852.569	20777
852.703	20689
852.838	20739
852.973	20693
853.107	20701
853.242	20598
853.376	20526
853.511	20278
853.645	20389
853.78	20518
853.914	20537
854.048	20507
854.183	20457
854.317	20431
854.451	20659
854.585	20629
854.72	20495
854.854	20575
854.988	20438
855.122	20507
855.256	20339
855.39	20499
855.524	20556
855.658	20526
855.792	20507
855.926	20526
856.06	20541
856.194	20701
856.327	20328
856.461	20339
856.595	20404
856.729	20381
856.862	20465
856.996	20476
857.13	20579
857.263	20632
857.397	20492
857.53	20507
857.664	20423
857.797	20465
857.931	20575
858.064	20400
858.197	20625
858.331	20377
858.464	20427
858.597	20358
858.731	20355
858.864	20450
858.997	20358
859.13	20423
859.263	20507
859.396	20454
859.529	20526
859.662	20438
859.795	20415
859.928	20396
860.061	20606
860.194	20834
860.327	20556
860.46	20438
860.592	20678
860.725	20583
860.858	20693
860.99	20461
861.123	20370
861.256	20408
861.388	20461
861.521	21047
861.653	20355
861.786	20351
861.918	20195
862.05	20259
862.183	20450
862.315	20355
862.447	20313
862.58	20301
862.712	20195
862.844	20119
862.976	20221
863.108	20244
863.24	20446
863.372	20100
863.504	20164
863.636	20237
863.768	20138
863.9	20248
864.032	20153
864.164	20096
864.296	20225
864.428	20294
864.559	20290
864.691	20199
864.823	20214
864.954	20138
865.086	20149
865.217	20073
865.349	20016
865.48	20077
865.612	20058
865.743	20176
865.875	20107
866.006	20031
866.137	20088
866.269	20153
866.4	20069
866.531	19993
866.662	19974
866.793	19951
866.924	19970
867.055	20111
867.186	20039
867.317	20027
867.448	20062
867.579	20027
867.71	19947
867.841	19978
867.972	20039
868.103	19906
868.233	19982
868.364	19997
868.495	20176
868.625	20313
868.756	20385
868.886	20240
869.017	20267
869.147	20347
869.278	20362
869.408	20290
869.539	20237
869.669	20377
869.799	20263
869.929	20377
870.06	20442
870.19	20590
870.32	20514
870.45	20526
870.58	20598
870.71	20701
870.84	20800
870.97	20724
871.1	20708
871.23	20830
871.36	20857
871.489	20891
871.619	20941
871.749	20883
871.879	20861
872.008	20971
872.138	20910
872.267	20883
872.397	20834
872.526	20701
872.656	20785
872.785	20727
872.915	20941
873.044	20990
873.173	20762
873.303	20994
873.432	20963
873.561	20986
873.69	20887
873.819	20883
873.948	20834
874.077	20986
874.206	20796
874.335	20921
874.464	21028
874.593	21150
874.722	21116
874.851	21169
874.979	21184
875.108	21199
875.237	21085
875.365	20982
875.494	21169
875.623	21237
875.751	21089
875.88	21298
876.008	21207
876.136	21321
876.265	21538
876.393	21705
876.521	21599
876.65	21599
876.778	21549
876.906	21652
877.034	21458
877.162	21428
877.29	21439
877.418	21458
877.546	21504
877.674	21564
877.802	21454
877.93	21443
878.058	21485
878.185	21382
878.313	21454
878.441	21526
878.568	21405
878.696	21519
878.824	21500
878.951	21443
879.079	21625
879.206	21861
879.333	21553
879.461	21538
879.588	21549
879.715	21622
879.842	21629
879.97	21641
880.097	21279
880.224	21233
880.351	21370
880.478	21351
880.605	21260
880.732	21336
880.859	21526
880.986	21291
881.112	21397
881.239	21169
881.366	21142
881.493	20971
881.619	20876
881.746	20937
881.872	20914
881.999	20921
882.125	20845
882.252	20948
882.378	20876
882.505	20979
882.631	20762
882.757	20731
882.883	20648
883.01	20636
883.136	20579
883.262	20579
883.388	20404
883.514	20727
883.64	20564
883.766	20556
883.892	20263
884.018	20362
884.143	20632
884.269	20632
884.395	20396
884.52	20259
884.646	20404
884.772	20225
884.897	20214
885.023	20237
885.148	20233
885.274	20374
885.399	20343
885.524	20309
885.65	20339
885.775	20252
885.9	20248
886.025	20377
886.15	20332
886.275	20240
886.4	20214
886.525	20305
886.65	20172
886.775	20191
886.9	20362
887.025	20434
887.149	20172
887.274	20191
887.399	20054
887.523	19925
887.648	20069
887.773	20005
887.897	20145
888.021	20103
888.146	20035
888.27	20176
888.395	20237
888.519	20142
888.643	20195
888.767	20069
888.891	19974
889.015	19932
889.139	19887
889.263	19898
889.387	19864
889.511	20046
889.635	20001
889.759	19921
889.883	19902
890.006	19864
890.13	19913
890.254	19814
890.377	19860
890.501	19700
890.624	19597
890.748	19632
890.871	19563
890.995	19445
891.118	19438
891.241	19499
891.364	19472
891.488	19556
891.611	19480
891.734	19468
891.857	19468
891.98	19392
892.103	19540
892.226	19514
892.349	19362
892.471	19293
892.594	19457
892.717	19460
892.839	19396
892.962	19407
893.085	19441
893.207	19426
893.33	19297
893.452	19297
893.575	19529
893.697	19339
893.819	19506
893.941	19632
894.064	19441
894.186	19282
894.308	19289
894.43	19495
894.552	19525
894.674	19388
894.796	19225
894.918	19400
895.04	19324
895.161	19320
895.283	19365
895.405	19320
895.526	19415
895.648	19377
895.769	19434
895.891	19388
896.012	19468
896.134	19537
896.255	19384
896.376	19266
896.498	19384
896.619	19335
896.74	19362
896.861	19422
896.982	19727
897.103	19830
897.224	19620
897.345	19575
897.466	19658
897.587	19624
897.708	19677
897.828	19658
897.949	19468
898.07	19525
898.19	19468
898.311	19761
898.431	19533
898.552	19635
898.672	19658
898.792	19632
898.913	19586
899.033	19540
899.153	19362
899.273	19270
899.393	19346
899.513	19411
899.633	19324
899.753	19403
899.873	19339
899.993	19373
900.113	19381
900.232	19270
900.352	19282
900.472	19213
900.591	19152
900.711	19099
900.83	19160
900.95	19304
901.069	19266
901.189	19091
901.308	18848
901.427	18707
901.546	18722
901.665	18760
901.784	18768
901.904	18517
902.023	18494
902.141	18372
902.26	18338
902.379	18380
902.498	18285
902.617	18178
902.735	18224
902.854	18194
902.973	18190
903.091	17977
903.21	17870
903.328	17988
903.446	17931
903.565	17722
903.683	17745
903.801	17649
903.919	17733
904.038	17672
904.156	17467
904.274	17707
904.392	17570
904.51	17524
904.627	17421
904.745	17539
904.863	17566
904.981	17318
905.098	17273
905.216	17261
905.334	17235
905.451	17208
905.569	17216
905.686	17193
905.803	17220
905.921	16949
906.038	17147
906.155	16999
906.272	16892
906.389	16908
906.506	16911
906.623	16752
906.74	16733
906.857	16656
906.974	16611
907.091	16786
907.208	16854
907.324	16850
907.441	16672
907.557	16466
907.674	16466
907.79	16493
907.907	16447
908.023	16409
908.139	16432
908.256	16489
908.372	16352
908.488	16341
908.604	16147
908.72	16101
908.836	16105
908.952	16135
909.068	16196
909.184	16322
909.3	16166
909.415	16246
909.531	16211
909.647	16013
909.762	15922
909.878	15895
909.993	15975
910.108	15888
910.224	15918
910.339	15865
910.454	15785
910.57	15816
910.685	15576
910.8	15930
910.915	15819
911.03	15747
911.145	15553
911.259	15492
911.374	15469
911.489	15374
911.604	15389
911.718	15188
911.833	15165
911.947	15199
912.062	15161
912.176	15192
912.291	15256
912.405	15184
912.519	15374
912.633	15370
912.748	15260
912.862	15321
912.976	15081
913.09	14925
913.204	15077
913.318	15108
913.431	15192
913.545	15184
913.659	15138
913.772	14910
913.886	14929
914	14899
914.113	14948
914.226	15032
914.34	14887
914.453	14811
914.566	14842
914.68	14773
914.793	14701
914.906	14518
915.019	14469
915.132	14446
915.245	14583
915.358	14568
915.47	14545
915.583	14579
915.696	14571
915.809	14617
915.921	14533
916.034	14533
916.146	14465
916.259	14434
916.371	14511
916.483	14511
916.595	14431
916.708	14347
916.82	14298
916.932	14275
917.044	14290
917.156	14244
917.268	14161
917.38	14195
917.491	14256
917.603	14240
917.715	14225
917.826	14298
917.938	14138
918.049	13959
918.161	14126
918.272	14267
918.384	14256
918.495	14199
918.606	14020
918.717	13959
918.828	14058
918.939	14046
919.05	13868
919.161	13864
919.272	13769
919.383	13746
919.494	13932
919.604	14081
919.715	13902
919.826	13837
919.936	13936
920.047	13947
920.157	13947
920.267	14157
920.378	13917
920.488	13894
920.598	14062
920.708	14210
920.818	14149
920.928	14199
921.038	14214
921.148	14142
921.258	13906
921.368	13833
921.477	13822
921.587	13651
921.697	13506
921.806	13639
921.916	13537
922.025	13369
922.134	13312
922.244	13266
922.353	13453
922.462	13240
922.571	13103
922.68	12954
922.789	12970
922.898	12951
923.007	12958
923.116	12993
923.224	12962
923.333	12993
923.442	12920
923.55	12802
923.659	12924
923.767	12905
923.876	12829
923.984	12890
924.092	12730
924.201	12802
924.309	12863
924.417	12810
924.525	12764
924.633	12650
924.741	13620
924.849	12502
924.956	12589
925.064	12448
925.172	12414
925.279	12467
925.387	12486
925.494	12414
925.602	12555
925.709	12570
925.816	12380
925.924	12475
926.031	12467
926.138	12410
926.245	12498
926.352	12262
926.459	12498
926.566	12502
926.673	12353
926.779	12228
926.886	12159
926.993	12095
927.099	12072
927.206	11977
927.312	12015
927.419	12060
927.525	12083
927.631	12003
927.737	12053
927.843	11931
927.95	11840
928.056	11889
928.162	11946
928.267	11874
928.373	12536
928.479	12026
928.585	11695
928.69	11851
928.796	11942
928.901	11718
929.007	11630
929.112	11745
929.218	11767
929.323	11657
929.428	11535
929.533	11859
929.638	11638
929.743	11630
929.848	11665
929.953	11501
930.058	11486
930.163	11322
930.267	11364
930.372	11512
930.477	11231
930.581	11634
930.685	11376
930.79	11277
930.894	11201
930.998	11170
931.103	11303
931.207	10984
931.311	11014
931.415	10843
931.519	10656
931.623	10675
