Data from test_V78500241_1090.txt Node
Date: Fri Mar 25 15:17:26 CST 2022
User: usil
Spectrometer: V785-0024
Trigger mode: 0
Integration Time (sec): 4.000000E-1
Scans to average: 1
Nonlinearity correction enabled: false
Boxcar width: 0
Storing dark spectrum: false
XAxis mode: Wavelengths
Number of Pixels in Spectrum: 1024
>>>>>Begin Spectral Data<<<<<
801.071	28363
801.214	28314
801.356	28139
801.499	28074
801.641	27949
801.783	27895
801.926	27956
802.068	27941
802.211	27998
802.353	27690
802.496	27587
802.638	27351
802.78	27538
802.923	27603
803.065	27485
803.208	27488
803.35	27507
803.492	27603
803.635	27599
803.777	27663
803.919	27728
804.061	27983
804.204	27949
804.346	27629
804.488	27701
804.63	27724
804.773	27793
804.915	27755
805.057	27804
805.199	27728
805.341	27842
805.483	27895
805.626	27812
805.768	27831
805.91	27949
806.052	27827
806.194	27911
806.336	28150
806.478	28086
806.62	28055
806.762	28078
806.904	28131
807.046	28485
807.188	28428
807.33	28382
807.472	28428
807.614	28303
807.756	28287
807.898	28196
808.04	28169
808.182	28185
808.324	28230
808.465	28276
808.607	28493
808.749	28630
808.891	28634
809.033	28740
809.174	28599
809.316	28599
809.458	28493
809.6	28573
809.741	28630
809.883	28752
810.025	28881
810.166	28843
810.308	28987
810.45	28702
810.591	28664
810.733	28512
810.875	28622
811.016	28519
811.158	28337
811.299	28683
811.441	28812
811.582	28786
811.724	28542
811.865	28561
812.007	28630
812.148	28660
812.29	28649
812.431	28828
812.573	28866
812.714	28968
812.855	29200
812.997	29079
813.138	29288
813.279	29375
813.421	29181
813.562	29242
813.703	29014
813.845	28866
813.986	28516
814.127	28451
814.268	28310
814.41	28246
814.551	28261
814.692	28394
814.833	28150
814.974	28325
815.115	28226
815.256	28025
815.397	28101
815.539	28257
815.68	28116
815.821	28059
815.962	27960
816.103	28074
816.244	28021
816.385	27911
816.526	27956
816.666	27690
816.807	27675
816.948	27724
817.089	27720
817.23	27641
817.371	27690
817.512	27561
817.653	27583
817.793	27679
817.934	27557
818.075	27549
818.216	27610
818.356	27500
818.497	27477
818.638	27370
818.778	27367
818.919	27367
819.06	27393
819.2	27511
819.341	27515
819.481	27629
819.622	27835
819.762	27934
819.903	27907
820.043	27789
820.184	27827
820.324	27774
820.465	27827
820.605	27850
820.746	27739
820.886	27583
821.026	27785
821.167	27660
821.307	27850
821.447	27663
821.588	27618
821.728	27249
821.868	27233
822.008	27085
822.149	27066
822.289	27100
822.429	26765
822.569	26853
822.709	26739
822.849	26788
822.99	26708
823.13	26556
823.27	26674
823.41	26446
823.55	26370
823.69	26545
823.83	26507
823.97	26465
824.11	26214
824.25	26237
824.389	26381
824.529	26434
824.669	26282
824.809	26393
824.949	26457
825.089	26294
825.228	26343
825.368	26111
825.508	26206
825.648	26107
825.787	26126
825.927	26062
826.067	26195
826.206	26020
826.346	26225
826.485	26111
826.625	26218
826.765	26377
826.904	26103
827.044	25966
827.183	25940
827.323	25909
827.462	25940
827.601	25932
827.741	25944
827.88	25868
828.02	25742
828.159	25833
828.298	25970
828.437	25944
828.577	25925
828.716	25982
828.855	25772
828.994	25639
829.134	25605
829.273	25586
829.412	25540
829.551	25441
829.69	25632
829.829	25624
829.968	25662
830.107	25734
830.246	25605
830.385	25597
830.524	25613
830.663	25533
830.802	25453
830.941	25171
831.08	25129
831.219	25343
831.357	25274
831.496	25362
831.635	25259
831.774	25057
831.913	25088
832.051	25145
832.19	24996
832.329	25000
832.467	24977
832.606	24916
832.744	24776
832.883	24871
833.022	24833
833.16	24863
833.299	24829
833.437	24886
833.576	24886
833.714	24954
833.852	25008
833.991	24901
834.129	25015
834.267	25133
834.406	24856
834.544	24928
834.682	24989
834.821	24913
834.959	24981
835.097	24943
835.235	24962
835.373	24970
835.511	24924
835.65	24798
835.788	24837
835.926	24688
836.064	24642
836.202	24700
836.34	24871
836.478	24935
836.615	24722
836.753	24776
836.891	24932
837.029	24795
837.167	24795
837.305	24673
837.443	24772
837.58	24722
837.718	24681
837.856	24707
837.993	24604
838.131	24570
838.269	24521
838.406	24635
838.544	24521
838.681	24334
838.819	24159
838.956	24106
839.094	23904
839.231	24232
839.369	24289
839.506	24403
839.643	24338
839.781	24121
839.918	23969
840.055	24129
840.193	24114
840.33	24026
840.467	24034
840.604	24003
840.742	24254
840.879	23927
841.016	24007
841.153	23916
841.29	24095
841.427	23999
841.564	23977
841.701	24068
841.838	23882
841.975	23935
842.112	23851
842.249	23843
842.385	23805
842.522	24053
842.659	23863
842.796	23737
842.933	23798
843.069	23615
843.206	23760
843.343	23859
843.479	23653
843.616	23657
843.752	23600
843.889	23657
844.025	23824
844.162	23539
844.298	23684
844.435	23551
844.571	23551
844.708	23615
844.844	23714
844.98	23680
845.117	23745
845.253	23707
845.389	23478
845.525	23471
845.661	23406
845.798	23265
845.934	23273
846.07	23189
846.206	23231
846.342	23353
846.478	23299
846.614	23090
846.75	22771
846.886	22953
847.022	23140
847.158	23132
847.294	23124
847.429	23006
847.565	22930
847.701	23250
847.837	22653
847.972	22786
848.108	22900
848.244	22793
848.379	22584
848.515	22641
848.65	22561
848.786	22550
848.921	22569
849.057	22713
849.192	22736
849.328	22641
849.463	22622
849.598	22565
849.734	22497
849.869	22386
850.004	22459
850.14	22295
850.275	22382
850.41	22360
850.545	22337
850.68	22443
850.815	22341
850.95	22253
851.085	22565
851.22	22481
851.355	22459
851.49	22405
851.625	22363
851.76	22417
851.895	22265
852.03	22329
852.165	22360
852.299	22398
852.434	22443
852.569	22436
852.703	22443
852.838	22455
852.973	22379
853.107	22447
853.242	22352
853.376	22185
853.511	22017
853.645	22139
853.78	22268
853.914	22204
854.048	22181
854.183	22150
854.317	22147
854.451	22455
854.585	22291
854.72	22162
854.854	22223
854.988	22093
855.122	22181
855.256	21930
855.39	22150
855.524	22166
855.658	22306
855.792	22306
855.926	22128
856.06	22154
856.194	22310
856.327	22090
856.461	22067
856.595	22253
856.729	22150
856.862	22268
856.996	22226
857.13	22226
857.263	22341
857.397	22181
857.53	22173
857.664	22249
857.797	22200
857.931	22272
858.064	22131
858.197	22211
858.331	22204
858.464	22112
858.597	22097
858.731	22207
858.864	22173
858.997	22090
859.13	22284
859.263	22223
859.396	22417
859.529	22078
859.662	22048
859.795	22105
859.928	22219
860.061	22341
860.194	22375
860.327	22272
860.46	22265
860.592	22276
860.725	22318
860.858	22215
860.99	22116
861.123	22048
861.256	22063
861.388	22093
861.521	22801
861.653	21941
861.786	22067
861.918	21926
862.05	22074
862.183	22116
862.315	22070
862.447	22150
862.58	22162
862.712	22131
862.844	21960
862.976	22063
863.108	21930
863.24	22466
863.372	21934
863.504	21937
863.636	21865
863.768	21907
863.9	21918
864.032	21873
864.164	21926
864.296	21861
864.428	21926
864.559	21800
864.691	21972
864.823	21827
864.954	21736
865.086	21850
865.217	21720
865.349	21648
865.48	21778
865.612	21827
865.743	21854
865.875	21804
866.006	21717
866.137	21797
866.269	21895
866.4	21797
866.531	21701
866.662	21705
866.793	21709
866.924	21656
867.055	21690
867.186	21667
867.317	21789
867.448	21595
867.579	21679
867.71	21549
867.841	21614
867.972	21709
868.103	21709
868.233	21759
868.364	21690
868.495	21717
868.625	21945
868.756	21926
868.886	21732
869.017	21926
869.147	21979
869.278	22040
869.408	21903
869.539	21892
869.669	22006
869.799	21945
869.929	22025
870.06	22059
870.19	22284
870.32	22207
870.45	22291
870.58	22265
870.71	22478
870.84	22478
870.97	22352
871.1	22314
871.23	22573
871.36	22546
871.489	22436
871.619	22390
871.749	22481
871.879	22622
872.008	22641
872.138	22493
872.267	22428
872.397	22356
872.526	22424
872.656	22265
872.785	22348
872.915	22577
873.044	22630
873.173	22607
873.303	22557
873.432	22584
873.561	22622
873.69	22493
873.819	22523
873.948	22573
874.077	22500
874.206	22466
874.335	22656
874.464	22645
874.593	22721
874.722	22611
874.851	22702
874.979	22790
875.108	22771
875.237	22801
875.365	22675
875.494	22850
875.623	22904
875.751	22759
875.88	22687
876.008	22877
876.136	22919
876.265	23185
876.393	23299
876.521	23204
876.65	23166
876.778	23121
876.906	23128
877.034	23113
877.162	23162
877.29	23128
877.418	23090
877.546	23212
877.674	23090
877.802	23056
877.93	23090
878.058	23022
878.185	23064
878.313	23121
878.441	23181
878.568	22885
878.696	22984
878.824	23029
878.951	23121
879.079	23368
879.206	23395
879.333	23269
879.461	23170
879.588	23246
879.715	23124
879.842	23349
879.97	23280
880.097	22911
880.224	22889
880.351	23014
880.478	22725
880.605	22843
880.732	22869
880.859	23204
880.986	22786
881.112	22862
881.239	22797
881.366	22710
881.493	22557
881.619	22508
881.746	22557
881.872	22656
881.999	22459
882.125	22485
882.252	22466
882.378	22481
882.505	22634
882.631	22360
882.757	22318
882.883	22276
883.01	22173
883.136	22101
883.262	22097
883.388	22150
883.514	22086
883.64	22200
883.766	22112
883.892	21934
884.018	21987
884.143	22067
884.269	22238
884.395	21895
884.52	21755
884.646	21930
884.772	21759
884.897	21675
885.023	21808
885.148	21895
885.274	21930
885.399	21838
885.524	21793
885.65	21747
885.775	21838
885.9	21739
886.025	21854
886.15	21903
886.275	21743
886.4	21679
886.525	21793
886.65	21652
886.775	21743
886.9	21873
887.025	22063
887.149	21781
887.274	21629
887.399	21530
887.523	21572
887.648	21519
887.773	21481
887.897	21610
888.021	21603
888.146	21599
888.27	21599
888.395	21694
888.519	21648
888.643	21542
888.767	21542
888.891	21507
889.015	21397
889.139	21401
889.263	21325
889.387	21530
889.511	21523
889.635	21481
889.759	21374
889.883	21336
890.006	21374
890.13	21374
890.254	21249
890.377	21348
890.501	21051
890.624	21017
890.748	21226
890.871	20963
890.995	20876
891.118	20792
891.241	20910
891.364	20960
891.488	21043
891.611	20956
891.734	20929
891.857	20963
891.98	20781
892.103	20902
892.226	20849
892.349	20834
892.471	20750
892.594	20807
892.717	20849
892.839	20705
892.962	20842
893.085	20887
893.207	20727
893.33	20629
893.452	20705
893.575	20834
893.697	20701
893.819	20933
893.941	20971
894.064	20906
894.186	20689
894.308	20686
894.43	20864
894.552	20937
894.674	20815
894.796	20667
894.918	20807
895.04	20678
895.161	20804
895.283	20705
895.405	20815
895.526	20823
895.648	20716
895.769	20785
895.891	20845
896.012	20861
896.134	20868
896.255	20735
896.376	20842
896.498	20773
896.619	20754
896.74	20796
896.861	20811
896.982	21100
897.103	21249
897.224	21066
897.345	20994
897.466	20883
897.587	21005
897.708	21043
897.828	21024
897.949	20902
898.07	20815
898.19	20921
898.311	21032
898.431	20906
898.552	20929
898.672	21066
898.792	20941
898.913	20990
899.033	20948
899.153	20697
899.273	20689
899.393	20727
899.513	20792
899.633	20743
899.753	20773
899.873	20720
899.993	20663
900.113	20598
900.232	20670
900.352	20644
900.472	20507
900.591	20396
900.711	20495
900.83	20305
900.95	20602
901.069	20533
901.189	20366
901.308	20134
901.427	20069
901.546	20073
901.665	20039
901.784	20062
901.904	19902
902.023	19791
902.141	19613
902.26	19594
902.379	19601
902.498	19620
902.617	19407
902.735	19635
902.854	19563
902.973	19460
903.091	19198
903.21	19308
903.328	19251
903.446	19099
903.565	19034
903.683	19057
903.801	18966
903.919	19072
904.038	18920
904.156	18787
904.274	18901
904.392	18890
904.51	18795
904.627	18776
904.745	18844
904.863	18787
904.981	18494
905.098	18498
905.216	18486
905.334	18475
905.451	18494
905.569	18528
905.686	18471
905.803	18403
905.921	18277
906.038	18334
906.155	18361
906.272	18251
906.389	18117
906.506	17904
906.623	18011
906.74	17980
906.857	17927
906.974	17817
907.091	17996
907.208	17999
907.324	18076
907.441	17904
907.557	17646
907.674	17707
907.79	17714
907.907	17554
908.023	17646
908.139	17729
908.256	17592
908.372	17611
908.488	17570
908.604	17478
908.72	17379
908.836	17356
908.952	17360
909.068	17455
909.184	17425
909.3	17337
909.415	17372
909.531	17421
909.647	17277
909.762	17136
909.878	17048
909.993	17178
910.108	17075
910.224	17075
910.339	17109
910.454	16961
910.57	16991
910.685	16923
910.8	17037
910.915	17052
911.03	16984
911.145	16786
911.259	16729
911.374	16683
911.489	16596
911.604	16466
911.718	16432
911.833	16497
911.947	16367
912.062	16280
912.176	16443
912.291	16371
912.405	16443
912.519	16607
912.633	16580
912.748	16451
912.862	16421
912.976	16325
913.09	16074
913.204	16166
913.318	16238
913.431	16325
913.545	16299
913.659	16253
913.772	16230
913.886	16150
914	16013
914.113	16204
914.226	16040
914.34	16147
914.453	16040
914.566	16071
914.68	16002
914.793	15739
914.906	15660
915.019	15553
915.132	15572
915.245	15656
915.358	15534
915.47	15637
915.583	15564
915.696	15633
915.809	15778
915.921	15778
916.034	15534
916.146	15424
916.259	15515
916.371	15492
916.483	15576
916.595	15450
916.708	15488
916.82	15515
916.932	15382
917.044	15416
917.156	15363
917.268	15241
917.38	15275
917.491	15233
917.603	15317
917.715	15370
917.826	15317
917.938	15188
918.049	15138
918.161	15169
918.272	15355
918.384	15264
918.495	15176
918.606	15116
918.717	14975
918.828	14990
918.939	15024
919.05	14941
919.161	15047
919.272	14842
919.383	14868
919.494	15036
919.604	15157
919.715	15051
919.826	14804
919.936	14914
920.047	15017
920.157	14956
920.267	15157
920.378	14975
920.488	14819
920.598	15135
920.708	15233
920.818	15188
920.928	15127
921.038	15241
921.148	15211
921.258	15001
921.368	14788
921.477	14727
921.587	14727
921.697	14602
921.806	14686
921.916	14598
922.025	14415
922.134	14237
922.244	14336
922.353	14351
922.462	14157
922.571	14214
922.68	13993
922.789	13959
922.898	14027
923.007	13944
923.116	13974
923.224	13970
923.333	13864
923.442	13795
923.55	13818
923.659	13757
923.767	13753
923.876	13704
923.984	13750
924.092	13784
924.201	13731
924.309	13738
924.417	13681
924.525	13605
924.633	13639
924.741	14556
924.849	13445
924.956	13552
925.064	13316
925.172	13354
925.279	13400
925.387	13396
925.494	13365
925.602	13384
925.709	13362
925.816	13259
925.924	13209
926.031	13468
926.138	13217
926.245	13343
926.352	13164
926.459	13350
926.566	13304
926.673	13228
926.779	13114
926.886	13065
926.993	12833
927.099	12901
927.206	12863
927.312	12806
927.419	12901
927.525	12856
927.631	12947
927.737	12703
927.843	12795
927.95	12658
928.056	12711
928.162	12722
928.267	12798
928.373	13354
928.479	12776
928.585	12506
928.69	12707
928.796	12696
928.901	12517
929.007	12407
929.112	12578
929.218	12517
929.323	12540
929.428	12422
929.533	12662
929.638	12433
929.743	12407
929.848	12452
929.953	12380
930.058	12262
930.163	12095
930.267	12098
930.372	12285
930.477	12015
930.581	12285
930.685	12136
930.79	12045
930.894	11950
930.998	11927
931.103	12121
931.207	11802
931.311	11733
931.415	11619
931.519	11512
931.623	11398
