Data from test_V78500241_3503.txt Node
Date: Fri Mar 25 15:34:15 CST 2022
User: usil
Spectrometer: V785-0024
Trigger mode: 0
Integration Time (sec): 4.000000E-1
Scans to average: 1
Nonlinearity correction enabled: false
Boxcar width: 0
Storing dark spectrum: false
XAxis mode: Wavelengths
Number of Pixels in Spectrum: 1024
>>>>>Begin Spectral Data<<<<<
801.071	27298
801.214	27287
801.356	27032
801.499	26982
801.641	26902
801.783	26853
801.926	26960
802.068	26967
802.211	26804
802.353	26845
802.496	26587
802.638	26545
802.78	26434
802.923	26495
803.065	26320
803.208	26438
803.35	26575
803.492	26655
803.635	26705
803.777	26575
803.919	26708
804.061	27058
804.204	26678
804.346	26488
804.488	26412
804.63	26727
804.773	26453
804.915	26678
805.057	26735
805.199	26568
805.341	26716
805.483	26807
805.626	26872
805.768	26769
805.91	26663
806.052	26830
806.194	26648
806.336	26944
806.478	26735
806.62	26826
806.762	26762
806.904	27093
807.046	27207
807.188	27226
807.33	27241
807.472	27237
807.614	27085
807.756	27066
807.898	26967
808.04	26975
808.182	26785
808.324	27058
808.465	26967
808.607	27279
808.749	27469
808.891	27523
809.033	27549
809.174	27386
809.316	27336
809.458	27386
809.6	27203
809.741	27435
809.883	27496
810.025	27641
810.166	27511
810.308	27507
810.45	27648
810.591	27526
810.733	27393
810.875	27306
811.016	27351
811.158	27173
811.299	27462
811.441	27583
811.582	27485
811.724	27412
811.865	27351
812.007	27256
812.148	27348
812.29	27408
812.431	27367
812.573	27610
812.714	27705
812.855	27880
812.997	27869
813.138	27998
813.279	27972
813.421	27941
813.562	27899
813.703	27549
813.845	27603
813.986	27298
814.127	27218
814.268	26952
814.41	27055
814.551	26956
814.692	27214
814.833	26960
814.974	26933
815.115	27142
815.256	26861
815.397	26910
815.539	26921
815.68	26758
815.821	26815
815.962	26796
816.103	26720
816.244	26621
816.385	26648
816.526	26511
816.666	26469
816.807	26252
816.948	26313
817.089	26404
817.23	26298
817.371	26256
817.512	26275
817.653	26358
817.793	26172
817.934	26267
818.075	26294
818.216	26438
818.356	26065
818.497	26138
818.638	25986
818.778	25921
818.919	25997
819.06	26180
819.2	26134
819.341	26328
819.481	26221
819.622	26343
819.762	26556
819.903	26549
820.043	26370
820.184	26328
820.324	26400
820.465	26480
820.605	26385
820.746	26408
820.886	26206
821.026	26362
821.167	26225
821.307	26351
821.447	26191
821.588	26225
821.728	25986
821.868	25982
822.008	25799
822.149	25620
822.289	25772
822.429	25392
822.569	25441
822.709	25525
822.849	25331
822.99	25202
823.13	25316
823.27	25202
823.41	25023
823.55	24970
823.69	25114
823.83	25019
823.97	24894
824.11	24947
824.25	24814
824.389	24840
824.529	25012
824.669	24992
824.809	25057
824.949	25038
825.089	24977
825.228	24856
825.368	24688
825.508	24688
825.648	24760
825.787	24787
825.927	24661
826.067	24734
826.206	24760
826.346	24783
826.485	24852
826.625	24764
826.765	24863
826.904	24802
827.044	24582
827.183	24494
827.323	24563
827.462	24479
827.601	24479
827.741	24422
827.88	24448
828.02	24429
828.159	24369
828.298	24608
828.437	24418
828.577	24369
828.716	24639
828.855	24361
828.994	24098
829.134	24251
829.273	24167
829.412	24167
829.551	24205
829.69	24167
829.829	24258
829.968	24281
830.107	24300
830.246	24197
830.385	24273
830.524	24087
830.663	24072
830.802	23878
830.941	23931
831.08	23695
831.219	23908
831.357	23870
831.496	24045
831.635	23771
831.774	23767
831.913	23627
832.051	23691
832.19	23516
832.329	23490
832.467	23554
832.606	23520
832.744	23398
832.883	23600
833.022	23490
833.16	23604
833.299	23585
833.437	23459
833.576	23482
833.714	23493
833.852	23444
833.991	23642
834.129	23600
834.267	23657
834.406	23528
834.544	23615
834.682	23630
834.821	23516
834.959	23710
835.097	23444
835.235	23573
835.373	23509
835.511	23505
835.65	23395
835.788	23600
835.926	23318
836.064	23181
836.202	23376
836.34	23417
836.478	23444
836.615	23356
836.753	23433
836.891	23581
837.029	23353
837.167	23372
837.305	23429
837.443	23250
837.58	23277
837.718	23364
837.856	23311
837.993	23185
838.131	23231
838.269	23109
838.406	23159
838.544	23071
838.681	22850
838.819	22847
838.956	22630
839.094	22691
839.231	22710
839.369	22889
839.506	23094
839.643	22934
839.781	22679
839.918	22733
840.055	22733
840.193	22637
840.33	22618
840.467	22672
840.604	22713
840.742	22908
840.879	22504
841.016	22599
841.153	22546
841.29	22702
841.427	22679
841.564	22580
841.701	22577
841.838	22683
841.975	22573
842.112	22538
842.249	22500
842.385	22424
842.522	22557
842.659	22455
842.796	22314
842.933	22310
843.069	22489
843.206	22249
843.343	22478
843.479	22386
843.616	22523
843.752	22211
843.889	22253
844.025	22211
844.162	22051
844.298	22325
844.435	22246
844.571	22124
844.708	22242
844.844	22417
844.98	22367
845.117	22348
845.253	22185
845.389	22078
845.525	22044
845.661	22078
845.798	21937
845.934	21964
846.07	21884
846.206	21888
846.342	22120
846.478	21941
846.614	21694
846.75	21686
846.886	21701
847.022	21622
847.158	21781
847.294	21671
847.429	21671
847.565	21572
847.701	21911
847.837	21408
847.972	21408
848.108	21443
848.244	21553
848.379	21226
848.515	21233
848.65	21241
848.786	21176
848.921	21203
849.057	21275
849.192	21291
849.328	21370
849.463	21367
849.598	21176
849.734	21180
849.869	21017
850.004	21055
850.14	21074
850.275	21077
850.41	21024
850.545	20994
850.68	21058
850.815	20986
850.95	21055
851.085	21192
851.22	21214
851.355	21123
851.49	21062
851.625	21131
851.76	21001
851.895	20933
852.03	20952
852.165	21039
852.299	21070
852.434	21085
852.569	21036
852.703	21066
852.838	21058
852.973	21058
853.107	21138
853.242	20967
853.376	20857
853.511	20861
853.645	20864
853.78	20933
853.914	20876
854.048	20880
854.183	20815
854.317	20902
854.451	21066
854.585	20902
854.72	20929
854.854	21013
854.988	20902
855.122	20804
855.256	20796
855.39	20796
855.524	20952
855.658	20906
855.792	20872
855.926	20830
856.06	20971
856.194	20937
856.327	20819
856.461	20743
856.595	20887
856.729	20849
856.862	21051
856.996	20937
857.13	20861
857.263	20910
857.397	20979
857.53	20743
857.664	20880
857.797	20868
857.931	20941
858.064	20967
858.197	20918
858.331	20910
858.464	20815
858.597	20823
858.731	20727
858.864	20720
858.997	20735
859.13	20815
859.263	20918
859.396	20887
859.529	20769
859.662	20887
859.795	20705
859.928	20864
860.061	20971
860.194	21024
860.327	20902
860.46	20689
860.592	20914
860.725	20982
860.858	21051
860.99	20887
861.123	20773
861.256	20765
861.388	20777
861.521	21492
861.653	20636
861.786	20560
861.918	20716
862.05	20735
862.183	20686
862.315	20883
862.447	20899
862.58	20731
862.712	20663
862.844	20609
862.976	20648
863.108	20701
863.24	20975
863.372	20583
863.504	20514
863.636	20511
863.768	20651
863.9	20541
864.032	20511
864.164	20526
864.296	20587
864.428	20674
864.559	20606
864.691	20461
864.823	20552
864.954	20488
865.086	20663
865.217	20533
865.349	20278
865.48	20427
865.612	20541
865.743	20689
865.875	20526
866.006	20495
866.137	20351
866.269	20545
866.4	20419
866.531	20328
866.662	20446
866.793	20457
866.924	20404
867.055	20514
867.186	20495
867.317	20393
867.448	20298
867.579	20419
867.71	20370
867.841	20328
867.972	20381
868.103	20488
868.233	20434
868.364	20473
868.495	20545
868.625	20663
868.756	20773
868.886	20621
869.017	20701
869.147	20727
869.278	20834
869.408	20556
869.539	20716
869.669	20724
869.799	20682
869.929	20857
870.06	20712
870.19	21047
870.32	21058
870.45	20967
870.58	21032
870.71	21203
870.84	21268
870.97	21058
871.1	21066
871.23	21214
871.36	21268
871.489	21154
871.619	21195
871.749	21268
871.879	21340
872.008	21435
872.138	21420
872.267	21332
872.397	21218
872.526	21058
872.656	21066
872.785	21112
872.915	21279
873.044	21393
873.173	21184
873.303	21329
873.432	21313
873.561	21481
873.69	21165
873.819	21108
873.948	21363
874.077	21249
874.206	21112
874.335	21279
874.464	21458
874.593	21603
874.722	21412
874.851	21629
874.979	21511
875.108	21557
875.237	21477
875.365	21458
875.494	21530
875.623	21599
875.751	21576
875.88	21587
876.008	21789
876.136	21804
876.265	21979
876.393	22074
876.521	22017
876.65	22101
876.778	21968
876.906	21842
877.034	21819
877.162	21983
877.29	21850
877.418	21884
877.546	22010
877.674	22029
877.802	21911
877.93	21705
878.058	21835
878.185	21823
878.313	22017
878.441	21823
878.568	21774
878.696	21857
878.824	21998
878.951	21857
879.079	22025
879.206	22181
879.333	22070
879.461	21888
879.588	22051
879.715	22124
879.842	22105
879.97	21934
880.097	21778
880.224	21705
880.351	21793
880.478	21705
880.605	21724
880.732	21694
880.859	21941
880.986	21759
881.112	21785
881.239	21606
881.366	21466
881.493	21386
881.619	21351
881.746	21306
881.872	21306
881.999	21275
882.125	21260
882.252	21310
882.378	21252
882.505	21302
882.631	21074
882.757	21051
882.883	21085
883.01	20941
883.136	20941
883.262	20800
883.388	20819
883.514	20982
883.64	21119
883.766	20914
883.892	20735
884.018	20880
884.143	20883
884.269	20895
884.395	20792
884.52	20625
884.646	20674
884.772	20560
884.897	20552
885.023	20564
885.148	20785
885.274	20773
885.399	20655
885.524	20697
885.65	20678
885.775	20693
885.9	20598
886.025	20838
886.15	20708
886.275	20655
886.4	20465
886.525	20530
886.65	20609
886.775	20636
886.9	20735
887.025	20861
887.149	20564
887.274	20465
887.399	20450
887.523	20324
887.648	20480
887.773	20355
887.897	20625
888.021	20465
888.146	20408
888.27	20469
888.395	20537
888.519	20457
888.643	20415
888.767	20408
888.891	20362
889.015	20221
889.139	20191
889.263	20172
889.387	20415
889.511	20465
889.635	20377
889.759	20058
889.883	20210
890.006	20218
890.13	20294
890.254	20130
890.377	20149
890.501	20027
890.624	19947
890.748	20077
890.871	20008
890.995	19795
891.118	19685
891.241	19887
891.364	19871
891.488	19921
891.611	19814
891.734	19689
891.857	19940
891.98	19795
892.103	19841
892.226	19757
892.349	19674
892.471	19635
892.594	19776
892.717	19807
892.839	19723
892.962	19723
893.085	19750
893.207	19742
893.33	19647
893.452	19616
893.575	19719
893.697	19712
893.819	19833
893.941	19890
894.064	19841
894.186	19708
894.308	19769
894.43	19909
894.552	19807
894.674	19738
894.796	19715
894.918	19826
895.04	19670
895.161	19750
895.283	19822
895.405	19651
895.526	19769
895.648	19586
895.769	19765
895.891	19753
896.012	19708
896.134	19799
896.255	19727
896.376	19746
896.498	19864
896.619	19662
896.74	19761
896.861	19704
896.982	19974
897.103	20065
897.224	19947
897.345	19947
897.466	19875
897.587	19875
897.708	20031
897.828	19974
897.949	19883
898.07	19807
898.19	19959
898.311	20020
898.431	19864
898.552	19906
898.672	20050
898.792	20134
898.913	19890
899.033	19803
899.153	19723
899.273	19727
899.393	19651
899.513	19734
899.633	19647
899.753	19731
899.873	19590
899.993	19571
900.113	19540
900.232	19601
900.352	19552
900.472	19540
900.591	19434
900.711	19563
900.83	19552
900.95	19499
901.069	19468
901.189	19308
901.308	19031
901.427	19038
901.546	18989
901.665	18985
901.784	19129
901.904	18932
902.023	18848
902.141	18734
902.26	18646
902.379	18684
902.498	18525
902.617	18551
902.735	18639
902.854	18551
902.973	18464
903.091	18239
903.21	18194
903.328	18273
903.446	18190
903.565	18045
903.683	17999
903.801	17950
903.919	18019
904.038	18072
904.156	17931
904.274	17859
904.392	17748
904.51	17889
904.627	17783
904.745	17935
904.863	17874
904.981	17676
905.098	17535
905.216	17570
905.334	17490
905.451	17581
905.569	17505
905.686	17676
905.803	17551
905.921	17387
906.038	17368
906.155	17261
906.272	17181
906.389	17273
906.506	17140
906.623	17071
906.74	16953
906.857	16889
906.974	16919
907.091	17037
907.208	17193
907.324	17056
907.441	16961
907.557	16828
907.674	16767
907.79	16649
907.907	16805
908.023	16828
908.139	16767
908.256	16763
908.372	16618
908.488	16611
908.604	16603
908.72	16485
908.836	16424
908.952	16428
909.068	16580
909.184	16577
909.3	16470
909.415	16588
909.531	16398
909.647	16268
909.762	16215
909.878	16192
909.993	16287
910.108	16158
910.224	16078
910.339	16131
910.454	16169
910.57	16055
910.685	15998
910.8	16219
910.915	16063
911.03	15994
911.145	15827
911.259	15778
911.374	15785
911.489	15804
911.604	15682
911.718	15564
911.833	15542
911.947	15447
912.062	15374
912.176	15507
912.291	15466
912.405	15572
912.519	15751
912.633	15759
912.748	15561
912.862	15606
912.976	15344
913.09	15359
913.204	15359
913.318	15412
913.431	15477
913.545	15534
913.659	15405
913.772	15306
913.886	15150
914	15157
914.113	15298
914.226	15249
914.34	15203
914.453	15036
914.566	15146
914.68	15085
914.793	15043
914.906	14823
915.019	14743
915.132	14750
915.245	14754
915.358	14830
915.47	14773
915.583	14769
915.696	14781
915.809	15017
915.921	14914
916.034	14849
916.146	14739
916.259	14716
916.371	14758
916.483	14693
916.595	14701
916.708	14617
916.82	14587
916.932	14590
917.044	14613
917.156	14571
917.268	14514
917.38	14469
917.491	14545
917.603	14438
917.715	14492
917.826	14518
917.938	14362
918.049	14218
918.161	14446
918.272	14503
918.384	14511
918.495	14511
918.606	14256
918.717	14119
918.828	14202
918.939	14221
919.05	14153
919.161	14145
919.272	14077
919.383	14062
919.494	14176
919.604	14347
919.715	14191
919.826	14153
919.936	14081
920.047	14252
920.157	14187
920.267	14267
920.378	14191
920.488	14065
920.598	14358
920.708	14492
920.818	14328
920.928	14286
921.038	14476
921.148	14484
921.258	14168
921.368	14081
921.477	14020
921.587	13982
921.697	13784
921.806	13925
921.916	13788
922.025	13655
922.134	13510
922.244	13518
922.353	13628
922.462	13381
922.571	13350
922.68	13213
922.789	13255
922.898	13247
923.007	13129
923.116	13236
923.224	13095
923.333	13080
923.442	13084
923.55	12985
923.659	13149
923.767	13084
923.876	13034
923.984	13129
924.092	13012
924.201	13046
924.309	12962
924.417	12966
924.525	12928
924.633	12951
924.741	13674
924.849	12738
924.956	12905
925.064	12745
925.172	12631
925.279	12639
925.387	12658
925.494	12684
925.602	12772
925.709	12745
925.816	12597
925.924	12650
926.031	12700
926.138	12582
926.245	12673
926.352	12479
926.459	12711
926.566	12673
926.673	12483
926.779	12464
926.886	12441
926.993	12334
927.099	12194
927.206	12186
927.312	12270
927.419	12254
927.525	12186
927.631	12182
927.737	12163
927.843	12144
927.95	12003
928.056	12030
928.162	12098
928.267	12148
928.373	12544
928.479	12235
928.585	11923
928.69	11980
928.796	12053
928.901	11958
929.007	11783
929.112	11885
929.218	11863
929.323	11764
929.428	11741
929.533	12026
929.638	11832
929.743	11665
929.848	11767
929.953	11707
930.058	11619
930.163	11459
930.267	11562
930.372	11646
930.477	11490
930.581	11722
930.685	11512
930.79	11364
930.894	11326
930.998	11337
931.103	11482
931.207	11143
931.311	11010
931.415	10987
931.519	10793
931.623	10744
