Data from test_V78500241_653.txt Node
Date: Fri Mar 25 15:14:24 CST 2022
User: usil
Spectrometer: V785-0024
Trigger mode: 0
Integration Time (sec): 4.000000E-1
Scans to average: 1
Nonlinearity correction enabled: false
Boxcar width: 0
Storing dark spectrum: false
XAxis mode: Wavelengths
Number of Pixels in Spectrum: 1024
>>>>>Begin Spectral Data<<<<<
801.071	27431
801.214	27485
801.356	27165
801.499	27131
801.641	26979
801.783	26940
801.926	27169
802.068	27009
802.211	26895
802.353	26785
802.496	26750
802.638	26564
802.78	26644
802.923	26659
803.065	26594
803.208	26613
803.35	26712
803.492	26773
803.635	26712
803.777	26674
803.919	26830
804.061	27070
804.204	26815
804.346	26648
804.488	26674
804.63	26925
804.773	26815
804.915	26826
805.057	26796
805.199	26785
805.341	26880
805.483	26887
805.626	26899
805.768	26697
805.91	26735
806.052	26823
806.194	26819
806.336	27093
806.478	26872
806.62	26785
806.762	27055
806.904	27108
807.046	27492
807.188	27287
807.33	27291
807.472	27260
807.614	27199
807.756	27256
807.898	27157
808.04	27024
808.182	27169
808.324	27176
808.465	27233
808.607	27272
808.749	27416
808.891	27614
809.033	27641
809.174	27660
809.316	27454
809.458	27633
809.6	27663
809.741	27778
809.883	27652
810.025	27949
810.166	27800
810.308	27819
810.45	27778
810.591	27835
810.733	27701
810.875	27492
811.016	27519
811.158	27393
811.299	27576
811.441	27743
811.582	27622
811.724	27504
811.865	27469
812.007	27431
812.148	27633
812.29	27534
812.431	27736
812.573	27873
812.714	27960
812.855	28059
812.997	28059
813.138	28322
813.279	28344
813.421	28067
813.562	28059
813.703	27994
813.845	27717
813.986	27351
814.127	27351
814.268	27214
814.41	27268
814.551	27058
814.692	27283
814.833	27108
814.974	27093
815.115	27363
815.256	26940
815.397	27089
815.539	27093
815.68	26918
815.821	26979
815.962	27058
816.103	26986
816.244	26826
816.385	26720
816.526	26632
816.666	26712
816.807	26377
816.948	26514
817.089	26739
817.23	26545
817.371	26518
817.512	26575
817.653	26560
817.793	26461
817.934	26514
818.075	26355
818.216	26469
818.356	26442
818.497	26385
818.638	26157
818.778	26355
818.919	26210
819.06	26393
819.2	26313
819.341	26431
819.481	26503
819.622	26602
819.762	26804
819.903	26739
820.043	26579
820.184	26556
820.324	26609
820.465	26579
820.605	26625
820.746	26579
820.886	26415
821.026	26473
821.167	26495
821.307	26492
821.447	26609
821.588	26431
821.728	26453
821.868	26092
822.008	25898
822.149	25997
822.289	25970
822.429	25700
822.569	25613
822.709	25674
822.849	25529
822.99	25449
823.13	25381
823.27	25308
823.41	25304
823.55	25225
823.69	25415
823.83	25244
823.97	25324
824.11	25057
824.25	25057
824.389	25072
824.529	25129
824.669	25171
824.809	25168
824.949	25255
825.089	25187
825.228	25148
825.368	25126
825.508	24924
825.648	24886
825.787	25042
825.927	25031
826.067	24928
826.206	24935
826.346	25084
826.485	24973
826.625	24897
826.765	25118
826.904	24989
827.044	24787
827.183	24669
827.323	24844
827.462	24859
827.601	24692
827.741	24817
827.88	24692
828.02	24563
828.159	24601
828.298	24627
828.437	24787
828.577	24722
828.716	24798
828.855	24692
828.994	24456
829.134	24308
829.273	24471
829.412	24353
829.551	24372
829.69	24467
829.829	24589
829.968	24475
830.107	24563
830.246	24407
830.385	24357
830.524	24380
830.663	24182
830.802	24129
830.941	24079
831.08	24060
831.219	24121
831.357	24186
831.496	24327
831.635	23942
831.774	23931
831.913	23950
832.051	23764
832.19	23828
832.329	23901
832.467	23661
832.606	23581
832.744	23623
832.883	23649
833.022	23687
833.16	23653
833.299	23718
833.437	23764
833.576	23638
833.714	23783
833.852	23779
833.991	23809
834.129	23950
834.267	23828
834.406	23775
834.544	23714
834.682	23992
834.821	23649
834.959	23988
835.097	23699
835.235	23783
835.373	23547
835.511	23726
835.65	23577
835.788	23608
835.926	23551
836.064	23433
836.202	23448
836.34	23619
836.478	23760
836.615	23539
836.753	23600
836.891	23638
837.029	23699
837.167	23558
837.305	23516
837.443	23505
837.58	23562
837.718	23512
837.856	23478
837.993	23414
838.131	23505
838.269	23269
838.406	23436
838.544	23277
838.681	23147
838.819	23109
838.956	22923
839.094	22904
839.231	23064
839.369	23086
839.506	23345
839.643	23056
839.781	22953
839.918	22824
840.055	22816
840.193	22862
840.33	22843
840.467	22911
840.604	22908
840.742	23117
840.879	22687
841.016	22733
841.153	22721
841.29	22908
841.427	22873
841.564	22850
841.701	22866
841.838	22706
841.975	22641
842.112	22733
842.249	22634
842.385	22481
842.522	22771
842.659	22660
842.796	22550
842.933	22588
843.069	22523
843.206	22462
843.343	22607
843.479	22603
843.616	22531
843.752	22333
843.889	22508
844.025	22546
844.162	22390
844.298	22367
844.435	22405
844.571	22440
844.708	22447
844.844	22523
844.98	22489
845.117	22459
845.253	22287
845.389	22196
845.525	22188
845.661	22120
845.798	22097
845.934	22162
846.07	22147
846.206	22166
846.342	22086
846.478	22036
846.614	21915
846.75	21762
846.886	21736
847.022	21797
847.158	21854
847.294	21880
847.429	21991
847.565	21804
847.701	22044
847.837	21641
847.972	21530
848.108	21641
848.244	21682
848.379	21492
848.515	21386
848.65	21397
848.786	21359
848.921	21454
849.057	21526
849.192	21519
849.328	21485
849.463	21393
849.598	21370
849.734	21264
849.869	21408
850.004	21195
850.14	21306
850.275	21150
850.41	21062
850.545	21184
850.68	21214
850.815	21081
850.95	21218
851.085	21389
851.22	21268
851.355	21222
851.49	21173
851.625	21302
851.76	21188
851.895	21100
852.03	21112
852.165	21241
852.299	21249
852.434	21306
852.569	21207
852.703	21135
852.838	21211
852.973	21298
853.107	21355
853.242	21081
853.376	21116
853.511	20902
853.645	21104
853.78	21104
853.914	21081
854.048	20902
854.183	20910
854.317	21066
854.451	21211
854.585	20921
854.72	20956
854.854	21024
854.988	20891
855.122	20990
855.256	20944
855.39	20933
855.524	21096
855.658	21055
855.792	21108
855.926	21024
856.06	21055
856.194	21100
856.327	20975
856.461	20948
856.595	20948
856.729	20986
856.862	21096
856.996	21104
857.13	21085
857.263	21161
857.397	21131
857.53	20952
857.664	20994
857.797	21116
857.931	21047
858.064	20979
858.197	20967
858.331	21047
858.464	20921
858.597	20956
858.731	20861
858.864	20948
858.997	21020
859.13	20998
859.263	21009
859.396	21039
859.529	20975
859.662	20960
859.795	20982
859.928	20902
860.061	21157
860.194	21218
860.327	20994
860.46	20853
860.592	21142
860.725	21351
860.858	21089
860.99	21070
861.123	20921
861.256	20941
861.388	20921
861.521	21682
861.653	20830
861.786	20777
861.918	20800
862.05	20861
862.183	21024
862.315	20925
862.447	20994
862.58	20902
862.712	20670
862.844	20693
862.976	20693
863.108	20792
863.24	21199
863.372	20716
863.504	20758
863.636	20705
863.768	20701
863.9	20743
864.032	20644
864.164	20640
864.296	20762
864.428	20769
864.559	20743
864.691	20758
864.823	20724
864.954	20648
865.086	20731
865.217	20549
865.349	20602
865.48	20678
865.612	20648
865.743	20811
865.875	20476
866.006	20594
866.137	20640
866.269	20727
866.4	20640
866.531	20621
866.662	20579
866.793	20568
866.924	20602
867.055	20514
867.186	20583
867.317	20549
867.448	20488
867.579	20533
867.71	20450
867.841	20442
867.972	20579
868.103	20473
868.233	20579
868.364	20590
868.495	20621
868.625	20708
868.756	20853
868.886	20750
869.017	20765
869.147	20895
869.278	20804
869.408	20792
869.539	20800
869.669	20944
869.799	20758
869.929	20887
870.06	20914
870.19	21074
870.32	21211
870.45	21211
870.58	21165
870.71	21298
870.84	21291
870.97	21222
871.1	21207
871.23	21412
871.36	21340
871.489	21340
871.619	21420
871.749	21504
871.879	21443
872.008	21488
872.138	21405
872.267	21374
872.397	21294
872.526	21222
872.656	21173
872.785	21233
872.915	21435
873.044	21450
873.173	21397
873.303	21469
873.432	21431
873.561	21599
873.69	21462
873.819	21245
873.948	21462
874.077	21420
874.206	21348
874.335	21389
874.464	21667
874.593	21641
874.722	21656
874.851	21591
874.979	21705
875.108	21747
875.237	21523
875.365	21553
875.494	21485
875.623	21713
875.751	21652
875.88	21633
876.008	21774
876.136	21789
876.265	22059
876.393	22070
876.521	22120
876.65	22192
876.778	22044
876.906	21956
877.034	21975
877.162	21964
877.29	21892
877.418	22017
877.546	22029
877.674	22036
877.802	21998
877.93	21926
878.058	21945
878.185	21846
878.313	21880
878.441	22025
878.568	21739
878.696	21831
878.824	21956
878.951	22078
879.079	22105
879.206	22306
879.333	22082
879.461	21987
879.588	22074
879.715	22253
879.842	22166
879.97	22090
880.097	21865
880.224	21797
880.351	21937
880.478	21778
880.605	21835
880.732	21690
880.859	22006
880.986	21880
881.112	21880
881.239	21580
881.366	21534
881.493	21481
881.619	21359
881.746	21408
881.872	21473
881.999	21272
882.125	21355
882.252	21389
882.378	21336
882.505	21458
882.631	21241
882.757	21146
882.883	21332
883.01	21009
883.136	21089
883.262	21096
883.388	20937
883.514	21066
883.64	21184
883.766	20952
883.892	20815
884.018	20876
884.143	21062
884.269	21127
884.395	20754
884.52	20743
884.646	20682
884.772	20705
884.897	20617
885.023	20682
885.148	20693
885.274	20971
885.399	20868
885.524	20636
885.65	20693
885.775	20788
885.9	20708
886.025	20864
886.15	20720
886.275	20667
886.4	20651
886.525	20735
886.65	20811
886.775	20659
886.9	20773
887.025	20921
887.149	20693
887.274	20583
887.399	20446
887.523	20438
887.648	20400
887.773	20393
887.897	20469
888.021	20495
888.146	20457
888.27	20674
888.395	20552
888.519	20396
888.643	20621
888.767	20556
888.891	20434
889.015	20339
889.139	20275
889.263	20259
889.387	20503
889.511	20423
889.635	20347
889.759	20199
889.883	20244
890.006	20343
890.13	20396
890.254	20244
890.377	20142
890.501	20035
890.624	20035
890.748	20084
890.871	19932
890.995	19776
891.118	19932
891.241	19856
891.364	19951
891.488	19917
891.611	19875
891.734	19940
891.857	19879
891.98	19913
892.103	19921
892.226	19917
892.349	19795
892.471	19628
892.594	19791
892.717	19864
892.839	19807
892.962	19826
893.085	19837
893.207	19772
893.33	19715
893.452	19723
893.575	19757
893.697	19613
893.819	19967
893.941	19989
894.064	19925
894.186	19681
894.308	19693
894.43	19894
894.552	20001
894.674	19909
894.796	19818
894.918	19689
895.04	19658
895.161	19887
895.283	19845
895.405	19734
895.526	19875
895.648	19731
895.769	19811
895.891	19765
896.012	20008
896.134	19883
896.255	19921
896.376	19609
896.498	19738
896.619	19830
896.74	19807
896.861	19883
896.982	20035
897.103	20259
897.224	20092
897.345	19989
897.466	19883
897.587	20100
897.708	20248
897.828	20020
897.949	20119
898.07	19757
898.19	19978
898.311	20096
898.431	20012
898.552	20020
898.672	20153
898.792	20229
898.913	20077
899.033	19932
899.153	19879
899.273	19765
899.393	19746
899.513	19795
899.633	19746
899.753	19845
899.873	19639
899.993	19830
900.113	19719
900.232	19738
900.352	19677
900.472	19643
900.591	19529
900.711	19556
900.83	19586
900.95	19670
901.069	19586
901.189	19449
901.308	19187
901.427	19103
901.546	19247
901.665	19145
901.784	19099
901.904	18981
902.023	18951
902.141	18760
902.26	18688
902.379	18745
902.498	18642
902.617	18745
902.735	18654
902.854	18654
902.973	18658
903.091	18372
903.21	18304
903.328	18342
903.446	18315
903.565	18114
903.683	18129
903.801	18060
903.919	18201
904.038	18190
904.156	17931
904.274	18038
904.392	17840
904.51	17809
904.627	17889
904.745	17965
904.863	17935
904.981	17775
905.098	17627
905.216	17642
905.334	17703
905.451	17699
905.569	17699
905.686	17611
905.803	17573
905.921	17398
906.038	17417
906.155	17284
906.272	17261
906.389	17364
906.506	17128
906.623	17155
906.74	17075
906.857	17113
906.974	17121
907.091	17254
907.208	17189
907.324	17064
907.441	17090
907.557	16900
907.674	16919
907.79	16820
907.907	16873
908.023	16820
908.139	16866
908.256	16797
908.372	16706
908.488	16759
908.604	16664
908.72	16478
908.836	16489
908.952	16577
909.068	16618
909.184	16641
909.3	16508
909.415	16615
909.531	16565
909.647	16249
909.762	16246
909.878	16280
909.993	16249
910.108	16253
910.224	16299
910.339	16249
910.454	16101
910.57	16177
910.685	16067
910.8	16230
910.915	16226
911.03	15964
911.145	15949
911.259	15895
911.374	15846
911.489	15854
911.604	15819
911.718	15675
911.833	15542
911.947	15450
912.062	15545
912.176	15675
912.291	15553
912.405	15614
912.519	15724
912.633	15804
912.748	15511
912.862	15515
912.976	15477
913.09	15370
913.204	15443
913.318	15393
913.431	15492
913.545	15519
913.659	15591
913.772	15355
913.886	15268
914	15237
914.113	15454
914.226	15374
914.34	15249
914.453	15192
914.566	15203
914.68	15184
914.793	15055
914.906	14883
915.019	14895
915.132	14868
915.245	14853
915.358	14849
915.47	14925
915.583	14887
915.696	14895
915.809	14933
915.921	14967
916.034	14899
916.146	14739
916.259	14765
916.371	14800
916.483	14762
916.595	14712
916.708	14727
916.82	14617
916.932	14644
917.044	14682
917.156	14587
917.268	14473
917.38	14579
917.491	14522
917.603	14484
917.715	14549
917.826	14473
917.938	14450
918.049	14358
918.161	14427
918.272	14552
918.384	14579
918.495	14377
918.606	14377
918.717	14237
918.828	14332
918.939	14294
919.05	14221
919.161	14294
919.272	14058
919.383	14164
919.494	14351
919.604	14507
919.715	14256
919.826	14164
919.936	14278
920.047	14358
920.157	14259
920.267	14446
920.378	14240
920.488	14229
920.598	14454
920.708	14545
920.818	14389
920.928	14374
921.038	14488
921.148	14526
921.258	14164
921.368	14161
921.477	14012
921.587	13974
921.697	13894
921.806	13906
921.916	13883
922.025	13746
922.134	13700
922.244	13632
922.353	13708
922.462	13544
922.571	13483
922.68	13274
922.789	13350
922.898	13278
923.007	13324
923.116	13304
923.224	13255
923.333	13251
923.442	13122
923.55	13168
923.659	13183
923.767	13179
923.876	13114
923.984	13209
924.092	12947
924.201	13137
924.309	13050
924.417	13004
924.525	12943
924.633	12985
924.741	13734
924.849	12806
924.956	12871
925.064	12669
925.172	12654
925.279	12711
925.387	12817
925.494	12741
925.602	12829
925.709	12768
925.816	12650
925.924	12749
926.031	12726
926.138	12665
926.245	12711
926.352	12555
926.459	12722
926.566	12757
926.673	12551
926.779	12433
926.886	12403
926.993	12308
927.099	12311
927.206	12254
927.312	12201
927.419	12353
927.525	12315
927.631	12304
927.737	12235
927.843	12110
927.95	12175
928.056	12038
928.162	12110
928.267	12175
928.373	12707
928.479	12178
928.585	11996
928.69	12068
928.796	12053
928.901	11950
929.007	11866
929.112	12045
929.218	11874
929.323	11874
929.428	11847
929.533	11961
929.638	11809
929.743	11779
929.848	11920
929.953	11767
930.058	11737
930.163	11520
930.267	11596
930.372	11737
930.477	11436
930.581	11642
930.685	11558
930.79	11459
930.894	11562
930.998	11429
931.103	11604
931.207	11204
931.311	11090
931.415	11064
931.519	10820
931.623	10755
