Data from test_V78500241_1949.txt Node
Date: Fri Mar 25 15:23:25 CST 2022
User: usil
Spectrometer: V785-0024
Trigger mode: 0
Integration Time (sec): 4.000000E-1
Scans to average: 1
Nonlinearity correction enabled: false
Boxcar width: 0
Storing dark spectrum: false
XAxis mode: Wavelengths
Number of Pixels in Spectrum: 1024
>>>>>Begin Spectral Data<<<<<
801.071	27937
801.214	27774
801.356	27454
801.499	27488
801.641	27393
801.783	27203
801.926	27192
802.068	27207
802.211	27214
802.353	27199
802.496	27138
802.638	26880
802.78	26872
802.923	26887
803.065	26842
803.208	26899
803.35	26895
803.492	27062
803.635	27074
803.777	26998
803.919	27020
804.061	27458
804.204	27142
804.346	27188
804.488	27028
804.63	27100
804.773	27077
804.915	27066
805.057	27310
805.199	27142
805.341	27226
805.483	27207
805.626	27313
805.768	27180
805.91	27203
806.052	27218
806.194	27222
806.336	27291
806.478	27279
806.62	27222
806.762	27211
806.904	27561
807.046	27739
807.188	27656
807.33	27610
807.472	27743
807.614	27652
807.756	27549
807.898	27466
808.04	27450
808.182	27481
808.324	27454
808.465	27549
808.607	27804
808.749	27892
808.891	28002
809.033	28002
809.174	27819
809.316	27869
809.458	27774
809.6	27846
809.741	27899
809.883	27797
810.025	28238
810.166	28032
810.308	28200
810.45	28013
810.591	27903
810.733	27968
810.875	27778
811.016	27709
811.158	27831
811.299	27941
811.441	27895
811.582	27930
811.724	27880
811.865	27819
812.007	27800
812.148	27789
812.29	27850
812.431	28074
812.573	28223
812.714	28249
812.855	28295
812.997	28337
813.138	28626
813.279	28455
813.421	28398
813.562	28211
813.703	28200
813.845	27960
813.986	27728
814.127	27641
814.268	27614
814.41	27523
814.551	27538
814.692	27614
814.833	27500
814.974	27515
815.115	27717
815.256	27363
815.397	27412
815.539	27397
815.68	27397
815.821	27268
815.962	27382
816.103	27317
816.244	27218
816.385	27055
816.526	27127
816.666	26940
816.807	26811
816.948	26853
817.089	26937
817.23	26842
817.371	26788
817.512	26826
817.653	26678
817.793	26750
817.934	26853
818.075	26785
818.216	26834
818.356	26811
818.497	26705
818.638	26606
818.778	26621
818.919	26530
819.06	26598
819.2	26644
819.341	26819
819.481	26819
819.622	26864
819.762	27195
819.903	26994
820.043	27020
820.184	27081
820.324	26785
820.465	27074
820.605	26948
820.746	27017
820.886	26811
821.026	26880
821.167	26834
821.307	26918
821.447	26792
821.588	26621
821.728	26644
821.868	26480
822.008	26252
822.149	26301
822.289	26324
822.429	26065
822.569	25959
822.709	25925
822.849	25742
822.99	25894
823.13	25788
823.27	25742
823.41	25548
823.55	25567
823.69	25632
823.83	25556
823.97	25495
824.11	25483
824.25	25335
824.389	25354
824.529	25438
824.669	25449
824.809	25525
824.949	25430
825.089	25605
825.228	25407
825.368	25293
825.508	25381
825.648	25308
825.787	25278
825.927	25343
826.067	25198
826.206	25255
826.346	25274
826.485	25289
826.625	25293
826.765	25392
826.904	25354
827.044	25072
827.183	25046
827.323	24901
827.462	25129
827.601	25012
827.741	24913
827.88	25015
828.02	24939
828.159	24916
828.298	24962
828.437	25042
828.577	24886
828.716	25091
828.855	24924
828.994	24715
829.134	24825
829.273	24795
829.412	24608
829.551	24650
829.69	24669
829.829	24677
829.968	24749
830.107	24810
830.246	24741
830.385	24612
830.524	24749
830.663	24498
830.802	24464
830.941	24403
831.08	24346
831.219	24395
831.357	24334
831.496	24574
831.635	24330
831.774	24433
831.913	24152
832.051	24121
832.19	24117
832.329	24091
832.467	24026
832.606	23946
832.744	23958
832.883	23954
833.022	24041
833.16	24038
833.299	24022
833.437	24117
833.576	24098
833.714	24003
833.852	24057
833.991	24125
834.129	24106
834.267	24121
834.406	23999
834.544	24057
834.682	24083
834.821	24007
834.959	24121
835.097	23904
835.235	24129
835.373	24121
835.511	24079
835.65	23942
835.788	23836
835.926	23942
836.064	23691
836.202	23741
836.34	23870
836.478	24022
836.615	23805
836.753	23878
836.891	23996
837.029	23935
837.167	23847
837.305	23878
837.443	23718
837.58	23665
837.718	23870
837.856	23684
837.993	23672
838.131	23771
838.269	23589
838.406	23619
838.544	23566
838.681	23551
838.819	23379
838.956	23197
839.094	23208
839.231	23250
839.369	23391
839.506	23691
839.643	23509
839.781	23178
839.918	23288
840.055	23273
840.193	23246
840.33	23079
840.467	23204
840.604	23162
840.742	23364
840.879	23022
841.016	23071
841.153	23109
841.29	23223
841.427	23064
841.564	23242
841.701	23242
841.838	23174
841.975	23166
842.112	23204
842.249	22953
842.385	22942
842.522	23181
842.659	22938
842.796	22915
842.933	22881
843.069	22858
843.206	22793
843.343	22976
843.479	22972
843.616	22885
843.752	22592
843.889	22645
844.025	22866
844.162	22634
844.298	22763
844.435	22618
844.571	22569
844.708	22854
844.844	22866
844.98	22721
845.117	22664
845.253	22584
845.389	22512
845.525	22542
845.661	22554
845.798	22314
845.934	22447
846.07	22485
846.206	22371
846.342	22409
846.478	22421
846.614	22226
846.75	22169
846.886	22192
847.022	22223
847.158	22253
847.294	22150
847.429	22139
847.565	22105
847.701	22443
847.837	21789
847.972	21869
848.108	21956
848.244	21983
848.379	21857
848.515	21778
848.65	21739
848.786	21660
848.921	21797
849.057	21816
849.192	21907
849.328	21751
849.463	21728
849.598	21675
849.734	21443
849.869	21496
850.004	21564
850.14	21523
850.275	21648
850.41	21469
850.545	21466
850.68	21530
850.815	21583
850.95	21447
851.085	21667
851.22	21606
851.355	21454
851.49	21576
851.625	21439
851.76	21504
851.895	21408
852.03	21374
852.165	21488
852.299	21599
852.434	21591
852.569	21389
852.703	21485
852.838	21568
852.973	21648
853.107	21610
853.242	21511
853.376	21298
853.511	21283
853.645	21256
853.78	21401
853.914	21359
854.048	21287
854.183	21252
854.317	21412
854.451	21542
854.585	21416
854.72	21310
854.854	21447
854.988	21329
855.122	21340
855.256	21230
855.39	21279
855.524	21526
855.658	21329
855.792	21439
855.926	21325
856.06	21344
856.194	21431
856.327	21245
856.461	21268
856.595	21237
856.729	21332
856.862	21492
856.996	21367
857.13	21439
857.263	21405
857.397	21496
857.53	21321
857.664	21317
857.797	21405
857.931	21336
858.064	21363
858.197	21515
858.331	21287
858.464	21222
858.597	21199
858.731	21412
858.864	21374
858.997	21351
859.13	21435
859.263	21382
859.396	21481
859.529	21252
859.662	21275
859.795	21252
859.928	21382
860.061	21549
860.194	21610
860.327	21408
860.46	21351
860.592	21408
860.725	21473
860.858	21439
860.99	21291
861.123	21245
861.256	21378
861.388	21408
861.521	21930
861.653	21180
861.786	21237
861.918	21184
862.05	21245
862.183	21332
862.315	21123
862.447	21272
862.58	21249
862.712	21020
862.844	21066
862.976	21119
863.108	21192
863.24	21591
863.372	21013
863.504	21100
863.636	21146
863.768	21062
863.9	21017
864.032	21119
864.164	21081
864.296	21051
864.428	21142
864.559	21116
864.691	21169
864.823	21055
864.954	21089
865.086	20982
865.217	20971
865.349	20842
865.48	20963
865.612	20937
865.743	21039
865.875	20914
866.006	20929
866.137	21017
866.269	20887
866.4	20842
866.531	20864
866.662	20811
866.793	20921
866.924	20823
867.055	20876
867.186	20876
867.317	20914
867.448	20823
867.579	20933
867.71	20746
867.841	20937
867.972	20979
868.103	20823
868.233	20864
868.364	20994
868.495	20975
868.625	21077
868.756	21230
868.886	21039
869.017	21112
869.147	21169
869.278	21184
869.408	21207
869.539	21093
869.669	21138
869.799	21195
869.929	21298
870.06	21203
870.19	21344
870.32	21351
870.45	21511
870.58	21534
870.71	21568
870.84	21656
870.97	21504
871.1	21466
871.23	21660
871.36	21869
871.489	21583
871.619	21751
871.749	21732
871.879	21880
872.008	21819
872.138	21675
872.267	21701
872.397	21485
872.526	21637
872.656	21454
872.785	21591
872.915	21831
873.044	21781
873.173	21747
873.303	21759
873.432	21701
873.561	21762
873.69	21846
873.819	21774
873.948	21816
874.077	21808
874.206	21686
874.335	21774
874.464	21835
874.593	22051
874.722	22048
874.851	21953
874.979	22093
875.108	21930
875.237	21960
875.365	21873
875.494	21949
875.623	21907
875.751	21972
875.88	22074
876.008	22147
876.136	22204
876.265	22371
876.393	22421
876.521	22485
876.65	22508
876.778	22367
876.906	22333
877.034	22192
877.162	22360
877.29	22291
877.418	22325
877.546	22341
877.674	22344
877.802	22306
877.93	22226
878.058	22398
878.185	22249
878.313	22261
878.441	22310
878.568	22177
878.696	22272
878.824	22337
878.951	22527
879.079	22481
879.206	22546
879.333	22478
879.461	22226
879.588	22371
879.715	22481
879.842	22618
879.97	22398
880.097	22200
880.224	22002
880.351	22158
880.478	22192
880.605	22093
880.732	22074
880.859	22344
880.986	22226
881.112	22166
881.239	21937
881.366	21869
881.493	21869
881.619	21804
881.746	21755
881.872	21724
881.999	21633
882.125	21583
882.252	21694
882.378	21663
882.505	21876
882.631	21542
882.757	21557
882.883	21530
883.01	21431
883.136	21393
883.262	21355
883.388	21306
883.514	21374
883.64	21523
883.766	21321
883.892	21157
884.018	21260
884.143	21344
884.269	21454
884.395	21237
884.52	21020
884.646	21081
884.772	21028
884.897	20834
885.023	21009
885.148	21150
885.274	21192
885.399	21077
885.524	21104
885.65	20990
885.775	20937
885.9	21009
886.025	21024
886.15	21089
886.275	21009
886.4	20925
886.525	20941
886.65	20906
886.775	21028
886.9	21241
887.025	21313
887.149	21047
887.274	20819
887.399	20815
887.523	20826
887.648	20838
887.773	20693
887.897	20902
888.021	20944
888.146	20727
888.27	20792
888.395	20883
888.519	20834
888.643	20788
888.767	20895
888.891	20659
889.015	20609
889.139	20716
889.263	20594
889.387	20746
889.511	20830
889.635	20773
889.759	20549
889.883	20594
890.006	20602
890.13	20716
890.254	20575
890.377	20415
890.501	20412
890.624	20286
890.748	20522
890.871	20282
890.995	20138
891.118	20138
891.241	20180
891.364	20332
891.488	20305
891.611	20202
891.734	20138
891.857	20252
891.98	20183
892.103	20267
892.226	20092
892.349	20119
892.471	19837
892.594	20058
892.717	20180
892.839	20103
892.962	20062
893.085	20134
893.207	20065
893.33	19970
893.452	19925
893.575	20119
893.697	20081
893.819	20278
893.941	20317
894.064	20168
894.186	20164
894.308	20081
894.43	20195
894.552	20172
894.674	20210
894.796	20062
894.918	20065
895.04	20134
895.161	20092
895.283	20046
895.405	20092
895.526	20084
895.648	20111
895.769	20062
895.891	20161
896.012	20164
896.134	20164
896.255	20244
896.376	20065
896.498	20153
896.619	20058
896.74	20172
896.861	20115
896.982	20385
897.103	20423
897.224	20320
897.345	20259
897.466	20252
897.587	20336
897.708	20465
897.828	20309
897.949	20278
898.07	20115
898.19	20157
898.311	20370
898.431	20298
898.552	20206
898.672	20275
898.792	20221
898.913	20336
899.033	20119
899.153	20077
899.273	20058
899.393	20054
899.513	20062
899.633	20050
899.753	20043
899.873	19982
899.993	20016
900.113	20020
900.232	19982
900.352	19989
900.472	19883
900.591	19826
900.711	19947
900.83	19807
900.95	19811
901.069	19906
901.189	19757
901.308	19518
901.427	19350
901.546	19377
901.665	19449
901.784	19441
901.904	19168
902.023	19247
902.141	19065
902.26	18901
902.379	18977
902.498	18905
902.617	18798
902.735	18973
902.854	18901
902.973	18844
903.091	18570
903.21	18604
903.328	18551
903.446	18544
903.565	18384
903.683	18372
903.801	18315
903.919	18365
904.038	18277
904.156	18243
904.274	18258
904.392	18049
904.51	18129
904.627	18117
904.745	18220
904.863	18190
904.981	17965
905.098	17851
905.216	17843
905.334	17790
905.451	17824
905.569	17878
905.686	17901
905.803	17847
905.921	17695
906.038	17646
906.155	17699
906.272	17516
906.389	17532
906.506	17368
906.623	17497
906.74	17421
906.857	17246
906.974	17261
907.091	17467
907.208	17528
907.324	17326
907.441	17299
907.557	17105
907.674	17223
907.79	17075
907.907	17105
908.023	17060
908.139	17045
908.256	16995
908.372	16957
908.488	16987
908.604	16866
908.72	16793
908.836	16858
908.952	16828
909.068	16778
909.184	16877
909.3	16729
909.415	16896
909.531	16805
909.647	16451
909.762	16500
909.878	16462
909.993	16478
910.108	16584
910.224	16462
910.339	16493
910.454	16348
910.57	16318
910.685	16299
910.8	16577
910.915	16489
911.03	16356
911.145	16230
911.259	16139
911.374	16143
911.489	16082
911.604	15968
911.718	15876
911.833	15899
911.947	15770
912.062	15766
912.176	15835
912.291	15808
912.405	15797
912.519	16006
912.633	15979
912.748	15857
912.862	15812
912.976	15770
913.09	15553
913.204	15644
913.318	15755
913.431	15709
913.545	15842
913.659	15804
913.772	15591
913.886	15580
914	15374
914.113	15538
914.226	15572
914.34	15507
914.453	15378
914.566	15435
914.68	15241
914.793	15207
914.906	15157
915.019	15028
915.132	15028
915.245	15093
915.358	15119
915.47	15169
915.583	15138
915.696	15047
915.809	15135
915.921	15184
916.034	15032
916.146	15036
916.259	14941
916.371	15058
916.483	14979
916.595	14902
916.708	14769
916.82	14963
916.932	14800
917.044	14918
917.156	14830
917.268	14705
917.38	14743
917.491	14724
917.603	14769
917.715	14876
917.826	14895
917.938	14701
918.049	14575
918.161	14712
918.272	14773
918.384	14826
918.495	14632
918.606	14549
918.717	14454
918.828	14571
918.939	14530
919.05	14404
919.161	14408
919.272	14263
919.383	14457
919.494	14526
919.604	14625
919.715	14427
919.826	14385
919.936	14461
920.047	14556
920.157	14488
920.267	14613
920.378	14438
920.488	14427
920.598	14629
920.708	14750
920.818	14507
920.928	14537
921.038	14731
921.148	14606
921.258	14488
921.368	14336
921.477	14282
921.587	14233
921.697	14020
921.806	14142
921.916	14043
922.025	13871
922.134	13761
922.244	13799
922.353	13921
922.462	13761
922.571	13670
922.68	13525
922.789	13449
922.898	13510
923.007	13373
923.116	13476
923.224	13460
923.333	13411
923.442	13320
923.55	13263
923.659	13327
923.767	13354
923.876	13228
923.984	13282
924.092	13206
924.201	13209
924.309	13225
924.417	13175
924.525	13110
924.633	13129
924.741	14050
924.849	12996
924.956	13061
925.064	12920
925.172	12833
925.279	12871
925.387	12882
925.494	12852
925.602	13027
925.709	12924
925.816	12791
925.924	12776
926.031	12878
926.138	12787
926.245	12875
926.352	12814
926.459	12833
926.566	12947
926.673	12783
926.779	12665
926.886	12646
926.993	12502
927.099	12456
927.206	12456
927.312	12342
927.419	12502
927.525	12437
927.631	12388
927.737	12445
927.843	12273
927.95	12273
928.056	12300
928.162	12315
928.267	12308
928.373	12848
928.479	12323
928.585	12091
928.69	12228
928.796	12224
928.901	12083
929.007	11996
929.112	12175
929.218	12068
929.323	12015
929.428	11999
929.533	12205
929.638	11889
929.743	12038
929.848	11969
929.953	11965
930.058	11885
930.163	11733
930.267	11752
930.372	11764
930.477	11676
930.581	11923
930.685	11718
930.79	11627
930.894	11668
930.998	11471
931.103	11748
931.207	11296
931.311	11254
931.415	11250
931.519	10995
931.623	10976
