Data from test_V78500241_168.txt Node
Date: Fri Mar 25 15:11:01 CST 2022
User: usil
Spectrometer: V785-0024
Trigger mode: 0
Integration Time (sec): 4.000000E-1
Scans to average: 1
Nonlinearity correction enabled: false
Boxcar width: 0
Storing dark spectrum: false
XAxis mode: Wavelengths
Number of Pixels in Spectrum: 1024
>>>>>Begin Spectral Data<<<<<
801.071	28017
801.214	27880
801.356	27603
801.499	27622
801.641	27507
801.783	27264
801.926	27534
802.068	27412
802.211	27348
802.353	27256
802.496	27055
802.638	27142
802.78	27024
802.923	26895
803.065	26990
803.208	26979
803.35	27039
803.492	27161
803.635	27192
803.777	26971
803.919	27062
804.061	27519
804.204	27211
804.346	27180
804.488	27169
804.63	27032
804.773	26975
804.915	27180
805.057	27214
805.199	27066
805.341	27203
805.483	27252
805.626	27245
805.768	27157
805.91	27077
806.052	27310
806.194	27112
806.336	27389
806.478	27135
806.62	27112
806.762	27199
806.904	27435
807.046	27629
807.188	27526
807.33	27625
807.472	27412
807.614	27519
807.756	27473
807.898	27291
808.04	27427
808.182	27462
808.324	27412
808.465	27530
808.607	27496
808.749	27660
808.891	27800
809.033	27865
809.174	27816
809.316	27686
809.458	27770
809.6	27679
809.741	27739
809.883	27808
810.025	27968
810.166	27949
810.308	27899
810.45	27907
810.591	27850
810.733	27618
810.875	27736
811.016	27534
811.158	27553
811.299	27747
811.441	27751
811.582	27701
811.724	27606
811.865	27561
812.007	27561
812.148	27755
812.29	27629
812.431	27808
812.573	27972
812.714	27975
812.855	28086
812.997	28173
813.138	28284
813.279	28287
813.421	28249
813.562	28139
813.703	28044
813.845	27747
813.986	27587
814.127	27325
814.268	27188
814.41	27252
814.551	27325
814.692	27325
814.833	27199
814.974	27214
815.115	27241
815.256	27138
815.397	27058
815.539	26982
815.68	26975
815.821	26872
815.962	26887
816.103	27070
816.244	26857
816.385	26781
816.526	26823
816.666	26705
816.807	26476
816.948	26549
817.089	26442
817.23	26575
817.371	26495
817.512	26564
817.653	26434
817.793	26461
817.934	26514
818.075	26476
818.216	26408
818.356	26278
818.497	26237
818.638	26069
818.778	26046
818.919	26062
819.06	26343
819.2	26317
819.341	26355
819.481	26282
819.622	26571
819.762	26663
819.903	26632
820.043	26537
820.184	26549
820.324	26473
820.465	26415
820.605	26461
820.746	26355
820.886	26339
821.026	26415
821.167	26442
821.307	26385
821.447	26298
821.588	26145
821.728	26054
821.868	25898
822.008	25955
822.149	25776
822.289	25830
822.429	25601
822.569	25601
822.709	25460
822.849	25460
822.99	25434
823.13	25232
823.27	25335
823.41	25126
823.55	24985
823.69	25069
823.83	25050
823.97	25012
824.11	24875
824.25	24932
824.389	24753
824.529	24962
824.669	24970
824.809	24935
824.949	24985
825.089	24962
825.228	24909
825.368	24768
825.508	24764
825.648	24719
825.787	24677
825.927	24844
826.067	24669
826.206	24616
826.346	24734
826.485	24597
826.625	24783
826.765	24840
826.904	24802
827.044	24399
827.183	24357
827.323	24399
827.462	24395
827.601	24388
827.741	24323
827.88	24391
828.02	24140
828.159	24213
828.298	24429
828.437	24498
828.577	24315
828.716	24517
828.855	24361
828.994	24087
829.134	24171
829.273	24197
829.412	24083
829.551	23973
829.69	24121
829.829	24053
829.968	24095
830.107	24045
830.246	24018
830.385	23942
830.524	23923
830.663	23817
830.802	23813
830.941	23649
831.08	23737
831.219	23775
831.357	23714
831.496	23756
831.635	23543
831.774	23577
831.913	23581
832.051	23318
832.19	23436
832.329	23368
832.467	23299
832.606	23315
832.744	23345
832.883	23193
833.022	23231
833.16	23288
833.299	23452
833.437	23200
833.576	23395
833.714	23326
833.852	23387
833.991	23246
834.129	23398
834.267	23478
834.406	23455
834.544	23341
834.682	23242
834.821	23311
834.959	23459
835.097	23155
835.235	23372
835.373	23326
835.511	23269
835.65	23269
835.788	23109
835.926	23117
836.064	22995
836.202	22889
836.34	23102
836.478	23223
836.615	23166
836.753	23216
836.891	23208
837.029	23166
837.167	23170
837.305	23090
837.443	22816
837.58	22961
837.718	22965
837.856	22930
837.993	22858
838.131	22828
838.269	22778
838.406	22934
838.544	22729
838.681	22713
838.819	22516
838.956	22428
839.094	22500
839.231	22466
839.369	22622
839.506	22736
839.643	22687
839.781	22382
839.918	22371
840.055	22474
840.193	22234
840.33	22360
840.467	22447
840.604	22295
840.742	22637
840.879	22204
841.016	22226
841.153	22200
841.29	22474
841.427	22265
841.564	22325
841.701	22234
841.838	22200
841.975	22223
842.112	22249
842.249	22124
842.385	22116
842.522	22219
842.659	22013
842.796	22090
842.933	22029
843.069	22032
843.206	22017
843.343	22143
843.479	21953
843.616	22078
843.752	21850
843.889	21880
844.025	21964
844.162	21739
844.298	21892
844.435	21846
844.571	21686
844.708	21842
844.844	21880
844.98	22029
845.117	21922
845.253	21618
845.389	21690
845.525	21679
845.661	21827
845.798	21492
845.934	21622
846.07	21526
846.206	21549
846.342	21671
846.478	21526
846.614	21363
846.75	21116
846.886	21252
847.022	21321
847.158	21344
847.294	21291
847.429	21340
847.565	21298
847.701	21454
847.837	20982
847.972	21085
848.108	20971
848.244	21036
848.379	20876
848.515	20872
848.65	20853
848.786	20929
848.921	20834
849.057	20845
849.192	20925
849.328	20925
849.463	20796
849.598	20815
849.734	20800
849.869	20716
850.004	20571
850.14	20560
850.275	20545
850.41	20469
850.545	20495
850.68	20541
850.815	20564
850.95	20495
851.085	20727
851.22	20613
851.355	20640
851.49	20587
851.625	20541
851.76	20530
851.895	20419
852.03	20503
852.165	20621
852.299	20450
852.434	20636
852.569	20587
852.703	20632
852.838	20609
852.973	20579
853.107	20773
853.242	20454
853.376	20377
853.511	20309
853.645	20305
853.78	20389
853.914	20343
854.048	20313
854.183	20343
854.317	20419
854.451	20541
854.585	20305
854.72	20374
854.854	20423
854.988	20187
855.122	20286
855.256	20336
855.39	20244
855.524	20351
855.658	20450
855.792	20389
855.926	20431
856.06	20381
856.194	20465
856.327	20298
856.461	20324
856.595	20187
856.729	20301
856.862	20457
856.996	20320
857.13	20377
857.263	20469
857.397	20385
857.53	20305
857.664	20396
857.797	20461
857.931	20530
858.064	20336
858.197	20343
858.331	20396
858.464	20370
858.597	20172
858.731	20199
858.864	20225
858.997	20267
859.13	20355
859.263	20427
859.396	20415
859.529	20271
859.662	20248
859.795	20259
859.928	20317
860.061	20476
860.194	20476
860.327	20351
860.46	20298
860.592	20324
860.725	20347
860.858	20446
860.99	20263
861.123	20332
861.256	20301
861.388	20240
861.521	20902
861.653	20145
861.786	20062
861.918	20073
862.05	20282
862.183	20366
862.315	20412
862.447	20381
862.58	20290
862.712	20084
862.844	19982
862.976	20157
863.108	20111
863.24	20415
863.372	19989
863.504	20016
863.636	19989
863.768	19955
863.9	19967
864.032	19788
864.164	20050
864.296	19921
864.428	20077
864.559	20058
864.691	20062
864.823	19993
864.954	20012
865.086	20050
865.217	19932
865.349	19913
865.48	19921
865.612	19925
865.743	20111
865.875	19940
866.006	19868
866.137	19917
866.269	19826
866.4	19970
866.531	19803
866.662	19799
866.793	19849
866.924	19849
867.055	19845
867.186	19925
867.317	19772
867.448	19879
867.579	19784
867.71	19791
867.841	19795
867.972	19769
868.103	19784
868.233	19822
868.364	19875
868.495	19955
868.625	20180
868.756	20142
868.886	20024
869.017	20103
869.147	20119
869.278	20161
869.408	20088
869.539	20168
869.669	20103
869.799	20187
869.929	20237
870.06	20248
870.19	20256
870.32	20313
870.45	20324
870.58	20530
870.71	20545
870.84	20518
870.97	20446
871.1	20480
871.23	20560
871.36	20686
871.489	20590
871.619	20693
871.749	20598
871.879	20819
872.008	20708
872.138	20609
872.267	20678
872.397	20476
872.526	20549
872.656	20522
872.785	20450
872.915	20682
873.044	20670
873.173	20697
873.303	20826
873.432	20804
873.561	20804
873.69	20819
873.819	20682
873.948	20811
874.077	20765
874.206	20670
874.335	20804
874.464	20804
874.593	21028
874.722	21039
874.851	20895
874.979	21013
875.108	20929
875.237	20876
875.365	20853
875.494	20788
875.623	20937
875.751	20998
875.88	21058
876.008	21104
876.136	21051
876.265	21443
876.393	21530
876.521	21401
876.65	21367
876.778	21367
876.906	21313
877.034	21279
877.162	21302
877.29	21230
877.418	21287
877.546	21325
877.674	21298
877.802	21416
877.93	21367
878.058	21329
878.185	21252
878.313	21230
878.441	21272
878.568	21199
878.696	21370
878.824	21291
878.951	21405
879.079	21557
879.206	21557
879.333	21431
879.461	21386
879.588	21420
879.715	21507
879.842	21660
879.97	21363
880.097	21131
880.224	21062
880.351	21245
880.478	21203
880.605	21051
880.732	21093
880.859	21378
880.986	21089
881.112	21161
881.239	21047
881.366	20830
881.493	20872
881.619	20762
881.746	20765
881.872	20724
881.999	20739
882.125	20689
882.252	20830
882.378	20720
882.505	20853
882.631	20636
882.757	20503
882.883	20629
883.01	20400
883.136	20389
883.262	20374
883.388	20370
883.514	20465
883.64	20511
883.766	20514
883.892	20180
884.018	20286
884.143	20423
884.269	20632
884.395	20282
884.52	20100
884.646	20050
884.772	20054
884.897	19993
885.023	20081
885.148	20187
885.274	20229
885.399	20202
885.524	19951
885.65	20168
885.775	20081
885.9	20035
886.025	20138
886.15	20176
886.275	20065
886.4	20020
886.525	20020
886.65	19940
886.775	20039
886.9	20149
887.025	20256
887.149	20206
887.274	19852
887.399	19856
887.523	19906
887.648	19856
887.773	19746
887.897	19921
888.021	19921
888.146	19860
888.27	19902
888.395	20062
888.519	19890
888.643	19925
888.767	19928
888.891	19742
889.015	19609
889.139	19704
889.263	19643
889.387	19772
889.511	19868
889.635	19750
889.759	19662
889.883	19556
890.006	19594
890.13	19750
890.254	19514
890.377	19590
890.501	19430
890.624	19403
890.748	19457
890.871	19266
890.995	19324
891.118	19278
891.241	19320
891.364	19240
891.488	19358
891.611	19297
891.734	19285
891.857	19343
891.98	19343
892.103	19228
892.226	19266
892.349	19194
892.471	19114
892.594	19175
892.717	19171
892.839	19232
892.962	19183
893.085	19194
893.207	19171
893.33	19031
893.452	19023
893.575	19221
893.697	19072
893.819	19304
893.941	19289
894.064	19312
894.186	19160
894.308	19110
894.43	19156
894.552	19301
894.674	19221
894.796	19053
894.918	19145
895.04	19160
895.161	19213
895.283	19069
895.405	19084
895.526	19099
895.648	19316
895.769	19209
895.891	19255
896.012	19206
896.134	19270
896.255	19194
896.376	19187
896.498	19236
896.619	19225
896.74	19152
896.861	19213
896.982	19476
897.103	19761
897.224	19582
897.345	19434
897.466	19392
897.587	19369
897.708	19502
897.828	19354
897.949	19495
898.07	19285
898.19	19289
898.311	19476
898.431	19350
898.552	19396
898.672	19487
898.792	19426
898.913	19373
899.033	19255
899.153	19164
899.273	19152
899.393	19137
899.513	19221
899.633	19148
899.753	19152
899.873	19110
899.993	19198
900.113	19110
900.232	19065
900.352	19072
900.472	18985
900.591	18890
900.711	18981
900.83	19019
900.95	19156
901.069	19042
901.189	18871
901.308	18654
901.427	18570
901.546	18612
901.665	18506
901.784	18490
901.904	18380
902.023	18429
902.141	18114
902.26	18106
902.379	18148
902.498	18015
902.617	18072
902.735	18034
902.854	18030
902.973	17969
903.091	17756
903.21	17775
903.328	17611
903.446	17665
903.565	17543
903.683	17539
903.801	17425
903.919	17630
904.038	17448
904.156	17360
904.274	17372
904.392	17395
904.51	17220
904.627	17277
904.745	17467
904.863	17296
904.981	17052
905.098	17113
905.216	17155
905.334	17064
905.451	17105
905.569	16938
905.686	16984
905.803	16980
905.921	16771
906.038	16968
906.155	16869
906.272	16717
906.389	16736
906.506	16558
906.623	16603
906.74	16516
906.857	16409
906.974	16386
907.091	16508
907.208	16778
907.324	16531
907.441	16516
907.557	16261
907.674	16226
907.79	16128
907.907	16200
908.023	16226
908.139	16246
908.256	16128
908.372	16124
908.488	16135
908.604	15949
908.72	15903
908.836	15846
908.952	15915
909.068	16013
909.184	15975
909.3	15892
909.415	16017
909.531	15876
909.647	15682
909.762	15739
909.878	15637
909.993	15717
910.108	15648
910.224	15625
910.339	15633
910.454	15511
910.57	15393
910.685	15405
910.8	15622
910.915	15739
911.03	15416
911.145	15332
911.259	15268
911.374	15222
911.489	15192
911.604	15230
911.718	14998
911.833	14967
911.947	14872
912.062	14785
912.176	14910
912.291	14960
912.405	14960
912.519	15203
912.633	15169
912.748	15020
912.862	15001
912.976	14830
913.09	14621
913.204	14773
913.318	14830
913.431	14914
913.545	14815
913.659	14975
913.772	14697
913.886	14621
914	14621
914.113	14670
914.226	14762
914.34	14655
914.453	14457
914.566	14625
914.68	14625
914.793	14492
914.906	14298
915.019	14332
915.132	14130
915.245	14320
915.358	14263
915.47	14294
915.583	14294
915.696	14172
915.809	14381
915.921	14396
916.034	14225
916.146	14142
916.259	14210
916.371	14355
916.483	14195
916.595	14111
916.708	14081
916.82	14084
916.932	14081
917.044	14065
917.156	14046
917.268	13959
917.38	13928
917.491	13974
917.603	13951
917.715	13951
917.826	14050
917.938	13955
918.049	13860
918.161	13856
918.272	14031
918.384	13986
918.495	13921
918.606	13765
918.717	13693
918.828	13784
918.939	13769
919.05	13594
919.161	13715
919.272	13441
919.383	13567
919.494	13734
919.604	13871
919.715	13795
919.826	13594
919.936	13689
920.047	13689
920.157	13738
920.267	13921
920.378	13719
920.488	13670
920.598	13833
920.708	14088
920.818	13765
920.928	13826
921.038	14081
921.148	13860
921.258	13620
921.368	13597
921.477	13445
921.587	13369
921.697	13320
921.806	13445
921.916	13179
922.025	13126
922.134	13038
922.244	12947
922.353	13103
922.462	12924
922.571	12867
922.68	12738
922.789	12665
922.898	12738
923.007	12616
923.116	12696
923.224	12677
923.333	12650
923.442	12578
923.55	12544
923.659	12509
923.767	12654
923.876	12502
923.984	12559
924.092	12399
924.201	12445
924.309	12525
924.417	12509
924.525	12456
924.633	12372
924.741	13133
924.849	12152
924.956	12323
925.064	12213
925.172	12125
925.279	12152
925.387	12216
925.494	12258
925.602	12350
925.709	12247
925.816	12144
925.924	12110
926.031	12167
926.138	12201
926.245	12167
926.352	12110
926.459	12178
926.566	12254
926.673	12076
926.779	11916
926.886	11893
926.993	11866
927.099	11786
927.206	11707
927.312	11729
927.419	11783
927.525	11760
927.631	11775
927.737	11665
927.843	11688
927.95	11566
928.056	11543
928.162	11592
928.267	11589
928.373	12102
928.479	11661
928.585	11436
928.69	11573
928.796	11665
928.901	11459
929.007	11212
929.112	11509
929.218	11452
929.323	11353
929.428	11337
929.533	11490
929.638	11311
929.743	11284
929.848	11307
929.953	11299
930.058	11227
930.163	11006
930.267	11056
930.372	11242
930.477	10984
930.581	11341
930.685	11094
930.79	11010
930.894	10980
930.998	10885
931.103	11083
931.207	10710
931.311	10679
931.415	10615
931.519	10276
931.623	10329
