Data from test_V78500241_1316.txt Node
Date: Fri Mar 25 15:19:01 CST 2022
User: usil
Spectrometer: V785-0024
Trigger mode: 0
Integration Time (sec): 4.000000E-1
Scans to average: 1
Nonlinearity correction enabled: false
Boxcar width: 0
Storing dark spectrum: false
XAxis mode: Wavelengths
Number of Pixels in Spectrum: 1024
>>>>>Begin Spectral Data<<<<<
801.071	27907
801.214	27914
801.356	27660
801.499	27660
801.641	27580
801.783	27583
801.926	27610
802.068	27397
802.211	27416
802.353	27408
802.496	27252
802.638	27241
802.78	27169
802.923	27077
803.065	27062
803.208	27184
803.35	27077
803.492	27222
803.635	27298
803.777	27188
803.919	27378
804.061	27679
804.204	27283
804.346	27294
804.488	27214
804.63	27306
804.773	27218
804.915	27424
805.057	27572
805.199	27283
805.341	27473
805.483	27458
805.626	27374
805.768	27325
805.91	27287
806.052	27576
806.194	27374
806.336	27572
806.478	27488
806.62	27545
806.762	27591
806.904	27838
807.046	27880
807.188	27983
807.33	27846
807.472	27812
807.614	27816
807.756	27781
807.898	27793
808.04	27709
808.182	27804
808.324	27778
808.465	27800
808.607	28082
808.749	27960
808.891	28185
809.033	28272
809.174	28112
809.316	28131
809.458	28143
809.6	28032
809.741	28147
809.883	28348
810.025	28390
810.166	28413
810.308	28485
810.45	28356
810.591	28306
810.733	28150
810.875	27998
811.016	27960
811.158	28074
811.299	28215
811.441	28299
811.582	28215
811.724	28097
811.865	28200
812.007	28086
812.148	28101
812.29	28150
812.431	28303
812.573	28314
812.714	28516
812.855	28542
812.997	28778
813.138	28843
813.279	28694
813.421	28630
813.562	28626
813.703	28428
813.845	28352
813.986	28002
814.127	27823
814.268	27835
814.41	27762
814.551	27895
814.692	27823
814.833	27656
814.974	27785
815.115	27854
815.256	27629
815.397	27713
815.539	27644
815.68	27633
815.821	27561
815.962	27648
816.103	27823
816.244	27389
816.385	27378
816.526	27321
816.666	27188
816.807	27138
816.948	27211
817.089	27275
817.23	27165
817.371	27070
817.512	26979
817.653	27180
817.793	27131
817.934	27119
818.075	27017
818.216	27024
818.356	27062
818.497	27017
818.638	26743
818.778	26891
818.919	26838
819.06	26994
819.2	27108
819.341	27032
819.481	27047
819.622	27275
819.762	27386
819.903	27507
820.043	27188
820.184	27058
820.324	27287
820.465	27306
820.605	27218
820.746	27306
820.886	27017
821.026	27108
821.167	27089
821.307	27302
821.447	27024
821.588	26975
821.728	26895
821.868	26769
822.008	26556
822.149	26739
822.289	26568
822.429	26320
822.569	26336
822.709	26271
822.849	26119
822.99	26149
823.13	25970
823.27	25947
823.41	25738
823.55	25674
823.69	25860
823.83	25947
823.97	25822
824.11	25734
824.25	25750
824.389	25719
824.529	25871
824.669	25807
824.809	25871
824.949	25814
825.089	25932
825.228	25780
825.368	25578
825.508	25662
825.648	25540
825.787	25567
825.927	25761
826.067	25632
826.206	25529
826.346	25731
826.485	25700
826.625	25696
826.765	25689
826.904	25628
827.044	25464
827.183	25388
827.323	25285
827.462	25392
827.601	25415
827.741	25194
827.88	25293
828.02	25228
828.159	25297
828.298	25320
828.437	25331
828.577	25289
828.716	25358
828.855	25263
828.994	25023
829.134	25175
829.273	24981
829.412	24970
829.551	24985
829.69	25072
829.829	25019
829.968	25217
830.107	25057
830.246	24920
830.385	24886
830.524	24783
830.663	24772
830.802	24829
830.941	24589
831.08	24597
831.219	24760
831.357	24726
831.496	24711
831.635	24604
831.774	24464
831.913	24540
832.051	24403
832.19	24475
832.329	24437
832.467	24403
832.606	24289
832.744	24330
832.883	24247
833.022	24254
833.16	24346
833.299	24407
833.437	24167
833.576	24426
833.714	24399
833.852	24467
833.991	24380
834.129	24418
834.267	24528
834.406	24418
834.544	24475
834.682	24502
834.821	24426
834.959	24544
835.097	24384
835.235	24342
835.373	24479
835.511	24376
835.65	24281
835.788	24148
835.926	24144
836.064	23969
836.202	24049
836.34	24121
836.478	24365
836.615	24178
836.753	24251
836.891	24365
837.029	24136
837.167	24136
837.305	24213
837.443	24121
837.58	24003
837.718	24060
837.856	24079
837.993	23977
838.131	24125
838.269	23950
838.406	23805
838.544	23737
838.681	23703
838.819	23627
838.956	23509
839.094	23615
839.231	23497
839.369	23668
839.506	23950
839.643	23775
839.781	23543
839.918	23421
840.055	23490
840.193	23410
840.33	23425
840.467	23368
840.604	23433
840.742	23661
840.879	23322
841.016	23383
841.153	23330
841.29	23516
841.427	23387
841.564	23520
841.701	23337
841.838	23231
841.975	23315
842.112	23265
842.249	23174
842.385	23246
842.522	23341
842.659	23193
842.796	23136
842.933	23155
843.069	23098
843.206	23155
843.343	23288
843.479	23155
843.616	23170
843.752	22930
843.889	23003
844.025	23083
844.162	22942
844.298	23121
844.435	22934
844.571	22900
844.708	22942
844.844	23102
844.98	23204
845.117	23113
845.253	22850
845.389	22866
845.525	22831
845.661	22877
845.798	22630
845.934	22618
846.07	22675
846.206	22816
846.342	22828
846.478	22603
846.614	22516
846.75	22485
846.886	22432
847.022	22584
847.158	22531
847.294	22371
847.429	22382
847.565	22382
847.701	22573
847.837	22017
847.972	22059
848.108	22329
848.244	22322
848.379	22010
848.515	21994
848.65	22105
848.786	22074
848.921	22063
849.057	22147
849.192	22101
849.328	22036
849.463	22063
849.598	21842
849.734	21797
849.869	21846
850.004	21854
850.14	21785
850.275	21835
850.41	21599
850.545	21675
850.68	21663
850.815	21785
850.95	21751
851.085	22010
851.22	21972
851.355	21728
851.49	21789
851.625	21759
851.76	21785
851.895	21671
852.03	21652
852.165	21766
852.299	21679
852.434	21831
852.569	21732
852.703	21690
852.838	21842
852.973	21945
853.107	21876
853.242	21709
853.376	21641
853.511	21477
853.645	21606
853.78	21690
853.914	21568
854.048	21667
854.183	21473
854.317	21637
854.451	21698
854.585	21625
854.72	21637
854.854	21698
854.988	21454
855.122	21663
855.256	21447
855.39	21561
855.524	21603
855.658	21663
855.792	21610
855.926	21599
856.06	21633
856.194	21686
856.327	21583
856.461	21564
856.595	21530
856.729	21523
856.862	21781
856.996	21675
857.13	21739
857.263	21831
857.397	21671
857.53	21572
857.664	21698
857.797	21583
857.931	21591
858.064	21682
858.197	21690
858.331	21610
858.464	21473
858.597	21443
858.731	21511
858.864	21542
858.997	21538
859.13	21618
859.263	21553
859.396	21682
859.529	21614
859.662	21507
859.795	21431
859.928	21591
860.061	21648
860.194	21911
860.327	21576
860.46	21576
860.592	21709
860.725	21671
860.858	21720
860.99	21614
861.123	21519
861.256	21641
861.388	21637
861.521	22314
861.653	21454
861.786	21428
861.918	21466
862.05	21431
862.183	21454
862.315	21561
862.447	21568
862.58	21416
862.712	21279
862.844	21275
862.976	21344
863.108	21226
863.24	21568
863.372	21241
863.504	21226
863.636	21203
863.768	21428
863.9	21245
864.032	21116
864.164	21355
864.296	21336
864.428	21393
864.559	21313
864.691	21348
864.823	21207
864.954	21188
865.086	21302
865.217	21138
865.349	21138
865.48	21096
865.612	21142
865.743	21355
865.875	21169
866.006	21077
866.137	21112
866.269	21146
866.4	21142
866.531	21085
866.662	21020
866.793	21051
866.924	21093
867.055	21207
867.186	21119
867.317	20967
867.448	20880
867.579	20960
867.71	20963
867.841	21093
867.972	21043
868.103	20967
868.233	21108
868.364	21066
868.495	21310
868.625	21378
868.756	21370
868.886	21241
869.017	21249
869.147	21351
869.278	21485
869.408	21370
869.539	21351
869.669	21370
869.799	21473
869.929	21477
870.06	21515
870.19	21720
870.32	21568
870.45	21747
870.58	21831
870.71	21755
870.84	21831
870.97	21724
871.1	21724
871.23	21930
871.36	21880
871.489	21937
871.619	21903
871.749	21892
871.879	22097
872.008	22124
872.138	21911
872.267	21960
872.397	21766
872.526	21819
872.656	21808
872.785	21800
872.915	21968
873.044	22055
873.173	21842
873.303	21918
873.432	22044
873.561	21975
873.69	22013
873.819	21994
873.948	21998
874.077	21895
874.206	22006
874.335	22013
874.464	22074
874.593	22154
874.722	22272
874.851	22337
874.979	22219
875.108	22238
875.237	22124
875.365	22093
875.494	22177
875.623	22181
875.751	22147
875.88	22211
876.008	22299
876.136	22291
876.265	22516
876.393	22664
876.521	22656
876.65	22675
876.778	22557
876.906	22512
877.034	22512
877.162	22451
877.29	22382
877.418	22561
877.546	22531
877.674	22611
877.802	22481
877.93	22436
878.058	22440
878.185	22375
878.313	22459
878.441	22550
878.568	22360
878.696	22546
878.824	22485
878.951	22660
879.079	22660
879.206	22934
879.333	22637
879.461	22561
879.588	22687
879.715	22637
879.842	22767
879.97	22615
880.097	22356
880.224	22413
880.351	22405
880.478	22314
880.605	22375
880.732	22344
880.859	22497
880.986	22375
881.112	22402
881.239	22257
881.366	22131
881.493	22067
881.619	22002
881.746	22036
881.872	21816
881.999	21953
882.125	21854
882.252	22032
882.378	21842
882.505	21956
882.631	21778
882.757	21751
882.883	21637
883.01	21561
883.136	21557
883.262	21397
883.388	21561
883.514	21675
883.64	21682
883.766	21549
883.892	21386
884.018	21450
884.143	21488
884.269	21701
884.395	21275
884.52	21260
884.646	21306
884.772	21306
884.897	21207
885.023	21298
885.148	21405
885.274	21389
885.399	21325
885.524	21146
885.65	21370
885.775	21291
885.9	21252
886.025	21382
886.15	21283
886.275	21264
886.4	21150
886.525	21142
886.65	21207
886.775	21154
886.9	21492
887.025	21370
887.149	21138
887.274	21085
887.399	21017
887.523	21058
887.648	21055
887.773	20891
887.897	21173
888.021	21017
888.146	20982
888.27	20941
888.395	21116
888.519	21055
888.643	20929
888.767	20933
888.891	20929
889.015	20800
889.139	20792
889.263	20800
889.387	20925
889.511	21039
889.635	20925
889.759	20735
889.883	20815
890.006	20777
890.13	20975
890.254	20750
890.377	20815
890.501	20446
890.624	20503
890.748	20533
890.871	20541
890.995	20408
891.118	20275
891.241	20313
891.364	20336
891.488	20473
891.611	20404
891.734	20305
891.857	20412
891.98	20431
892.103	20324
892.226	20362
892.349	20343
892.471	20145
892.594	20358
892.717	20225
892.839	20202
892.962	20377
893.085	20294
893.207	20244
893.33	20161
893.452	20145
893.575	20366
893.697	20210
893.819	20564
893.941	20465
894.064	20476
894.186	20259
894.308	20176
894.43	20317
894.552	20476
894.674	20324
894.796	20199
894.918	20278
895.04	20210
895.161	20339
895.283	20362
895.405	20214
895.526	20396
895.648	20263
895.769	20358
895.891	20305
896.012	20362
896.134	20347
896.255	20320
896.376	20176
896.498	20278
896.619	20267
896.74	20210
896.861	20343
896.982	20549
897.103	20689
897.224	20499
897.345	20564
897.466	20286
897.587	20415
897.708	20556
897.828	20514
897.949	20476
898.07	20301
898.19	20362
898.311	20457
898.431	20381
898.552	20469
898.672	20511
898.792	20533
898.913	20454
899.033	20377
899.153	20225
899.273	20161
899.393	20149
899.513	20240
899.633	20168
899.753	20275
899.873	20153
899.993	20267
900.113	20164
900.232	20168
900.352	20058
900.472	20005
900.591	20031
900.711	20111
900.83	19864
900.95	20176
901.069	20046
901.189	19860
901.308	19647
901.427	19643
901.546	19563
901.665	19609
901.784	19620
901.904	19407
902.023	19388
902.141	19206
902.26	19129
902.379	19168
902.498	19042
902.617	19084
902.735	19076
902.854	19118
902.973	18958
903.091	18787
903.21	18700
903.328	18764
903.446	18661
903.565	18566
903.683	18604
903.801	18506
903.919	18525
904.038	18433
904.156	18380
904.274	18376
904.392	18346
904.51	18266
904.627	18308
904.745	18407
904.863	18346
904.981	18178
905.098	17939
905.216	17901
905.334	18091
905.451	17999
905.569	17889
905.686	18060
905.803	18038
905.921	17760
906.038	18003
906.155	17870
906.272	17752
906.389	17710
906.506	17520
906.623	17554
906.74	17558
906.857	17360
906.974	17387
907.091	17543
907.208	17710
907.324	17551
907.441	17501
907.557	17334
907.674	17360
907.79	17223
907.907	17174
908.023	17269
908.139	17341
908.256	17162
908.372	17124
908.488	17083
908.604	16904
908.72	16987
908.836	16831
908.952	16839
909.068	16957
909.184	17018
909.3	17018
909.415	17075
909.531	16908
909.647	16691
909.762	16630
909.878	16656
909.993	16778
910.108	16672
910.224	16550
910.339	16721
910.454	16603
910.57	16443
910.685	16432
910.8	16664
910.915	16615
911.03	16550
911.145	16299
911.259	16242
911.374	16265
911.489	16158
911.604	16181
911.718	16010
911.833	16093
911.947	15842
912.062	15861
912.176	15945
912.291	15926
912.405	16013
912.519	16196
912.633	16128
912.748	16032
912.862	15960
912.976	15835
913.09	15652
913.204	15804
913.318	15827
913.431	15857
913.545	15911
913.659	15972
913.772	15698
913.886	15629
914	15580
914.113	15667
914.226	15747
914.34	15728
914.453	15454
914.566	15652
914.68	15526
914.793	15374
914.906	15237
915.019	15188
915.132	15127
915.245	15207
915.358	15180
915.47	15260
915.583	15211
915.696	15256
915.809	15302
915.921	15325
916.034	15119
916.146	15233
916.259	15150
916.371	15241
916.483	15154
916.595	14975
916.708	15017
916.82	15119
916.932	14967
917.044	15039
917.156	14982
917.268	14857
917.38	14883
917.491	14853
917.603	14899
917.715	14899
917.826	14948
917.938	14800
918.049	14739
918.161	14792
918.272	14895
918.384	14849
918.495	14785
918.606	14674
918.717	14583
918.828	14549
918.939	14697
919.05	14503
919.161	14476
919.272	14408
919.383	14450
919.494	14727
919.604	14754
919.715	14617
919.826	14541
919.936	14610
920.047	14621
920.157	14602
920.267	14777
920.378	14678
920.488	14632
920.598	14636
920.708	14819
920.818	14659
920.928	14701
921.038	14838
921.148	14906
921.258	14476
921.368	14427
921.477	14412
921.587	14267
921.697	14240
921.806	14355
921.916	14153
922.025	13936
922.134	14039
922.244	13849
922.353	13955
922.462	13925
922.571	13784
922.68	13643
922.789	13597
922.898	13597
923.007	13529
923.116	13609
923.224	13552
923.333	13514
923.442	13552
923.55	13377
923.659	13506
923.767	13502
923.876	13358
923.984	13518
924.092	13251
924.201	13403
924.309	13396
924.417	13388
924.525	13278
924.633	13206
924.741	14240
924.849	13099
924.956	13190
925.064	13050
925.172	13053
925.279	13046
925.387	13088
925.494	13095
925.602	13114
925.709	13084
925.816	12966
925.924	13000
926.031	13038
926.138	12844
926.245	13042
926.352	12901
926.459	12993
926.566	12996
926.673	12817
926.779	12795
926.886	12806
926.993	12639
927.099	12601
927.206	12547
927.312	12483
927.419	12528
927.525	12555
927.631	12585
927.737	12464
927.843	12437
927.95	12403
928.056	12380
928.162	12422
928.267	12456
928.373	13012
928.479	12445
928.585	12243
928.69	12342
928.796	12399
928.901	12365
929.007	12155
929.112	12277
929.218	12235
929.323	12129
929.428	12098
929.533	12209
929.638	12095
929.743	12068
929.848	12076
929.953	12041
930.058	12015
930.163	11802
930.267	11836
930.372	11920
930.477	11802
930.581	11946
930.685	11893
930.79	11668
930.894	11798
930.998	11638
931.103	11821
931.207	11482
931.311	11353
931.415	11284
931.519	11094
931.623	11102
