Data from test_V78500241_662.txt Node
Date: Fri Mar 25 15:14:28 CST 2022
User: usil
Spectrometer: V785-0024
Trigger mode: 0
Integration Time (sec): 4.000000E-1
Scans to average: 1
Nonlinearity correction enabled: false
Boxcar width: 0
Storing dark spectrum: false
XAxis mode: Wavelengths
Number of Pixels in Spectrum: 1024
>>>>>Begin Spectral Data<<<<<
801.071	27759
801.214	27717
801.356	27488
801.499	27393
801.641	27344
801.783	27351
801.926	27431
802.068	27321
802.211	27138
802.353	27173
802.496	26933
802.638	27017
802.78	26781
802.923	26960
803.065	26899
803.208	26967
803.35	26906
803.492	27005
803.635	27100
803.777	26979
803.919	27188
804.061	27374
804.204	27135
804.346	27062
804.488	27104
804.63	27135
804.773	26982
804.915	27089
805.057	27252
805.199	27135
805.341	27085
805.483	27249
805.626	27199
805.768	27203
805.91	27131
806.052	27325
806.194	27218
806.336	27374
806.478	27344
806.62	27321
806.762	27344
806.904	27580
807.046	27720
807.188	27728
807.33	27625
807.472	27816
807.614	27637
807.756	27576
807.898	27587
808.04	27561
808.182	27606
808.324	27458
808.465	27603
808.607	27656
808.749	27926
808.891	27972
809.033	28048
809.174	27937
809.316	27899
809.458	27842
809.6	27876
809.741	28105
809.883	28063
810.025	28093
810.166	28059
810.308	28219
810.45	28166
810.591	28112
810.733	27956
810.875	27816
811.016	27835
811.158	27975
811.299	27964
811.441	28017
811.582	28051
811.724	27937
811.865	27823
812.007	27880
812.148	27861
812.29	27930
812.431	28116
812.573	28367
812.714	28341
812.855	28443
812.997	28542
813.138	28679
813.279	28615
813.421	28592
813.562	28440
813.703	28284
813.845	28234
813.986	27873
814.127	27835
814.268	27519
814.41	27751
814.551	27488
814.692	27770
814.833	27644
814.974	27568
815.115	27564
815.256	27450
815.397	27515
815.539	27420
815.68	27427
815.821	27363
815.962	27405
816.103	27458
816.244	27184
816.385	27157
816.526	27184
816.666	27013
816.807	26785
816.948	27028
817.089	26994
817.23	27055
817.371	26834
817.512	26861
817.653	26963
817.793	26948
817.934	26838
818.075	26986
818.216	26944
818.356	26785
818.497	26895
818.638	26560
818.778	26644
818.919	26724
819.06	26796
819.2	26823
819.341	26914
819.481	26842
819.622	27066
819.762	27051
819.903	27169
820.043	27112
820.184	26998
820.324	26971
820.465	27081
820.605	26948
820.746	27020
820.886	26960
821.026	26838
821.167	26982
821.307	27089
821.447	27017
821.588	26834
821.728	26762
821.868	26533
822.008	26294
822.149	26172
822.289	26336
822.429	25982
822.569	26039
822.709	26062
822.849	25849
822.99	25917
823.13	25841
823.27	25803
823.41	25635
823.55	25655
823.69	25742
823.83	25742
823.97	25594
824.11	25495
824.25	25430
824.389	25502
824.529	25651
824.669	25616
824.809	25605
824.949	25674
825.089	25529
825.228	25674
825.368	25460
825.508	25438
825.648	25320
825.787	25445
825.927	25400
826.067	25304
826.206	25381
826.346	25411
826.485	25354
826.625	25502
826.765	25373
826.904	25434
827.044	25247
827.183	25145
827.323	25095
827.462	25187
827.601	25240
827.741	25072
827.88	25141
828.02	25046
828.159	24962
828.298	25088
828.437	25171
828.577	25000
828.716	25213
828.855	25031
828.994	24878
829.134	24814
829.273	24840
829.412	24753
829.551	24688
829.69	24814
829.829	24916
829.968	24795
830.107	24817
830.246	24821
830.385	24791
830.524	24654
830.663	24669
830.802	24608
830.941	24403
831.08	24410
831.219	24494
831.357	24464
831.496	24509
831.635	24547
831.774	24330
831.913	24308
832.051	24186
832.19	24163
832.329	24239
832.467	24216
832.606	24194
832.744	24205
832.883	24038
833.022	24095
833.16	24026
833.299	24178
833.437	24034
833.576	24273
833.714	24201
833.852	24197
833.991	24258
834.129	24228
834.267	24399
834.406	24136
834.544	24148
834.682	24068
834.821	24053
834.959	24334
835.097	24064
835.235	24228
835.373	24144
835.511	24174
835.65	24060
835.788	24038
835.926	23897
836.064	23878
836.202	23836
836.34	24060
836.478	24205
836.615	24038
836.753	24083
836.891	24110
837.029	23973
837.167	24030
837.305	23889
837.443	23904
837.58	23920
837.718	23939
837.856	23752
837.993	23741
838.131	23832
838.269	23714
838.406	23668
838.544	23634
838.681	23463
838.819	23303
838.956	23318
839.094	23246
839.231	23368
839.369	23547
839.506	23657
839.643	23509
839.781	23299
839.918	23299
840.055	23273
840.193	23284
840.33	23239
840.467	23296
840.604	23391
840.742	23562
840.879	23128
841.016	23178
841.153	23159
841.29	23334
841.427	23246
841.564	23372
841.701	23227
841.838	23052
841.975	23121
842.112	23231
842.249	22976
842.385	22869
842.522	23178
842.659	23056
842.796	22889
842.933	22896
843.069	22904
843.206	23003
843.343	22908
843.479	23090
843.616	22991
843.752	22820
843.889	22687
844.025	22812
844.162	22721
844.298	22862
844.435	22687
844.571	22599
844.708	22843
844.844	22923
844.98	22839
845.117	22911
845.253	22615
845.389	22645
845.525	22679
845.661	22683
845.798	22535
845.934	22550
846.07	22421
846.206	22455
846.342	22459
846.478	22451
846.614	22485
846.75	22177
846.886	22204
847.022	22303
847.158	22246
847.294	22086
847.429	22154
847.565	22207
847.701	22318
847.837	21975
847.972	21728
848.108	22078
848.244	21998
848.379	21816
848.515	21793
848.65	21838
848.786	21800
848.921	21903
849.057	21956
849.192	21907
849.328	21816
849.463	21759
849.598	21785
849.734	21652
849.869	21679
850.004	21553
850.14	21633
850.275	21576
850.41	21477
850.545	21553
850.68	21663
850.815	21667
850.95	21561
851.085	21774
851.22	21671
851.355	21545
851.49	21583
851.625	21538
851.76	21519
851.895	21500
852.03	21363
852.165	21610
852.299	21481
852.434	21610
852.569	21717
852.703	21530
852.838	21660
852.973	21728
853.107	21633
853.242	21523
853.376	21439
853.511	21199
853.645	21408
853.78	21583
853.914	21332
854.048	21386
854.183	21344
854.317	21462
854.451	21618
854.585	21443
854.72	21336
854.854	21538
854.988	21199
855.122	21367
855.256	21313
855.39	21386
855.524	21439
855.658	21279
855.792	21310
855.926	21428
856.06	21447
856.194	21466
856.327	21287
856.461	21359
856.595	21363
856.729	21416
856.862	21466
856.996	21466
857.13	21488
857.263	21515
857.397	21485
857.53	21401
857.664	21530
857.797	21454
857.931	21606
858.064	21344
858.197	21462
858.331	21367
858.464	21428
858.597	21256
858.731	21344
858.864	21367
858.997	21336
859.13	21405
859.263	21317
859.396	21534
859.529	21424
859.662	21340
859.795	21370
859.928	21336
860.061	21568
860.194	21561
860.327	21447
860.46	21458
860.592	21462
860.725	21473
860.858	21549
860.99	21424
861.123	21306
861.256	21355
861.388	21397
861.521	22093
861.653	21294
861.786	21150
861.918	21203
862.05	21306
862.183	21230
862.315	21401
862.447	21306
862.58	21351
862.712	21039
862.844	21112
862.976	21249
863.108	21096
863.24	21553
863.372	21066
863.504	21161
863.636	21074
863.768	21066
863.9	21089
864.032	21058
864.164	21028
864.296	20986
864.428	21154
864.559	21199
864.691	21180
864.823	21131
864.954	21108
865.086	21093
865.217	21085
865.349	20944
865.48	21020
865.612	21070
865.743	21154
865.875	21013
866.006	20895
866.137	20941
866.269	20941
866.4	21005
866.531	20979
866.662	20857
866.793	20952
866.924	20933
867.055	20944
867.186	20788
867.317	20872
867.448	20982
867.579	20902
867.71	20823
867.841	20994
867.972	20998
868.103	20998
868.233	20883
868.364	20960
868.495	20967
868.625	21112
868.756	21245
868.886	21055
869.017	21089
869.147	21256
869.278	21252
869.408	21211
869.539	21260
869.669	21268
869.799	21256
869.929	21203
870.06	21283
870.19	21515
870.32	21401
870.45	21458
870.58	21477
870.71	21629
870.84	21747
870.97	21576
871.1	21622
871.23	21755
871.36	21835
871.489	21644
871.619	21637
871.749	21785
871.879	21903
872.008	21937
872.138	21671
872.267	21698
872.397	21576
872.526	21644
872.656	21606
872.785	21682
872.915	21804
873.044	21793
873.173	21835
873.303	21827
873.432	21770
873.561	21850
873.69	21778
873.819	21709
873.948	21922
874.077	21747
874.206	21717
874.335	21762
874.464	21895
874.593	21953
874.722	22029
874.851	22029
874.979	21994
875.108	22013
875.237	21972
875.365	21823
875.494	22036
875.623	22048
875.751	21964
875.88	21979
876.008	22105
876.136	22188
876.265	22413
876.393	22577
876.521	22375
876.65	22523
876.778	22409
876.906	22185
877.034	22329
877.162	22329
877.29	22291
877.418	22474
877.546	22166
877.674	22249
877.802	22276
877.93	22398
878.058	22272
878.185	22367
878.313	22280
878.441	22348
878.568	22219
878.696	22280
878.824	22341
878.951	22402
879.079	22599
879.206	22637
879.333	22443
879.461	22333
879.588	22440
879.715	22554
879.842	22607
879.97	22421
880.097	22219
880.224	22303
880.351	22223
880.478	22230
880.605	22097
880.732	22105
880.859	22375
880.986	22204
881.112	22040
881.239	22070
881.366	21823
881.493	21854
881.619	21751
881.746	21797
881.872	21770
881.999	21694
882.125	21724
882.252	21762
882.378	21732
882.505	21888
882.631	21641
882.757	21477
882.883	21481
883.01	21359
883.136	21401
883.262	21272
883.388	21317
883.514	21420
883.64	21454
883.766	21359
883.892	21294
884.018	21336
884.143	21374
884.269	21420
884.395	21142
884.52	21081
884.646	21051
884.772	20941
884.897	21096
885.023	21112
885.148	21165
885.274	21096
885.399	21214
885.524	21100
885.65	21062
885.775	21100
885.9	21020
886.025	21180
886.15	21146
886.275	21077
886.4	20887
886.525	21081
886.65	21066
886.775	20925
886.9	21165
887.025	21241
887.149	21024
887.274	20918
887.399	20678
887.523	20876
887.648	20743
887.773	20823
887.897	20849
888.021	20887
888.146	20792
888.27	20887
888.395	20902
888.519	20842
888.643	20918
888.767	20861
888.891	20845
889.015	20667
889.139	20712
889.263	20705
889.387	20716
889.511	20849
889.635	20750
889.759	20530
889.883	20762
890.006	20629
890.13	20720
890.254	20484
890.377	20552
890.501	20503
890.624	20309
890.748	20473
890.871	20393
890.995	20183
891.118	20149
891.241	20252
891.364	20252
891.488	20385
891.611	20195
891.734	20176
891.857	20233
891.98	20259
892.103	20214
892.226	20168
892.349	20221
892.471	19936
892.594	20263
892.717	20126
892.839	20180
892.962	20100
893.085	20176
893.207	20046
893.33	19993
893.452	19898
893.575	20225
893.697	20020
893.819	20172
893.941	20393
894.064	20240
894.186	20027
894.308	19951
894.43	20233
894.552	20301
894.674	20278
894.796	19906
894.918	20103
895.04	20062
895.161	20229
895.283	20153
895.405	19982
895.526	20039
895.648	20195
895.769	20126
895.891	20259
896.012	20233
896.134	20164
896.255	20069
896.376	20107
896.498	20195
896.619	20153
896.74	20168
896.861	20096
896.982	20495
897.103	20450
897.224	20370
897.345	20355
897.466	20282
897.587	20343
897.708	20511
897.828	20389
897.949	20168
898.07	20119
898.19	20275
898.311	20457
898.431	20271
898.552	20290
898.672	20381
898.792	20298
898.913	20263
899.033	20256
899.153	20161
899.273	20081
899.393	20100
899.513	20107
899.633	20103
899.753	19997
899.873	20020
899.993	20084
900.113	20065
900.232	20122
900.352	20005
900.472	19921
900.591	19841
900.711	19913
900.83	19845
900.95	19864
901.069	19944
901.189	19674
901.308	19449
901.427	19392
901.546	19449
901.665	19430
901.784	19559
901.904	19270
902.023	19266
902.141	19076
902.26	18954
902.379	19194
902.498	18867
902.617	18909
902.735	19050
902.854	18970
902.973	18810
903.091	18623
903.21	18566
903.328	18631
903.446	18475
903.565	18376
903.683	18452
903.801	18285
903.919	18372
904.038	18315
904.156	18232
904.274	18315
904.392	18129
904.51	18209
904.627	18129
904.745	18254
904.863	18159
904.981	17942
905.098	17950
905.216	17954
905.334	17893
905.451	17851
905.569	17836
905.686	17950
905.803	17851
905.921	17627
906.038	17805
906.155	17745
906.272	17600
906.389	17585
906.506	17417
906.623	17356
906.74	17391
906.857	17341
906.974	17345
907.091	17459
907.208	17532
907.324	17406
907.441	17334
907.557	17185
907.674	17060
907.79	17079
907.907	17143
908.023	17223
908.139	17140
908.256	17105
908.372	17052
908.488	17064
908.604	16908
908.72	16862
908.836	16824
908.952	16790
909.068	16885
909.184	16972
909.3	16896
909.415	16869
909.531	16809
909.647	16668
909.762	16558
909.878	16573
909.993	16531
910.108	16462
910.224	16489
910.339	16356
910.454	16459
910.57	16371
910.685	16287
910.8	16592
910.915	16523
911.03	16390
911.145	16287
911.259	16131
911.374	16128
911.489	16131
911.604	15861
911.718	15964
911.833	15873
911.947	15816
912.062	15743
912.176	15892
912.291	15922
912.405	15831
912.519	15899
912.633	16074
912.748	15899
912.862	15835
912.976	15690
913.09	15584
913.204	15701
913.318	15766
913.431	15762
913.545	15800
913.659	15781
913.772	15717
913.886	15458
914	15542
914.113	15614
914.226	15679
914.34	15599
914.453	15332
914.566	15595
914.68	15431
914.793	15359
914.906	15173
915.019	15161
915.132	15100
915.245	15184
915.358	15199
915.47	15051
915.583	15119
915.696	15165
915.809	15157
915.921	15157
916.034	15119
916.146	15013
916.259	14956
916.371	15081
916.483	15112
916.595	14906
916.708	14853
916.82	14975
916.932	14975
917.044	14815
917.156	14887
917.268	14716
917.38	14785
917.491	14693
917.603	14815
917.715	14948
917.826	14788
917.938	14693
918.049	14606
918.161	14758
918.272	14823
918.384	14834
918.495	14773
918.606	14552
918.717	14461
918.828	14571
918.939	14488
919.05	14438
919.161	14476
919.272	14358
919.383	14431
919.494	14526
919.604	14743
919.715	14537
919.826	14473
919.936	14450
920.047	14533
920.157	14457
920.267	14735
920.378	14461
920.488	14450
920.598	14629
920.708	14826
920.818	14625
920.928	14530
921.038	14750
921.148	14804
921.258	14408
921.368	14355
921.477	14206
921.587	14130
921.697	14100
921.806	14237
921.916	14088
922.025	13887
922.134	13955
922.244	13807
922.353	13970
922.462	13750
922.571	13761
922.68	13502
922.789	13537
922.898	13537
923.007	13415
923.116	13521
923.224	13537
923.333	13510
923.442	13373
923.55	13244
923.659	13403
923.767	13373
923.876	13358
923.984	13377
924.092	13285
924.201	13343
924.309	13228
924.417	13255
924.525	13244
924.633	13190
924.741	13963
924.849	13000
924.956	13175
925.064	12932
925.172	12943
925.279	12958
925.387	12954
925.494	12928
925.602	13080
925.709	12939
925.816	12764
925.924	12867
926.031	12943
926.138	12932
926.245	12985
926.352	12741
926.459	12913
926.566	13008
926.673	12837
926.779	12726
926.886	12631
926.993	12574
927.099	12506
927.206	12490
927.312	12437
927.419	12494
927.525	12494
927.631	12509
927.737	12407
927.843	12350
927.95	12266
928.056	12262
928.162	12327
928.267	12319
928.373	13008
928.479	12395
928.585	12114
928.69	12277
928.796	12292
928.901	12213
929.007	12049
929.112	12125
929.218	12300
929.323	12076
929.428	12038
929.533	12197
929.638	12045
929.743	12007
929.848	12011
929.953	12068
930.058	11836
930.163	11771
930.267	11737
930.372	11802
930.477	11676
930.581	11954
930.685	11756
930.79	11729
930.894	11699
930.998	11649
931.103	11684
931.207	11379
931.311	11296
931.415	11216
931.519	11079
931.623	10942
