Data from test_V78500241_767.txt Node
Date: Fri Mar 25 15:15:11 CST 2022
User: usil
Spectrometer: V785-0024
Trigger mode: 0
Integration Time (sec): 4.000000E-1
Scans to average: 1
Nonlinearity correction enabled: false
Boxcar width: 0
Storing dark spectrum: false
XAxis mode: Wavelengths
Number of Pixels in Spectrum: 1024
>>>>>Begin Spectral Data<<<<<
801.071	28185
801.214	28131
801.356	27850
801.499	27766
801.641	27656
801.783	27751
801.926	27705
802.068	27637
802.211	27614
802.353	27652
802.496	27405
802.638	27325
802.78	27382
802.923	27450
803.065	27199
803.208	27317
803.35	27264
803.492	27359
803.635	27625
803.777	27450
803.919	27618
804.061	27831
804.204	27511
804.346	27496
804.488	27389
804.63	27595
804.773	27435
804.915	27534
805.057	27576
805.199	27549
805.341	27660
805.483	27682
805.626	27625
805.768	27519
805.91	27667
806.052	27587
806.194	27603
806.336	27914
806.478	27603
806.62	27671
806.762	27857
806.904	27953
807.046	28188
807.188	28177
807.33	28036
807.472	28074
807.614	27941
807.756	28055
807.898	27960
808.04	27884
808.182	27934
808.324	27884
808.465	27918
808.607	28352
808.749	28325
808.891	28481
809.033	28607
809.174	28398
809.316	28329
809.458	28436
809.6	28417
809.741	28577
809.883	28580
810.025	28672
810.166	28717
810.308	28561
810.45	28615
810.591	28573
810.733	28580
810.875	28261
811.016	28139
811.158	28242
811.299	28398
811.441	28630
811.582	28554
811.724	28337
811.865	28329
812.007	28253
812.148	28280
812.29	28455
812.431	28554
812.573	28706
812.714	28908
812.855	28778
812.997	28999
813.138	29071
813.279	28896
813.421	28927
813.562	28908
813.703	28687
813.845	28584
813.986	28325
814.127	28226
814.268	28006
814.41	28128
814.551	27956
814.692	28139
814.833	28048
814.974	28006
815.115	28048
815.256	27949
815.397	27869
815.539	27930
815.68	27876
815.821	27911
815.962	27835
816.103	27869
816.244	27656
816.385	27800
816.526	27625
816.666	27526
816.807	27348
816.948	27443
817.089	27473
817.23	27374
817.371	27363
817.512	27443
817.653	27393
817.793	27279
817.934	27427
818.075	27302
818.216	27389
818.356	27367
818.497	27154
818.638	27116
818.778	27169
818.919	27165
819.06	27165
819.2	27199
819.341	27340
819.481	27507
819.622	27344
819.762	27648
819.903	27580
820.043	27606
820.184	27359
820.324	27473
820.465	27561
820.605	27564
820.746	27469
820.886	27241
821.026	27492
821.167	27561
821.307	27553
821.447	27351
821.588	27249
821.728	27020
821.868	26990
822.008	26925
822.149	26883
822.289	26781
822.429	26499
822.569	26526
822.709	26442
822.849	26278
822.99	26347
823.13	26286
823.27	26381
823.41	26377
823.55	25989
823.69	26180
823.83	26263
823.97	26225
824.11	26046
824.25	25997
824.389	25959
824.529	26027
824.669	25970
824.809	26024
824.949	26043
825.089	26043
825.228	25997
825.368	25845
825.508	25909
825.648	25826
825.787	25902
825.927	25966
826.067	25890
826.206	25951
826.346	25936
826.485	25936
826.625	25890
826.765	25993
826.904	25826
827.044	25483
827.183	25628
827.323	25639
827.462	25518
827.601	25582
827.741	25563
827.88	25704
828.02	25575
828.159	25594
828.298	25616
828.437	25605
828.577	25396
828.716	25635
828.855	25460
828.994	25244
829.134	25225
829.273	25350
829.412	25270
829.551	25217
829.69	25304
829.829	25285
829.968	25422
830.107	25324
830.246	25228
830.385	25266
830.524	25103
830.663	25084
830.802	25061
830.941	24787
831.08	24928
831.219	24947
831.357	25012
831.496	25057
831.635	24726
831.774	24859
831.913	24833
832.051	24764
832.19	24585
832.329	24730
832.467	24505
832.606	24494
832.744	24505
832.883	24464
833.022	24532
833.16	24517
833.299	24604
833.437	24559
833.576	24578
833.714	24631
833.852	24669
833.991	24696
834.129	24665
834.267	24696
834.406	24490
834.544	24669
834.682	24635
834.821	24593
834.959	24783
835.097	24414
835.235	24601
835.373	24642
835.511	24623
835.65	24475
835.788	24369
835.926	24201
836.064	24194
836.202	24254
836.34	24414
836.478	24486
836.615	24570
836.753	24334
836.891	24620
837.029	24452
837.167	24361
837.305	24346
837.443	24353
837.58	24220
837.718	24308
837.856	24239
837.993	24247
838.131	24110
838.269	24083
838.406	24136
838.544	24144
838.681	23920
838.819	23958
838.956	23859
839.094	23783
839.231	23783
839.369	23893
839.506	24133
839.643	23923
839.781	23684
839.918	23604
840.055	23710
840.193	23646
840.33	23756
840.467	23638
840.604	23748
840.742	23878
840.879	23581
841.016	23410
841.153	23535
841.29	23805
841.427	23611
841.564	23699
841.701	23676
841.838	23615
841.975	23600
842.112	23547
842.249	23478
842.385	23368
842.522	23524
842.659	23436
842.796	23322
842.933	23421
843.069	23337
843.206	23303
843.343	23455
843.479	23398
843.616	23482
843.752	23132
843.889	23109
844.025	23223
844.162	23037
844.298	23356
844.435	23174
844.571	23132
844.708	23147
844.844	23299
844.98	23299
845.117	23318
845.253	23159
845.389	22995
845.525	23094
845.661	23033
845.798	22877
845.934	22961
846.07	22957
846.206	23018
846.342	22889
846.478	22889
846.614	22752
846.75	22565
846.886	22535
847.022	22721
847.158	22733
847.294	22641
847.429	22599
847.565	22561
847.701	22957
847.837	22314
847.972	22360
848.108	22409
848.244	22462
848.379	22257
848.515	22120
848.65	22135
848.786	22147
848.921	22268
849.057	22337
849.192	22291
849.328	22147
849.463	22253
849.598	22219
849.734	22185
849.869	22029
850.004	21918
850.14	22010
850.275	21842
850.41	21854
850.545	22010
850.68	21937
850.815	22017
850.95	21956
851.085	22211
851.22	22177
851.355	22010
851.49	21941
851.625	21907
851.76	21884
851.895	21850
852.03	21876
852.165	21941
852.299	22044
852.434	22036
852.569	22025
852.703	21873
852.838	21956
852.973	22006
853.107	22173
853.242	21949
853.376	21778
853.511	21686
853.645	21766
853.78	21968
853.914	21869
854.048	21789
854.183	21892
854.317	21884
854.451	21994
854.585	21793
854.72	21694
854.854	21918
854.988	21743
855.122	21857
855.256	21713
855.39	21618
855.524	21831
855.658	21835
855.792	21865
855.926	21808
856.06	21663
856.194	21915
856.327	21873
856.461	21686
856.595	21724
856.729	21701
856.862	21816
856.996	21926
857.13	21846
857.263	21911
857.397	21895
857.53	21812
857.664	21823
857.797	21956
857.931	21907
858.064	21869
858.197	21880
858.331	21709
858.464	21762
858.597	21816
858.731	21827
858.864	21682
858.997	21831
859.13	21911
859.263	21835
859.396	21899
859.529	21732
859.662	21633
859.795	21717
859.928	21804
860.061	21888
860.194	22131
860.327	21873
860.46	21751
860.592	21816
860.725	22044
860.858	21926
860.99	21732
861.123	21694
861.256	21720
861.388	21751
861.521	22451
861.653	21690
861.786	21705
861.918	21690
862.05	21641
862.183	21797
862.315	21755
862.447	21823
862.58	21572
862.712	21485
862.844	21504
862.976	21595
863.108	21629
863.24	21998
863.372	21428
863.504	21367
863.636	21412
863.768	21515
863.9	21538
864.032	21367
864.164	21435
864.296	21591
864.428	21583
864.559	21435
864.691	21534
864.823	21618
864.954	21454
865.086	21344
865.217	21416
865.349	21180
865.48	21393
865.612	21603
865.743	21492
865.875	21454
866.006	21363
866.137	21443
866.269	21268
866.4	21462
866.531	21336
866.662	21302
866.793	21287
866.924	21294
867.055	21458
867.186	21287
867.317	21260
867.448	21207
867.579	21241
867.71	21279
867.841	21218
867.972	21298
868.103	21268
868.233	21397
868.364	21310
868.495	21405
868.625	21477
868.756	21743
868.886	21511
869.017	21450
869.147	21633
869.278	21774
869.408	21580
869.539	21500
869.669	21641
869.799	21534
869.929	21682
870.06	21667
870.19	21842
870.32	21831
870.45	21842
870.58	21915
870.71	22143
870.84	21983
870.97	21812
871.1	21941
871.23	22074
871.36	22105
871.489	22036
871.619	22128
871.749	22162
871.879	22059
872.008	22181
872.138	22109
872.267	22105
872.397	21941
872.526	21960
872.656	21922
872.785	21968
872.915	22177
873.044	22177
873.173	22215
873.303	22196
873.432	22166
873.561	22314
873.69	22226
873.819	22188
873.948	22226
874.077	22230
874.206	22078
874.335	22226
874.464	22211
874.593	22344
874.722	22299
874.851	22402
874.979	22356
875.108	22462
875.237	22371
875.365	22253
875.494	22325
875.623	22398
875.751	22402
875.88	22493
876.008	22527
876.136	22596
876.265	22774
876.393	22820
876.521	22831
876.65	22869
876.778	22778
876.906	22679
877.034	22615
877.162	22637
877.29	22721
877.418	22812
877.546	22679
877.674	22664
877.802	22793
877.93	22759
878.058	22725
878.185	22432
878.313	22660
878.441	22672
878.568	22569
878.696	22679
878.824	22740
878.951	22767
879.079	22828
879.206	22972
879.333	22793
879.461	22710
879.588	22881
879.715	22949
879.842	22900
879.97	22801
880.097	22615
880.224	22481
880.351	22561
880.478	22603
880.605	22485
880.732	22542
880.859	22721
880.986	22535
881.112	22565
881.239	22440
881.366	22257
881.493	22124
881.619	22044
881.746	22204
881.872	22154
881.999	22063
882.125	21983
882.252	22196
882.378	22063
882.505	22150
882.631	22044
882.757	21728
882.883	21797
883.01	21736
883.136	21793
883.262	21701
883.388	21587
883.514	21675
883.64	21850
883.766	21641
883.892	21515
884.018	21701
884.143	21827
884.269	21690
884.395	21462
884.52	21363
884.646	21439
884.772	21268
884.897	21317
885.023	21272
885.148	21450
885.274	21606
885.399	21587
885.524	21367
885.65	21401
885.775	21412
885.9	21393
886.025	21492
886.15	21507
886.275	21439
886.4	21321
886.525	21329
886.65	21416
886.775	21237
886.9	21500
887.025	21591
887.149	21386
887.274	21249
887.399	21230
887.523	21321
887.648	21131
887.773	21116
887.897	21192
888.021	21211
888.146	21195
888.27	21252
888.395	21317
888.519	21348
888.643	21344
888.767	21325
888.891	21104
889.015	21131
889.139	21154
889.263	21058
889.387	21081
889.511	21241
889.635	21055
889.759	20887
889.883	20929
890.006	20979
890.13	21058
890.254	20998
890.377	21005
890.501	20781
890.624	20842
890.748	20826
890.871	20788
890.995	20594
891.118	20556
891.241	20670
891.364	20674
891.488	20720
891.611	20689
891.734	20773
891.857	20663
891.98	20663
892.103	20587
892.226	20621
892.349	20583
892.471	20450
892.594	20556
892.717	20613
892.839	20492
892.962	20511
893.085	20564
893.207	20484
893.33	20301
893.452	20415
893.575	20549
893.697	20454
893.819	20537
893.941	20689
894.064	20670
894.186	20339
894.308	20351
894.43	20530
894.552	20659
894.674	20522
894.796	20412
894.918	20412
895.04	20381
895.161	20545
895.283	20446
895.405	20427
895.526	20454
895.648	20518
895.769	20473
895.891	20503
896.012	20514
896.134	20602
896.255	20480
896.376	20442
896.498	20389
896.619	20583
896.74	20552
896.861	20526
896.982	20788
897.103	20902
897.224	20788
897.345	20708
897.466	20659
897.587	20781
897.708	20743
897.828	20773
897.949	20701
898.07	20609
898.19	20701
898.311	20686
898.431	20549
898.552	20758
898.672	20655
898.792	20708
898.913	20705
899.033	20571
899.153	20533
899.273	20362
899.393	20358
899.513	20412
899.633	20377
899.753	20495
899.873	20507
899.993	20343
900.113	20454
900.232	20400
900.352	20400
900.472	20343
900.591	20199
900.711	20286
900.83	20168
900.95	20362
901.069	20358
901.189	20073
901.308	19890
901.427	19864
901.546	19814
901.665	19887
901.784	19788
901.904	19655
902.023	19529
902.141	19403
902.26	19365
902.379	19407
902.498	19285
902.617	19350
902.735	19270
902.854	19362
902.973	19274
903.091	19023
903.21	18966
903.328	18867
903.446	18821
903.565	18810
903.683	18768
903.801	18764
903.919	18692
904.038	18776
904.156	18654
904.274	18578
904.392	18536
904.51	18525
904.627	18525
904.745	18532
904.863	18582
904.981	18228
905.098	18247
905.216	18205
905.334	18174
905.451	18220
905.569	18148
905.686	18110
905.803	18209
905.921	18091
906.038	18110
906.155	18007
906.272	17878
906.389	17912
906.506	17817
906.623	17634
906.74	17748
906.857	17604
906.974	17707
907.091	17748
907.208	17802
907.324	17722
907.441	17516
907.557	17398
907.674	17337
907.79	17353
907.907	17395
908.023	17459
908.139	17368
908.256	17395
908.372	17410
908.488	17288
908.604	17166
908.72	17109
908.836	17124
908.952	17174
909.068	17170
909.184	17246
909.3	17246
909.415	17094
909.531	17105
909.647	16976
909.762	16889
909.878	16877
909.993	16915
910.108	16854
910.224	16889
910.339	16831
910.454	16721
910.57	16649
910.685	16611
910.8	16885
910.915	16778
911.03	16687
911.145	16531
911.259	16443
911.374	16421
911.489	16268
911.604	16333
911.718	16204
911.833	16185
911.947	16109
912.062	16071
912.176	16131
912.291	16230
912.405	16211
912.519	16348
912.633	16337
912.748	16211
912.862	16147
912.976	15998
913.09	15930
913.204	15991
913.318	16097
913.431	16093
913.545	16101
913.659	16040
913.772	15930
913.886	15793
914	15899
914.113	15812
914.226	15797
914.34	15922
914.453	15694
914.566	15679
914.68	15610
914.793	15637
914.906	15538
915.019	15355
915.132	15435
915.245	15405
915.358	15447
915.47	15443
915.583	15397
915.696	15462
915.809	15534
915.921	15534
916.034	15374
916.146	15408
916.259	15283
916.371	15340
916.483	15306
916.595	15218
916.708	15268
916.82	15283
916.932	15260
917.044	15211
917.156	15165
917.268	15077
917.38	15127
917.491	15017
917.603	15081
917.715	15047
917.826	15256
917.938	15039
918.049	14857
918.161	14921
918.272	15184
918.384	15116
918.495	14994
918.606	14716
918.717	14804
918.828	14804
918.939	14845
919.05	14640
919.161	14750
919.272	14602
919.383	14667
919.494	14754
919.604	14971
919.715	14838
919.826	14682
919.936	14731
920.047	14815
920.157	14727
920.267	14921
920.378	14785
920.488	14686
920.598	14887
920.708	15085
920.818	14815
920.928	14838
921.038	14967
921.148	14982
921.258	14705
921.368	14590
921.477	14594
921.587	14454
921.697	14343
921.806	14526
921.916	14317
922.025	14191
922.134	14206
922.244	14065
922.353	14039
922.462	14005
922.571	13936
922.68	13814
922.789	13723
922.898	13742
923.007	13704
923.116	13791
923.224	13761
923.333	13746
923.442	13544
923.55	13529
923.659	13571
923.767	13696
923.876	13552
923.984	13655
924.092	13559
924.201	13510
924.309	13457
924.417	13521
924.525	13358
924.633	13407
924.741	14221
924.849	13202
924.956	13441
925.064	13282
925.172	13122
925.279	13122
925.387	13198
925.494	13095
925.602	13301
925.709	13187
925.816	13057
925.924	13232
926.031	13149
926.138	13050
926.245	13187
926.352	13072
926.459	13160
926.566	13156
926.673	13065
926.779	12924
926.886	12837
926.993	12760
927.099	12779
927.206	12802
927.312	12757
927.419	12760
927.525	12703
927.631	12711
927.737	12642
927.843	12627
927.95	12452
928.056	12441
928.162	12612
928.267	12506
928.373	13118
928.479	12623
928.585	12460
928.69	12570
928.796	12547
928.901	12319
929.007	12220
929.112	12338
929.218	12300
929.323	12346
929.428	12281
929.533	12486
929.638	12277
929.743	12201
929.848	12228
929.953	12171
930.058	12148
930.163	12022
930.267	11992
930.372	12087
930.477	11912
930.581	12167
930.685	12038
930.79	11840
930.894	11802
930.998	11817
931.103	12007
931.207	11562
931.311	11535
931.415	11452
931.519	11231
931.623	11242
