Data from test_V78500241_2941.txt Node
Date: Fri Mar 25 15:30:20 CST 2022
User: usil
Spectrometer: V785-0024
Trigger mode: 0
Integration Time (sec): 4.000000E-1
Scans to average: 1
Nonlinearity correction enabled: false
Boxcar width: 0
Storing dark spectrum: false
XAxis mode: Wavelengths
Number of Pixels in Spectrum: 1024
>>>>>Begin Spectral Data<<<<<
801.071	27237
801.214	27184
801.356	27028
801.499	26849
801.641	26777
801.783	26880
801.926	26807
802.068	26807
802.211	26716
802.353	26663
802.496	26609
802.638	26465
802.78	26526
802.923	26286
803.065	26347
803.208	26362
803.35	26362
803.492	26674
803.635	26636
803.777	26602
803.919	26655
804.061	26880
804.204	26689
804.346	26549
804.488	26423
804.63	26644
804.773	26450
804.915	26625
805.057	26743
805.199	26522
805.341	26743
805.483	26575
805.626	26750
805.768	26621
805.91	26731
806.052	26678
806.194	26651
806.336	26746
806.478	26823
806.62	26731
806.762	26811
806.904	26940
807.046	27184
807.188	27051
807.33	27108
807.472	27165
807.614	27001
807.756	27192
807.898	26929
808.04	26853
808.182	26925
808.324	26883
808.465	27066
808.607	27279
808.749	27279
808.891	27306
809.033	27291
809.174	27439
809.316	27287
809.458	27306
809.6	27165
809.741	27351
809.883	27401
810.025	27652
810.166	27450
810.308	27542
810.45	27363
810.591	27340
810.733	27401
810.875	27233
811.016	27260
811.158	27104
811.299	27481
811.441	27557
811.582	27355
811.724	27348
811.865	27176
812.007	27230
812.148	27325
812.29	27355
812.431	27500
812.573	27523
812.714	27755
812.855	27827
812.997	27717
813.138	27953
813.279	27812
813.421	27789
813.562	27675
813.703	27625
813.845	27526
813.986	27302
814.127	26963
814.268	26838
814.41	26986
814.551	26963
814.692	26952
814.833	26830
814.974	26864
815.115	26971
815.256	26708
815.397	26868
815.539	26868
815.68	26674
815.821	26655
815.962	26804
816.103	26552
816.244	26488
816.385	26530
816.526	26404
816.666	26320
816.807	26301
816.948	26278
817.089	26259
817.23	26233
817.371	26210
817.512	26229
817.653	26122
817.793	26153
817.934	26347
818.075	26210
818.216	26084
818.356	26024
818.497	26027
818.638	26008
818.778	26001
818.919	25928
819.06	26005
819.2	26050
819.341	26237
819.481	26050
819.622	26233
819.762	26530
819.903	26473
820.043	26404
820.184	26252
820.324	26324
820.465	26305
820.605	26317
820.746	26256
820.886	26187
821.026	26199
821.167	26278
821.307	26244
821.447	26199
821.588	26062
821.728	25841
821.868	25864
822.008	25738
822.149	25666
822.289	25639
822.429	25308
822.569	25392
822.709	25369
822.849	25251
822.99	25297
823.13	25057
823.27	25187
823.41	25046
823.55	24958
823.69	24985
823.83	25088
823.97	24901
824.11	24783
824.25	24734
824.389	24852
824.529	24795
824.669	24833
824.809	24981
824.949	24787
825.089	24692
825.228	24779
825.368	24521
825.508	24536
825.648	24646
825.787	24707
825.927	24692
826.067	24631
826.206	24601
826.346	24684
826.485	24711
826.625	24673
826.765	24684
826.904	24612
827.044	24505
827.183	24388
827.323	24304
827.462	24365
827.601	24346
827.741	24273
827.88	24403
828.02	24186
828.159	24300
828.298	24399
828.437	24498
828.577	24315
828.716	24433
828.855	24277
828.994	24034
829.134	24060
829.273	24030
829.412	23923
829.551	23961
829.69	23958
829.829	24022
829.968	24163
830.107	24125
830.246	24091
830.385	24106
830.524	23920
830.663	23817
830.802	23729
830.941	23687
831.08	23714
831.219	23786
831.357	23680
831.496	23805
831.635	23615
831.774	23600
831.913	23512
832.051	23402
832.19	23372
832.329	23368
832.467	23284
832.606	23307
832.744	23231
832.883	23337
833.022	23299
833.16	23345
833.299	23349
833.437	23292
833.576	23440
833.714	23433
833.852	23440
833.991	23345
834.129	23455
834.267	23444
834.406	23391
834.544	23326
834.682	23356
834.821	23334
834.959	23558
835.097	23372
835.235	23364
835.373	23280
835.511	23322
835.65	23330
835.788	23296
835.926	23025
836.064	23048
836.202	23147
836.34	23159
836.478	23189
836.615	23170
836.753	23166
836.891	23326
837.029	23242
837.167	23235
837.305	23155
837.443	22965
837.58	22957
837.718	23048
837.856	23044
837.993	22972
838.131	23083
838.269	22965
838.406	23041
838.544	22816
838.681	22767
838.819	22713
838.956	22497
839.094	22546
839.231	22409
839.369	22679
839.506	22824
839.643	22774
839.781	22569
839.918	22519
840.055	22573
840.193	22455
840.33	22531
840.467	22554
840.604	22474
840.742	22698
840.879	22306
841.016	22470
841.153	22204
841.29	22462
841.427	22398
841.564	22428
841.701	22466
841.838	22325
841.975	22356
842.112	22398
842.249	22257
842.385	22291
842.522	22462
842.659	22265
842.796	22204
842.933	22348
843.069	22215
843.206	22158
843.343	22337
843.479	22291
843.616	22238
843.752	21956
843.889	22051
844.025	22063
844.162	21907
844.298	22040
844.435	22055
844.571	22048
844.708	22010
844.844	22055
844.98	22074
845.117	21987
845.253	21789
845.389	21827
845.525	21888
845.661	21808
845.798	21785
845.934	21770
846.07	21679
846.206	21663
846.342	21842
846.478	21641
846.614	21587
846.75	21469
846.886	21561
847.022	21564
847.158	21462
847.294	21488
847.429	21542
847.565	21359
847.701	21713
847.837	21237
847.972	21123
848.108	21249
848.244	21302
848.379	21036
848.515	21062
848.65	20994
848.786	21009
848.921	21116
849.057	21188
849.192	21062
849.328	21081
849.463	20986
849.598	20979
849.734	20990
849.869	20845
850.004	20838
850.14	20800
850.275	20899
850.41	20773
850.545	20754
850.68	20750
850.815	20853
850.95	20781
851.085	21062
851.22	20864
851.355	20868
851.49	20701
851.625	20769
851.76	20746
851.895	20743
852.03	20682
852.165	20826
852.299	20845
852.434	20853
852.569	20792
852.703	20785
852.838	20899
852.973	20864
853.107	20937
853.242	20857
853.376	20807
853.511	20617
853.645	20727
853.78	20800
853.914	20594
854.048	20587
854.183	20682
854.317	20632
854.451	20796
854.585	20514
854.72	20541
854.854	20731
854.988	20556
855.122	20556
855.256	20522
855.39	20587
855.524	20564
855.658	20670
855.792	20598
855.926	20701
856.06	20826
856.194	20811
856.327	20587
856.461	20564
856.595	20613
856.729	20556
856.862	20720
856.996	20682
857.13	20682
857.263	20804
857.397	20773
857.53	20560
857.664	20804
857.797	20640
857.931	20765
858.064	20716
858.197	20758
858.331	20727
858.464	20541
858.597	20568
858.731	20606
858.864	20560
858.997	20758
859.13	20625
859.263	20609
859.396	20598
859.529	20617
859.662	20579
859.795	20590
859.928	20785
860.061	20758
860.194	20872
860.327	20705
860.46	20613
860.592	20800
860.725	20834
860.858	20655
860.99	20693
861.123	20571
861.256	20518
861.388	20636
861.521	21275
861.653	20541
861.786	20454
861.918	20476
862.05	20541
862.183	20545
862.315	20640
862.447	20495
862.58	20476
862.712	20404
862.844	20267
862.976	20404
863.108	20457
863.24	20731
863.372	20309
863.504	20343
863.636	20419
863.768	20412
863.9	20278
864.032	20366
864.164	20537
864.296	20313
864.428	20347
864.559	20396
864.691	20301
864.823	20320
864.954	20408
865.086	20351
865.217	20256
865.349	20271
865.48	20278
865.612	20278
865.743	20469
865.875	20206
866.006	20168
866.137	20240
866.269	20199
866.4	20195
866.531	20183
866.662	20092
866.793	20252
866.924	20202
867.055	20275
867.186	20347
867.317	20248
867.448	20103
867.579	20199
867.71	20221
867.841	20043
867.972	20267
868.103	20145
868.233	20214
868.364	20206
868.495	20233
868.625	20362
868.756	20644
868.886	20492
869.017	20465
869.147	20476
869.278	20522
869.408	20511
869.539	20556
869.669	20503
869.799	20552
869.929	20556
870.06	20613
870.19	20769
870.32	20792
870.45	20826
870.58	20853
870.71	20906
870.84	20899
870.97	20815
871.1	20667
871.23	21024
871.36	21077
871.489	21047
871.619	20986
871.749	21009
871.879	21096
872.008	21127
872.138	21017
872.267	21047
872.397	20883
872.526	20792
872.656	20944
872.785	20910
872.915	21119
873.044	21005
873.173	21039
873.303	21154
873.432	21089
873.561	21157
873.69	21081
873.819	21081
873.948	21157
874.077	21146
874.206	21028
874.335	21036
874.464	21203
874.593	21302
874.722	21367
874.851	21260
874.979	21294
875.108	21336
875.237	21279
875.365	21279
875.494	21256
875.623	21382
875.751	21275
875.88	21275
876.008	21458
876.136	21447
876.265	21732
876.393	21857
876.521	21850
876.65	21778
876.778	21720
876.906	21667
877.034	21622
877.162	21622
877.29	21542
877.418	21766
877.546	21724
877.674	21705
877.802	21542
877.93	21641
878.058	21614
878.185	21477
878.313	21553
878.441	21572
878.568	21568
878.696	21485
878.824	21717
878.951	21656
879.079	21884
879.206	21968
879.333	21888
879.461	21717
879.588	21724
879.715	21709
879.842	21998
879.97	21759
880.097	21458
880.224	21492
880.351	21587
880.478	21454
880.605	21561
880.732	21469
880.859	21717
880.986	21431
881.112	21515
881.239	21378
881.366	21195
881.493	21256
881.619	21150
881.746	21135
881.872	21146
881.999	21039
882.125	20872
882.252	20990
882.378	20967
882.505	21024
882.631	20948
882.757	20804
882.883	20804
883.01	20880
883.136	20659
883.262	20594
883.388	20606
883.514	20815
883.64	20754
883.766	20701
883.892	20583
884.018	20621
884.143	20587
884.269	20720
884.395	20473
884.52	20454
884.646	20419
884.772	20286
884.897	20301
885.023	20484
885.148	20514
885.274	20625
885.399	20583
885.524	20461
885.65	20488
885.775	20400
885.9	20370
886.025	20590
886.15	20530
886.275	20404
886.4	20290
886.525	20408
886.65	20336
886.775	20465
886.9	20480
887.025	20594
887.149	20343
887.274	20172
887.399	20229
887.523	20130
887.648	20020
887.773	20168
887.897	20176
888.021	20206
888.146	20054
888.27	20336
888.395	20301
888.519	20256
888.643	20256
888.767	20324
888.891	20035
889.015	20122
889.139	20058
889.263	19967
889.387	20180
889.511	20244
889.635	20073
889.759	19890
889.883	20005
890.006	19959
890.13	20119
890.254	19860
890.377	19955
890.501	19811
890.624	19670
890.748	19811
890.871	19761
890.995	19552
891.118	19616
891.241	19655
891.364	19628
891.488	19662
891.611	19597
891.734	19495
891.857	19681
891.98	19537
892.103	19624
892.226	19635
892.349	19548
892.471	19381
892.594	19407
892.717	19525
892.839	19464
892.962	19441
893.085	19597
893.207	19415
893.33	19316
893.452	19388
893.575	19552
893.697	19457
893.819	19639
893.941	19620
894.064	19609
894.186	19441
894.308	19388
894.43	19495
894.552	19769
894.674	19518
894.796	19480
894.918	19499
895.04	19438
895.161	19582
895.283	19552
895.405	19438
895.526	19483
895.648	19575
895.769	19575
895.891	19468
896.012	19521
896.134	19563
896.255	19544
896.376	19487
896.498	19529
896.619	19552
896.74	19449
896.861	19605
896.982	19811
897.103	19936
897.224	19769
897.345	19742
897.466	19594
897.587	19715
897.708	19799
897.828	19818
897.949	19677
898.07	19632
898.19	19674
898.311	19864
898.431	19647
898.552	19712
898.672	19841
898.792	19822
898.913	19750
899.033	19704
899.153	19578
899.273	19476
899.393	19502
899.513	19567
899.633	19499
899.753	19548
899.873	19400
899.993	19567
900.113	19491
900.232	19571
900.352	19373
900.472	19362
900.591	19362
900.711	19263
900.83	19304
900.95	19434
901.069	19392
901.189	19183
901.308	18920
901.427	18894
901.546	18958
901.665	18909
901.784	18833
901.904	18661
902.023	18669
902.141	18517
902.26	18467
902.379	18475
902.498	18311
902.617	18433
902.735	18391
902.854	18395
902.973	18266
903.091	18254
903.21	18098
903.328	18087
903.446	17977
903.565	17954
903.683	17920
903.801	17798
903.919	17798
904.038	17748
904.156	17752
904.274	17775
904.392	17619
904.51	17642
904.627	17786
904.745	17729
904.863	17691
904.981	17436
905.098	17330
905.216	17235
905.334	17345
905.451	17417
905.569	17368
905.686	17345
905.803	17239
905.921	17067
906.038	17258
906.155	17208
906.272	16972
906.389	17033
906.506	16938
906.623	16854
906.74	16919
906.857	16816
906.974	16767
907.091	16942
907.208	16938
907.324	16896
907.441	16774
907.557	16649
907.674	16653
907.79	16561
907.907	16554
908.023	16596
908.139	16550
908.256	16538
908.372	16531
908.488	16474
908.604	16306
908.72	16459
908.836	16367
908.952	16204
909.068	16310
909.184	16360
909.3	16234
909.415	16402
909.531	16192
909.647	16032
909.762	15987
909.878	15941
909.993	16010
910.108	15972
910.224	15926
910.339	16048
910.454	15816
910.57	15903
910.685	15709
910.8	15960
910.915	15972
911.03	15812
911.145	15641
911.259	15648
911.374	15701
911.489	15519
911.604	15557
911.718	15397
911.833	15485
911.947	15207
912.062	15363
912.176	15431
912.291	15500
912.405	15435
912.519	15648
912.633	15511
912.748	15389
912.862	15348
912.976	15161
913.09	15070
913.204	15192
913.318	15230
913.431	15249
913.545	15359
913.659	15222
913.772	15184
913.886	15074
914	15039
914.113	15173
914.226	15116
914.34	15024
914.453	14914
914.566	15017
914.68	14796
914.793	14826
914.906	14636
915.019	14625
915.132	14613
915.245	14575
915.358	14648
915.47	14598
915.583	14590
915.696	14750
915.809	14667
915.921	14785
916.034	14499
916.146	14636
916.259	14514
916.371	14617
916.483	14579
916.595	14503
916.708	14438
916.82	14549
916.932	14476
917.044	14442
917.156	14381
917.268	14328
917.38	14347
917.491	14313
917.603	14267
917.715	14286
917.826	14469
917.938	14199
918.049	14206
918.161	14199
918.272	14351
918.384	14358
918.495	14119
918.606	14229
918.717	14016
918.828	14062
918.939	14126
919.05	14001
919.161	14130
919.272	13761
919.383	13951
919.494	14084
919.604	14309
919.715	13967
919.826	13978
919.936	14077
920.047	14119
920.157	14039
920.267	14195
920.378	14073
920.488	13970
920.598	14218
920.708	14381
920.818	14218
920.928	14256
921.038	14355
921.148	14278
921.258	14043
921.368	13879
921.477	13833
921.587	13826
921.697	13651
921.806	13708
921.916	13616
922.025	13506
922.134	13449
922.244	13434
922.353	13586
922.462	13266
922.571	13278
922.68	13133
922.789	13145
922.898	13080
923.007	13031
923.116	13160
923.224	13046
923.333	13004
923.442	13023
923.55	12859
923.659	12913
923.767	12981
923.876	12806
923.984	12951
924.092	12802
924.201	12856
924.309	12901
924.417	12859
924.525	12722
924.633	12806
924.741	13658
924.849	12646
924.956	12696
925.064	12620
925.172	12471
925.279	12547
925.387	12490
925.494	12551
925.602	12616
925.709	12578
925.816	12486
925.924	12502
926.031	12563
926.138	12555
926.245	12551
926.352	12429
926.459	12525
926.566	12528
926.673	12437
926.779	12254
926.886	12334
926.993	12091
927.099	12144
927.206	12045
927.312	12068
927.419	12072
927.525	12148
927.631	12125
927.737	12003
927.843	11836
927.95	11908
928.056	11931
928.162	11977
928.267	11931
928.373	12627
928.479	12007
928.585	11809
928.69	11882
928.796	11931
928.901	11863
929.007	11680
929.112	11813
929.218	11737
929.323	11672
929.428	11668
929.533	11786
929.638	11570
929.743	11665
929.848	11596
929.953	11600
930.058	11551
930.163	11387
930.267	11440
930.372	11600
930.477	11368
930.581	11528
930.685	11436
930.79	11296
930.894	11334
930.998	11189
931.103	11406
931.207	10995
931.311	10984
931.415	10942
931.519	10698
931.623	10649
