Data from test_V78500241_3183.txt Node
Date: Fri Mar 25 15:32:01 CST 2022
User: usil
Spectrometer: V785-0024
Trigger mode: 0
Integration Time (sec): 4.000000E-1
Scans to average: 1
Nonlinearity correction enabled: false
Boxcar width: 0
Storing dark spectrum: false
XAxis mode: Wavelengths
Number of Pixels in Spectrum: 1024
>>>>>Begin Spectral Data<<<<<
801.071	27218
801.214	27020
801.356	26853
801.499	26895
801.641	26842
801.783	26712
801.926	26724
802.068	26781
802.211	26629
802.353	26602
802.496	26492
802.638	26396
802.78	26336
802.923	26267
803.065	26176
803.208	26214
803.35	26324
803.492	26442
803.635	26465
803.777	26385
803.919	26488
804.061	26876
804.204	26381
804.346	26541
804.488	26377
804.63	26461
804.773	26389
804.915	26602
805.057	26511
805.199	26511
805.341	26545
805.483	26590
805.626	26632
805.768	26533
805.91	26712
806.052	26598
806.194	26686
806.336	26785
806.478	26739
806.62	26625
806.762	26613
806.904	26853
807.046	27013
807.188	27001
807.33	27138
807.472	26975
807.614	26887
807.756	27028
807.898	26842
808.04	26746
808.182	26693
808.324	26735
808.465	26880
808.607	27032
808.749	27237
808.891	27317
809.033	27405
809.174	27188
809.316	27310
809.458	27165
809.6	27135
809.741	27283
809.883	27351
810.025	27435
810.166	27393
810.308	27363
810.45	27469
810.591	27302
810.733	27230
810.875	27062
811.016	27058
811.158	27135
811.299	27264
811.441	27355
811.582	27359
811.724	27203
811.865	27066
812.007	27119
812.148	27039
812.29	27325
812.431	27291
812.573	27507
812.714	27587
812.855	27671
812.997	27914
813.138	27888
813.279	27842
813.421	27713
813.562	27595
813.703	27515
813.845	27450
813.986	27017
814.127	27135
814.268	26834
814.41	26952
814.551	26625
814.692	26906
814.833	26746
814.974	26792
815.115	26864
815.256	26678
815.397	26727
815.539	26613
815.68	26503
815.821	26461
815.962	26625
816.103	26644
816.244	26412
816.385	26419
816.526	26298
816.666	26256
816.807	26138
816.948	26126
817.089	26164
817.23	26084
817.371	26035
817.512	25982
817.653	26153
817.793	25978
817.934	26073
818.075	26126
818.216	26172
818.356	26031
818.497	25993
818.638	25742
818.778	25856
818.919	25852
819.06	25902
819.2	25932
819.341	26119
819.481	25913
819.622	26351
819.762	26313
819.903	26461
820.043	26320
820.184	26115
820.324	26130
820.465	26328
820.605	26225
820.746	26145
820.886	25989
821.026	26176
821.167	26096
821.307	26199
821.447	26161
821.588	26111
821.728	25750
821.868	25670
822.008	25521
822.149	25609
822.289	25457
822.429	25168
822.569	25285
822.709	25293
822.849	24970
822.99	25042
823.13	24951
823.27	24913
823.41	24837
823.55	24817
823.69	24920
823.83	24825
823.97	24844
824.11	24639
824.25	24658
824.389	24612
824.529	24719
824.669	24738
824.809	24741
824.949	24875
825.089	24749
825.228	24700
825.368	24380
825.508	24578
825.648	24544
825.787	24517
825.927	24540
826.067	24574
826.206	24555
826.346	24631
826.485	24616
826.625	24471
826.765	24604
826.904	24574
827.044	24315
827.183	24342
827.323	24190
827.462	24216
827.601	24292
827.741	24216
827.88	24266
828.02	24163
828.159	24136
828.298	24296
828.437	24334
828.577	24266
828.716	24357
828.855	24171
828.994	23923
829.134	23927
829.273	24125
829.412	23897
829.551	23931
829.69	23878
829.829	24022
829.968	24106
830.107	24003
830.246	24026
830.385	23863
830.524	23855
830.663	23699
830.802	23630
830.941	23672
831.08	23463
831.219	23703
831.357	23798
831.496	23783
831.635	23535
831.774	23592
831.913	23539
832.051	23531
832.19	23478
832.329	23269
832.467	23280
832.606	23303
832.744	23223
832.883	23356
833.022	23200
833.16	23292
833.299	23216
833.437	23307
833.576	23387
833.714	23273
833.852	23520
833.991	23318
834.129	23387
834.267	23379
834.406	23296
834.544	23318
834.682	23436
834.821	23288
834.959	23539
835.097	23261
835.235	23429
835.373	23204
835.511	23349
835.65	23159
835.788	23117
835.926	23014
836.064	22995
836.202	23064
836.34	23105
836.478	23174
836.615	22999
836.753	23067
836.891	23261
837.029	23242
837.167	22976
837.305	23109
837.443	23029
837.58	23064
837.718	23113
837.856	23147
837.993	22980
838.131	23018
838.269	23041
838.406	22968
838.544	22824
838.681	22752
838.819	22733
838.956	22538
839.094	22493
839.231	22611
839.369	22649
839.506	22885
839.643	22645
839.781	22481
839.918	22432
840.055	22440
840.193	22470
840.33	22428
840.467	22455
840.604	22497
840.742	22656
840.879	22207
841.016	22390
841.153	22337
841.29	22557
841.427	22299
841.564	22432
841.701	22329
841.838	22489
841.975	22287
842.112	22386
842.249	22284
842.385	22238
842.522	22348
842.659	22272
842.796	22173
842.933	22226
843.069	22150
843.206	22131
843.343	22261
843.479	22246
843.616	22166
843.752	21941
843.889	22051
844.025	22135
844.162	21888
844.298	22074
844.435	21892
844.571	21953
844.708	22139
844.844	22029
844.98	22154
845.117	22036
845.253	21941
845.389	21861
845.525	21755
845.661	21827
845.798	21717
845.934	21751
846.07	21709
846.206	21781
846.342	21876
846.478	21694
846.614	21447
846.75	21526
846.886	21545
847.022	21450
847.158	21431
847.294	21431
847.429	21454
847.565	21382
847.701	21709
847.837	21230
847.972	21138
848.108	21351
848.244	21127
848.379	21066
848.515	20929
848.65	20948
848.786	21070
848.921	21001
849.057	21294
849.192	21218
849.328	21104
849.463	21176
849.598	21173
849.734	20910
849.869	20963
850.004	20842
850.14	20887
850.275	20765
850.41	20762
850.545	20880
850.68	20819
850.815	20807
850.95	20868
851.085	20914
851.22	20990
851.355	20739
851.49	20701
851.625	20663
851.76	20735
851.895	20819
852.03	20785
852.165	20815
852.299	20804
852.434	20876
852.569	20746
852.703	20788
852.838	20826
852.973	20952
853.107	20880
853.242	20727
853.376	20773
853.511	20457
853.645	20594
853.78	20667
853.914	20617
854.048	20552
854.183	20609
854.317	20731
854.451	20781
854.585	20705
854.72	20686
854.854	20674
854.988	20537
855.122	20754
855.256	20549
855.39	20602
855.524	20762
855.658	20659
855.792	20583
855.926	20609
856.06	20503
856.194	20594
856.327	20583
856.461	20609
856.595	20537
856.729	20606
856.862	20731
856.996	20705
857.13	20606
857.263	20792
857.397	20796
857.53	20655
857.664	20781
857.797	20845
857.931	20720
858.064	20583
858.197	20689
858.331	20617
858.464	20651
858.597	20522
858.731	20670
858.864	20663
858.997	20670
859.13	20701
859.263	20674
859.396	20750
859.529	20629
859.662	20609
859.795	20640
859.928	20697
860.061	20758
860.194	20792
860.327	20655
860.46	20606
860.592	20686
860.725	20743
860.858	20754
860.99	20594
861.123	20552
861.256	20648
861.388	20579
861.521	21176
861.653	20492
861.786	20434
861.918	20454
862.05	20488
862.183	20606
862.315	20579
862.447	20602
862.58	20556
862.712	20343
862.844	20366
862.976	20393
863.108	20446
863.24	20727
863.372	20389
863.504	20328
863.636	20324
863.768	20450
863.9	20408
864.032	20343
864.164	20218
864.296	20381
864.428	20530
864.559	20385
864.691	20431
864.823	20355
864.954	20298
865.086	20233
865.217	20176
865.349	20122
865.48	20256
865.612	20324
865.743	20366
865.875	20248
866.006	20161
866.137	20229
866.269	20229
866.4	20248
866.531	20130
866.662	20039
866.793	20161
866.924	20005
867.055	20267
867.186	20202
867.317	20244
867.448	20096
867.579	20286
867.71	20096
867.841	20157
867.972	20206
868.103	20206
868.233	20252
868.364	20149
868.495	20252
868.625	20396
868.756	20575
868.886	20259
869.017	20400
869.147	20511
869.278	20507
869.408	20511
869.539	20442
869.669	20374
869.799	20495
869.929	20587
870.06	20541
870.19	20762
870.32	20720
870.45	20667
870.58	20815
870.71	20944
870.84	20845
870.97	20826
871.1	20899
871.23	21081
871.36	21047
871.489	21032
871.619	21070
871.749	21112
871.879	21074
872.008	21184
872.138	21028
872.267	21005
872.397	20921
872.526	20845
872.656	20861
872.785	20895
872.915	21085
873.044	21138
873.173	21043
873.303	21096
873.432	21161
873.561	21146
873.69	21184
873.819	21017
873.948	20990
874.077	21169
874.206	21047
874.335	21081
874.464	21127
874.593	21351
874.722	21218
874.851	21348
874.979	21344
875.108	21374
875.237	21226
875.365	21169
875.494	21393
875.623	21424
875.751	21245
875.88	21256
876.008	21393
876.136	21557
876.265	21728
876.393	21831
876.521	21629
876.65	21869
876.778	21671
876.906	21614
877.034	21637
877.162	21808
877.29	21618
877.418	21705
877.546	21751
877.674	21641
877.802	21766
877.93	21705
878.058	21553
878.185	21473
878.313	21618
878.441	21610
878.568	21629
878.696	21633
878.824	21656
878.951	21827
879.079	21812
879.206	22017
879.333	21728
879.461	21739
879.588	21774
879.715	21728
879.842	21941
879.97	21705
880.097	21553
880.224	21564
880.351	21469
880.478	21576
880.605	21420
880.732	21466
880.859	21675
880.986	21424
881.112	21583
881.239	21344
881.366	21199
881.493	21180
881.619	21135
881.746	21028
881.872	20986
881.999	21108
882.125	21009
882.252	21180
882.378	21081
882.505	21116
882.631	20842
882.757	20895
882.883	20796
883.01	20735
883.136	20746
883.262	20727
883.388	20621
883.514	20762
883.64	20826
883.766	20739
883.892	20602
884.018	20571
884.143	20678
884.269	20887
884.395	20530
884.52	20332
884.646	20503
884.772	20412
884.897	20225
885.023	20488
885.148	20469
885.274	20522
885.399	20541
885.524	20461
885.65	20465
885.775	20355
885.9	20461
886.025	20434
886.15	20457
886.275	20438
886.4	20275
886.525	20339
886.65	20415
886.775	20362
886.9	20522
887.025	20579
887.149	20374
887.274	20199
887.399	20115
887.523	20134
887.648	20252
887.773	20084
887.897	20233
888.021	20317
888.146	20138
888.27	20324
888.395	20145
888.519	20263
888.643	20381
888.767	20199
888.891	20157
889.015	20027
889.139	20024
889.263	20016
889.387	20115
889.511	20138
889.635	20149
889.759	19928
889.883	19989
890.006	20020
890.13	20092
890.254	19902
890.377	19940
890.501	19788
890.624	19647
890.748	19765
890.871	19685
890.995	19586
891.118	19510
891.241	19666
891.364	19624
891.488	19666
891.611	19514
891.734	19575
891.857	19674
891.98	19563
892.103	19681
892.226	19548
892.349	19499
892.471	19514
892.594	19605
892.717	19514
892.839	19460
892.962	19407
893.085	19571
893.207	19453
893.33	19392
893.452	19362
893.575	19529
893.697	19426
893.819	19666
893.941	19700
894.064	19571
894.186	19422
894.308	19438
894.43	19685
894.552	19704
894.674	19567
894.796	19464
894.918	19502
895.04	19502
895.161	19609
895.283	19491
895.405	19362
895.526	19369
895.648	19441
895.769	19548
895.891	19476
896.012	19548
896.134	19525
896.255	19487
896.376	19449
896.498	19392
896.619	19491
896.74	19487
896.861	19616
896.982	19791
897.103	19894
897.224	19727
897.345	19746
897.466	19689
897.587	19769
897.708	19947
897.828	19769
897.949	19651
898.07	19559
898.19	19704
898.311	19818
898.431	19658
898.552	19811
898.672	19864
898.792	19769
898.913	19791
899.033	19670
899.153	19563
899.273	19384
899.393	19377
899.513	19552
899.633	19578
899.753	19525
899.873	19502
899.993	19514
900.113	19464
900.232	19529
900.352	19438
900.472	19392
900.591	19198
900.711	19335
900.83	19179
900.95	19419
901.069	19392
901.189	19217
901.308	19019
901.427	18806
901.546	18810
901.665	18951
901.784	18909
901.904	18760
902.023	18665
902.141	18456
902.26	18441
902.379	18509
902.498	18437
902.617	18350
902.735	18467
902.854	18350
902.973	18304
903.091	18129
903.21	17988
903.328	18034
903.446	18015
903.565	18060
903.683	17939
903.801	17745
903.919	17870
904.038	17748
904.156	17581
904.274	17680
904.392	17630
904.51	17589
904.627	17585
904.745	17722
904.863	17684
904.981	17436
905.098	17337
905.216	17337
905.334	17307
905.451	17421
905.569	17261
905.686	17417
905.803	17326
905.921	17102
906.038	17322
906.155	17159
906.272	17094
906.389	17075
906.506	16911
906.623	16862
906.74	16869
906.857	16687
906.974	16824
907.091	16911
907.208	16953
907.324	16866
907.441	16790
907.557	16584
907.674	16622
907.79	16592
907.907	16618
908.023	16622
908.139	16592
908.256	16615
908.372	16443
908.488	16538
908.604	16417
908.72	16253
908.836	16356
908.952	16215
909.068	16367
909.184	16329
909.3	16272
909.415	16329
909.531	16253
909.647	16109
909.762	15994
909.878	16021
909.993	16101
910.108	15968
910.224	16029
910.339	15975
910.454	15793
910.57	15922
910.685	15781
910.8	16059
910.915	16006
911.03	15766
911.145	15759
911.259	15610
911.374	15698
911.489	15515
911.604	15485
911.718	15458
911.833	15428
911.947	15298
912.062	15310
912.176	15397
912.291	15412
912.405	15408
912.519	15496
912.633	15473
912.748	15294
912.862	15351
912.976	15272
913.09	15043
913.204	15192
913.318	15188
913.431	15230
913.545	15302
913.659	15340
913.772	15173
913.886	15020
914	15036
914.113	15024
914.226	15112
914.34	15032
914.453	14914
914.566	15058
914.68	14880
914.793	14781
914.906	14727
915.019	14590
915.132	14507
915.245	14655
915.358	14689
915.47	14678
915.583	14541
915.696	14708
915.809	14762
915.921	14754
916.034	14571
916.146	14476
916.259	14564
916.371	14648
916.483	14617
916.595	14465
916.708	14415
916.82	14442
916.932	14332
917.044	14400
917.156	14488
917.268	14263
917.38	14434
917.491	14252
917.603	14370
917.715	14339
917.826	14396
917.938	14244
918.049	14115
918.161	14187
918.272	14454
918.384	14408
918.495	14298
918.606	14073
918.717	14031
918.828	14088
918.939	14050
919.05	14088
919.161	14020
919.272	13890
919.383	13978
919.494	14103
919.604	14320
919.715	14062
919.826	13955
919.936	14008
920.047	14149
920.157	14035
920.267	14191
920.378	14062
920.488	14043
920.598	14149
920.708	14305
920.818	14172
920.928	14229
921.038	14309
921.148	14343
921.258	14012
921.368	13917
921.477	13814
921.587	13753
921.697	13658
921.806	13769
921.916	13742
922.025	13407
922.134	13529
922.244	13468
922.353	13464
922.462	13304
922.571	13392
922.68	13164
922.789	13031
922.898	13194
923.007	13038
923.116	13129
923.224	13034
923.333	13034
923.442	12966
923.55	12886
923.659	12852
923.767	13027
923.876	12916
923.984	12993
924.092	12798
924.201	12829
924.309	12920
924.417	12810
924.525	12730
924.633	12730
924.741	13723
924.849	12506
924.956	12677
925.064	12601
925.172	12483
925.279	12532
925.387	12528
925.494	12525
925.602	12582
925.709	12585
925.816	12486
925.924	12460
926.031	12642
926.138	12551
926.245	12574
926.352	12395
926.459	12479
926.566	12570
926.673	12452
926.779	12296
926.886	12315
926.993	12201
927.099	12049
927.206	12060
927.312	12015
927.419	12117
927.525	12171
927.631	12125
927.737	12019
927.843	11973
927.95	11904
928.056	11965
928.162	11996
928.267	12022
928.373	12601
928.479	11935
928.585	11790
928.69	11904
928.796	11870
928.901	11836
929.007	11680
929.112	11805
929.218	11779
929.323	11714
929.428	11630
929.533	11783
929.638	11554
929.743	11741
929.848	11611
929.953	11558
930.058	11528
930.163	11337
930.267	11391
930.372	11535
930.477	11376
930.581	11665
930.685	11452
930.79	11296
930.894	11216
930.998	11239
931.103	11330
931.207	10991
931.311	10904
931.415	10824
931.519	10748
931.623	10630
