Data from test_V78500241_2783.txt Node
Date: Fri Mar 25 15:29:14 CST 2022
User: usil
Spectrometer: V785-0024
Trigger mode: 0
Integration Time (sec): 4.000000E-1
Scans to average: 1
Nonlinearity correction enabled: false
Boxcar width: 0
Storing dark spectrum: false
XAxis mode: Wavelengths
Number of Pixels in Spectrum: 1024
>>>>>Begin Spectral Data<<<<<
801.071	27150
801.214	27180
801.356	26902
801.499	26800
801.641	26678
801.783	26663
801.926	26693
802.068	26697
802.211	26659
802.353	26587
802.496	26374
802.638	26415
802.78	26275
802.923	26298
803.065	26180
803.208	26195
803.35	26286
803.492	26317
803.635	26571
803.777	26469
803.919	26568
804.061	26826
804.204	26602
804.346	26389
804.488	26446
804.63	26568
804.773	26511
804.915	26465
805.057	26632
805.199	26385
805.341	26457
805.483	26621
805.626	26697
805.768	26438
805.91	26575
806.052	26640
806.194	26446
806.336	26777
806.478	26750
806.62	26769
806.762	26686
806.904	26876
807.046	27131
807.188	27150
807.33	27062
807.472	27119
807.614	26944
807.756	26982
807.898	26948
808.04	26777
808.182	26739
808.324	26830
808.465	26857
808.607	26940
808.749	27218
808.891	27256
809.033	27382
809.174	27294
809.316	27302
809.458	27135
809.6	27062
809.741	27180
809.883	27401
810.025	27458
810.166	27332
810.308	27477
810.45	27568
810.591	27298
810.733	27310
810.875	27306
811.016	27028
811.158	27138
811.299	27268
811.441	27401
811.582	27241
811.724	27249
811.865	27180
812.007	27096
812.148	27135
812.29	27298
812.431	27397
812.573	27523
812.714	27644
812.855	27637
812.997	27576
813.138	27766
813.279	27911
813.421	27709
813.562	27576
813.703	27511
813.845	27332
813.986	27043
814.127	26891
814.268	26777
814.41	27081
814.551	26743
814.692	27036
814.833	26739
814.974	26899
815.115	26845
815.256	26705
815.397	26617
815.539	26743
815.68	26575
815.821	26587
815.962	26621
816.103	26629
816.244	26366
816.385	26541
816.526	26431
816.666	26218
816.807	25978
816.948	26237
817.089	26153
817.23	26187
817.371	26031
817.512	26092
817.653	26138
817.793	26126
817.934	26039
818.075	26168
818.216	26039
818.356	26119
818.497	25875
818.638	25715
818.778	25818
818.919	25776
819.06	25860
819.2	25947
819.341	26043
819.481	26119
819.622	26176
819.762	26396
819.903	26214
820.043	26210
820.184	26278
820.324	26221
820.465	26290
820.605	26088
820.746	26168
820.886	26039
821.026	26145
821.167	26214
821.307	26164
821.447	26126
821.588	26065
821.728	25780
821.868	25757
822.008	25556
822.149	25468
822.289	25567
822.429	25384
822.569	25061
822.709	25259
822.849	25133
822.99	25088
823.13	25031
823.27	25053
823.41	24935
823.55	24707
823.69	24897
823.83	24890
823.97	24753
824.11	24673
824.25	24593
824.389	24665
824.529	24882
824.669	24745
824.809	24848
824.949	24871
825.089	24726
825.228	24719
825.368	24574
825.508	24559
825.648	24551
825.787	24578
825.927	24555
826.067	24452
826.206	24574
826.346	24692
826.485	24570
826.625	24540
826.765	24669
826.904	24566
827.044	24445
827.183	24292
827.323	24258
827.462	24327
827.601	24289
827.741	24140
827.88	24388
828.02	24045
828.159	24136
828.298	24182
828.437	24285
828.577	24300
828.716	24281
828.855	24133
828.994	24041
829.134	23901
829.273	24030
829.412	23935
829.551	23901
829.69	23882
829.829	23931
829.968	23980
830.107	24038
830.246	23916
830.385	23840
830.524	23912
830.663	23798
830.802	23687
830.941	23520
831.08	23516
831.219	23661
831.357	23562
831.496	23863
831.635	23630
831.774	23467
831.913	23337
832.051	23402
832.19	23360
832.329	23383
832.467	23337
832.606	23235
832.744	23200
832.883	23250
833.022	23220
833.16	23364
833.299	23170
833.437	23223
833.576	23334
833.714	23398
833.852	23360
833.991	23239
834.129	23334
834.267	23402
834.406	23239
834.544	23284
834.682	23239
834.821	23292
834.959	23360
835.097	23250
835.235	23284
835.373	23376
835.511	23181
835.65	23223
835.788	23193
835.926	22972
836.064	22911
836.202	23006
836.34	23117
836.478	23277
836.615	23094
836.753	23113
836.891	23227
837.029	23147
837.167	23143
837.305	23018
837.443	23086
837.58	22980
837.718	23041
837.856	23105
837.993	22911
838.131	22961
838.269	22881
838.406	22942
838.544	22889
838.681	22694
838.819	22634
838.956	22432
839.094	22424
839.231	22500
839.369	22580
839.506	22904
839.643	22721
839.781	22428
839.918	22367
840.055	22462
840.193	22398
840.33	22478
840.467	22329
840.604	22542
840.742	22634
840.879	22314
841.016	22550
841.153	22329
841.29	22535
841.427	22428
841.564	22447
841.701	22398
841.838	22234
841.975	22215
842.112	22322
842.249	22196
842.385	22272
842.522	22436
842.659	22348
842.796	22192
842.933	22219
843.069	22002
843.206	21953
843.343	22284
843.479	22280
843.616	22078
843.752	21987
843.889	21945
844.025	22093
844.162	21876
844.298	22044
844.435	21880
844.571	21991
844.708	21895
844.844	22101
844.98	22082
845.117	22044
845.253	21915
845.389	21774
845.525	21751
845.661	21747
845.798	21713
845.934	21709
846.07	21625
846.206	21671
846.342	21724
846.478	21679
846.614	21351
846.75	21272
846.886	21348
847.022	21595
847.158	21538
847.294	21504
847.429	21367
847.565	21351
847.701	21660
847.837	21260
847.972	21142
848.108	21294
848.244	21100
848.379	20925
848.515	21104
848.65	20944
848.786	20979
848.921	21081
849.057	21096
849.192	21157
849.328	21055
849.463	20982
849.598	20925
849.734	20861
849.869	20823
850.004	20746
850.14	20792
850.275	20845
850.41	20670
850.545	20750
850.68	20712
850.815	20792
850.95	20765
851.085	20906
851.22	20842
851.355	20834
851.49	20765
851.625	20735
851.76	20746
851.895	20758
852.03	20762
852.165	20697
852.299	20815
852.434	20857
852.569	20925
852.703	20781
852.838	20792
852.973	20982
853.107	20845
853.242	20739
853.376	20473
853.511	20503
853.645	20473
853.78	20708
853.914	20545
854.048	20594
854.183	20621
854.317	20701
854.451	20838
854.585	20663
854.72	20632
854.854	20705
854.988	20568
855.122	20651
855.256	20358
855.39	20655
855.524	20686
855.658	20518
855.792	20568
855.926	20564
856.06	20583
856.194	20739
856.327	20556
856.461	20484
856.595	20587
856.729	20488
856.862	20636
856.996	20575
857.13	20613
857.263	20754
857.397	20663
857.53	20518
857.664	20609
857.797	20659
857.931	20632
858.064	20514
858.197	20644
858.331	20507
858.464	20613
858.597	20476
858.731	20537
858.864	20579
858.997	20499
859.13	20617
859.263	20518
859.396	20754
859.529	20598
859.662	20495
859.795	20454
859.928	20613
860.061	20651
860.194	20746
860.327	20644
860.46	20541
860.592	20762
860.725	20762
860.858	20667
860.99	20651
861.123	20545
861.256	20537
861.388	20507
861.521	21325
861.653	20564
861.786	20347
861.918	20446
862.05	20537
862.183	20530
862.315	20469
862.447	20659
862.58	20587
862.712	20396
862.844	20396
862.976	20419
863.108	20393
863.24	20598
863.372	20309
863.504	20278
863.636	20339
863.768	20320
863.9	20328
864.032	20168
864.164	20191
864.296	20362
864.428	20450
864.559	20294
864.691	20408
864.823	20294
864.954	20374
865.086	20301
865.217	20355
865.349	20267
865.48	20237
865.612	20248
865.743	20313
865.875	20195
866.006	20221
866.137	20240
866.269	20088
866.4	20153
866.531	20111
866.662	20138
866.793	20119
866.924	20149
867.055	20126
867.186	20164
867.317	20191
867.448	20126
867.579	20065
867.71	20092
867.841	20153
867.972	20244
868.103	20077
868.233	20229
868.364	20183
868.495	20237
868.625	20290
868.756	20423
868.886	20313
869.017	20438
869.147	20545
869.278	20499
869.408	20351
869.539	20442
869.669	20408
869.799	20377
869.929	20457
870.06	20530
870.19	20682
870.32	20663
870.45	20689
870.58	20842
870.71	20963
870.84	20758
870.97	20648
871.1	20921
871.23	20899
871.36	20948
871.489	20811
871.619	20853
871.749	21096
871.879	20998
872.008	21028
872.138	20952
872.267	20914
872.397	20811
872.526	20819
872.656	20857
872.785	20887
872.915	21020
873.044	21112
873.173	20982
873.303	21074
873.432	21039
873.561	21214
873.69	21009
873.819	21028
873.948	21093
874.077	21058
874.206	20960
874.335	21051
874.464	21100
874.593	21161
874.722	21066
874.851	21287
874.979	21306
875.108	21367
875.237	21283
875.365	21127
875.494	21226
875.623	21275
875.751	21180
875.88	21222
876.008	21439
876.136	21374
876.265	21701
876.393	21759
876.521	21808
876.65	21667
876.778	21591
876.906	21587
877.034	21618
877.162	21713
877.29	21603
877.418	21549
877.546	21572
877.674	21595
877.802	21591
877.93	21568
878.058	21637
878.185	21542
878.313	21648
878.441	21648
878.568	21382
878.696	21496
878.824	21671
878.951	21633
879.079	21724
879.206	21880
879.333	21857
879.461	21564
879.588	21698
879.715	21785
879.842	21926
879.97	21682
880.097	21466
880.224	21424
880.351	21511
880.478	21454
880.605	21439
880.732	21405
880.859	21781
880.986	21462
881.112	21431
881.239	21313
881.366	21062
881.493	21055
881.619	21032
881.746	21051
881.872	21058
881.999	20971
882.125	21020
882.252	21154
882.378	21020
882.505	21017
882.631	21108
882.757	20758
882.883	20842
883.01	20743
883.136	20655
883.262	20663
883.388	20469
883.514	20769
883.64	20727
883.766	20659
883.892	20594
884.018	20537
884.143	20758
884.269	20731
884.395	20594
884.52	20351
884.646	20294
884.772	20415
884.897	20317
885.023	20313
885.148	20465
885.274	20526
885.399	20457
885.524	20332
885.65	20389
885.775	20423
885.9	20256
886.025	20457
886.15	20454
886.275	20358
886.4	20320
886.525	20324
886.65	20317
886.775	20263
886.9	20594
887.025	20545
887.149	20362
887.274	20187
887.399	20039
887.523	20100
887.648	20275
887.773	19940
887.897	20267
888.021	20164
888.146	20024
888.27	20244
888.395	20275
888.519	20199
888.643	20180
888.767	20195
888.891	20187
889.015	20008
889.139	20001
889.263	19955
889.387	20130
889.511	20122
889.635	20065
889.759	19875
889.883	19959
890.006	19989
890.13	19978
890.254	19879
890.377	19807
890.501	19788
890.624	19727
890.748	19696
890.871	19540
890.995	19419
891.118	19540
891.241	19468
891.364	19510
891.488	19712
891.611	19537
891.734	19495
891.857	19731
891.98	19590
892.103	19624
892.226	19529
892.349	19487
892.471	19324
892.594	19487
892.717	19548
892.839	19411
892.962	19430
893.085	19483
893.207	19460
893.33	19464
893.452	19438
893.575	19537
893.697	19419
893.819	19723
893.941	19609
894.064	19586
894.186	19362
894.308	19407
894.43	19609
894.552	19635
894.674	19620
894.796	19396
894.918	19514
895.04	19480
895.161	19400
895.283	19544
895.405	19441
895.526	19518
895.648	19502
895.769	19384
895.891	19476
896.012	19586
896.134	19556
896.255	19430
896.376	19301
896.498	19502
896.619	19422
896.74	19441
896.861	19533
896.982	19738
897.103	19868
897.224	19883
897.345	19769
897.466	19578
897.587	19715
897.708	19830
897.828	19757
897.949	19715
898.07	19552
898.19	19582
898.311	19799
898.431	19594
898.552	19677
898.672	19753
898.792	19841
898.913	19670
899.033	19590
899.153	19472
899.273	19499
899.393	19422
899.513	19506
899.633	19438
899.753	19434
899.873	19430
899.993	19533
900.113	19400
900.232	19624
900.352	19289
900.472	19278
900.591	19179
900.711	19324
900.83	19236
900.95	19354
901.069	19316
901.189	19175
901.308	18966
901.427	18852
901.546	18825
901.665	18814
901.784	18859
901.904	18700
902.023	18635
902.141	18422
902.26	18330
902.379	18536
902.498	18262
902.617	18403
902.735	18372
902.854	18376
902.973	18205
903.091	17988
903.21	17977
903.328	18110
903.446	17988
903.565	17851
903.683	17741
903.801	17847
903.919	17790
904.038	17699
904.156	17627
904.274	17707
904.392	17615
904.51	17528
904.627	17596
904.745	17691
904.863	17790
904.981	17356
905.098	17349
905.216	17296
905.334	17334
905.451	17372
905.569	17337
905.686	17368
905.803	17216
905.921	17067
906.038	17121
906.155	17174
906.272	16968
906.389	16991
906.506	16828
906.623	16900
906.74	16816
906.857	16748
906.974	16675
907.091	16961
907.208	17014
907.324	16900
907.441	16729
907.557	16500
907.674	16626
907.79	16527
907.907	16493
908.023	16497
908.139	16615
908.256	16493
908.372	16497
908.488	16436
908.604	16363
908.72	16333
908.836	16318
908.952	16192
909.068	16318
909.184	16386
909.3	16333
909.415	16242
909.531	16276
909.647	16078
909.762	15964
909.878	16010
909.993	15975
910.108	15983
910.224	15941
910.339	15907
910.454	15915
910.57	15785
910.685	15705
910.8	16040
910.915	15994
911.03	15785
911.145	15587
911.259	15584
911.374	15610
911.489	15553
911.604	15515
911.718	15469
911.833	15367
911.947	15294
912.062	15325
912.176	15431
912.291	15450
912.405	15374
912.519	15580
912.633	15526
912.748	15332
912.862	15332
912.976	15279
913.09	15074
913.204	15104
913.318	15157
913.431	15249
913.545	15226
913.659	15252
913.772	15176
913.886	15104
914	14952
914.113	15051
914.226	15024
914.34	15062
914.453	14785
914.566	14952
914.68	14769
914.793	14887
914.906	14693
915.019	14689
915.132	14549
915.245	14575
915.358	14537
915.47	14552
915.583	14507
915.696	14640
915.809	14705
915.921	14743
916.034	14507
916.146	14587
916.259	14503
916.371	14598
916.483	14568
916.595	14522
916.708	14423
916.82	14415
916.932	14419
917.044	14438
917.156	14336
917.268	14233
917.38	14267
917.491	14294
917.603	14339
917.715	14400
917.826	14476
917.938	14176
918.049	14100
918.161	14225
918.272	14305
918.384	14339
918.495	14210
918.606	14050
918.717	13955
918.828	14016
918.939	14138
919.05	13906
919.161	14043
919.272	13890
919.383	13963
919.494	13959
919.604	14248
919.715	14050
919.826	13970
919.936	13940
920.047	14088
920.157	14024
920.267	14290
920.378	13993
920.488	13917
920.598	14168
920.708	14355
920.818	14138
920.928	14145
921.038	14309
921.148	14286
921.258	13921
921.368	13902
921.477	13708
921.587	13677
921.697	13639
921.806	13746
921.916	13662
922.025	13434
922.134	13407
922.244	13407
922.353	13460
922.462	13324
922.571	13247
922.68	13034
922.789	13038
922.898	13095
923.007	12993
923.116	13084
923.224	13114
923.333	13107
923.442	12985
923.55	12878
923.659	12875
923.767	12935
923.876	12859
923.984	12837
924.092	12764
924.201	12825
924.309	12821
924.417	12821
924.525	12726
924.633	12715
924.741	13495
924.849	12574
924.956	12707
925.064	12563
925.172	12513
925.279	12555
925.387	12513
925.494	12544
925.602	12589
925.709	12589
925.816	12460
925.924	12502
926.031	12464
926.138	12467
926.245	12490
926.352	12281
926.459	12517
926.566	12441
926.673	12388
926.779	12239
926.886	12277
926.993	12220
927.099	12083
927.206	12136
927.312	11958
927.419	12129
927.525	12140
927.631	12136
927.737	11996
927.843	11965
927.95	11859
928.056	11798
928.162	11859
928.267	11973
928.373	12593
928.479	11942
928.585	11703
928.69	11878
928.796	11897
928.901	11794
929.007	11577
929.112	11718
929.218	11790
929.323	11676
929.428	11661
929.533	11729
929.638	11642
929.743	11646
929.848	11573
929.953	11604
930.058	11528
930.163	11322
930.267	11311
930.372	11493
930.477	11292
930.581	11547
930.685	11315
930.79	11220
930.894	11258
930.998	11254
931.103	11391
931.207	11029
931.311	10976
931.415	10904
931.519	10664
931.623	10618
