Data from test_V78500241_771.txt Node
Date: Fri Mar 25 15:15:13 CST 2022
User: usil
Spectrometer: V785-0024
Trigger mode: 0
Integration Time (sec): 4.000000E-1
Scans to average: 1
Nonlinearity correction enabled: false
Boxcar width: 0
Storing dark spectrum: false
XAxis mode: Wavelengths
Number of Pixels in Spectrum: 1024
>>>>>Begin Spectral Data<<<<<
801.071	28070
801.214	27876
801.356	27991
801.499	27747
801.641	27698
801.783	27625
801.926	27709
802.068	27705
802.211	27576
802.353	27462
802.496	27481
802.638	27378
802.78	27344
802.923	27427
803.065	27344
803.208	27340
803.35	27435
803.492	27504
803.635	27549
803.777	27462
803.919	27660
804.061	27998
804.204	27591
804.346	27500
804.488	27496
804.63	27519
804.773	27427
804.915	27462
805.057	27762
805.199	27637
805.341	27663
805.483	27842
805.626	27675
805.768	27679
805.91	27644
806.052	27618
806.194	27625
806.336	27857
806.478	27690
806.62	27652
806.762	27865
806.904	27949
807.046	28188
807.188	28234
807.33	28128
807.472	28207
807.614	28101
807.756	28139
807.898	27949
808.04	28029
808.182	27884
808.324	27975
808.465	28029
808.607	28272
808.749	28417
808.891	28379
809.033	28523
809.174	28474
809.316	28401
809.458	28432
809.6	28348
809.741	28481
809.883	28603
810.025	28763
810.166	28683
810.308	28752
810.45	28630
810.591	28531
810.733	28386
810.875	28432
811.016	28310
811.158	28398
811.299	28500
811.441	28436
811.582	28592
811.724	28356
811.865	28181
812.007	28428
812.148	28318
812.29	28455
812.431	28702
812.573	28831
812.714	28786
812.855	28858
812.997	28946
813.138	29178
813.279	29280
813.421	28965
813.562	28915
813.703	28729
813.845	28641
813.986	28272
814.127	28223
814.268	28112
814.41	28192
814.551	28150
814.692	28234
814.833	27972
814.974	28017
815.115	28188
815.256	28040
815.397	28048
815.539	28116
815.68	27907
815.821	27800
815.962	27850
816.103	27922
816.244	27778
816.385	27583
816.526	27679
816.666	27454
816.807	27431
816.948	27359
817.089	27583
817.23	27424
817.371	27401
817.512	27542
817.653	27416
817.793	27386
817.934	27405
818.075	27351
818.216	27504
818.356	27393
818.497	27355
818.638	27058
818.778	27127
818.919	27150
819.06	27351
819.2	27351
819.341	27515
819.481	27481
819.622	27519
819.762	27861
819.903	27576
820.043	27576
820.184	27542
820.324	27496
820.465	27378
820.605	27561
820.746	27583
820.886	27329
821.026	27523
821.167	27458
821.307	27553
821.447	27431
821.588	27279
821.728	27317
821.868	27085
822.008	27017
822.149	26845
822.289	26891
822.429	26659
822.569	26537
822.709	26476
822.849	26465
822.99	26431
823.13	26294
823.27	26336
823.41	26058
823.55	26077
823.69	26191
823.83	26210
823.97	26218
824.11	26027
824.25	25966
824.389	26058
824.529	26134
824.669	25921
824.809	26153
824.949	26043
825.089	26221
825.228	26081
825.368	25947
825.508	25947
825.648	25974
825.787	25974
825.927	26058
826.067	25921
826.206	25814
826.346	25883
826.485	25883
826.625	25909
826.765	26031
826.904	25871
827.044	25643
827.183	25578
827.323	25609
827.462	25681
827.601	25693
827.741	25582
827.88	25620
828.02	25419
828.159	25514
828.298	25590
828.437	25616
828.577	25426
828.716	25609
828.855	25586
828.994	25479
829.134	25240
829.273	25369
829.412	25331
829.551	25301
829.69	25293
829.829	25362
829.968	25365
830.107	25445
830.246	25308
830.385	25373
830.524	25122
830.663	25031
830.802	25031
830.941	24840
831.08	24913
831.219	24954
831.357	24909
831.496	25171
831.635	24897
831.774	24928
831.913	24715
832.051	24688
832.19	24692
832.329	24840
832.467	24684
832.606	24509
832.744	24544
832.883	24502
833.022	24692
833.16	24665
833.299	24741
833.437	24669
833.576	24700
833.714	24681
833.852	24715
833.991	24753
834.129	24707
834.267	24661
834.406	24741
834.544	24681
834.682	24677
834.821	24631
834.959	24981
835.097	24597
835.235	24772
835.373	24829
835.511	24707
835.65	24589
835.788	24608
835.926	24353
836.064	24445
836.202	24445
836.34	24426
836.478	24585
836.615	24414
836.753	24509
836.891	24544
837.029	24483
837.167	24437
837.305	24445
837.443	24330
837.58	24407
837.718	24403
837.856	24376
837.993	24102
838.131	24365
838.269	24125
838.406	24117
838.544	24136
838.681	23977
838.819	23988
838.956	23745
839.094	23897
839.231	23668
839.369	23859
839.506	24125
839.643	23882
839.781	23710
839.918	23611
840.055	23703
840.193	23752
840.33	23531
840.467	23665
840.604	23672
840.742	23927
840.879	23539
841.016	23589
841.153	23551
841.29	23676
841.427	23581
841.564	23779
841.701	23577
841.838	23642
841.975	23627
842.112	23440
842.249	23551
842.385	23459
842.522	23718
842.659	23490
842.796	23337
842.933	23463
843.069	23406
843.206	23337
843.343	23611
843.479	23322
843.616	23497
843.752	23193
843.889	23216
844.025	23421
844.162	23181
844.298	23204
844.435	23235
844.571	23212
844.708	23254
844.844	23372
844.98	23216
845.117	23299
845.253	23178
845.389	22968
845.525	23121
845.661	23003
845.798	22987
845.934	22957
846.07	22892
846.206	23018
846.342	23033
846.478	22896
846.614	22752
846.75	22596
846.886	22694
847.022	22759
847.158	22778
847.294	22717
847.429	22786
847.565	22725
847.701	22831
847.837	22455
847.972	22337
848.108	22481
848.244	22386
848.379	22284
848.515	22268
848.65	22291
848.786	22299
848.921	22348
849.057	22371
849.192	22333
849.328	22318
849.463	22207
849.598	22200
849.734	22177
849.869	22188
850.004	22158
850.14	22105
850.275	22067
850.41	22090
850.545	22128
850.68	22040
850.815	22006
850.95	22013
851.085	22238
851.22	22040
851.355	21991
851.49	21949
851.625	21907
851.76	22013
851.895	21945
852.03	22029
852.165	22090
852.299	22048
852.434	22135
852.569	22116
852.703	22032
852.838	22192
852.973	22093
853.107	22059
853.242	21922
853.376	21778
853.511	21857
853.645	21892
853.78	22032
853.914	21880
854.048	21789
854.183	21846
854.317	21975
854.451	22040
854.585	21930
854.72	21762
854.854	21907
854.988	21842
855.122	21808
855.256	21739
855.39	21857
855.524	21857
855.658	21949
855.792	21915
855.926	21953
856.06	21953
856.194	21937
856.327	21907
856.461	21667
856.595	21816
856.729	21797
856.862	21945
856.996	21941
857.13	22002
857.263	22063
857.397	21930
857.53	21789
857.664	21953
857.797	21934
857.931	21979
858.064	22036
858.197	22002
858.331	21705
858.464	21770
858.597	21690
858.731	21842
858.864	21850
858.997	21797
859.13	21873
859.263	21835
859.396	21835
859.529	21797
859.662	21728
859.795	21812
859.928	21800
860.061	22017
860.194	22029
860.327	21956
860.46	21838
860.592	21968
860.725	22010
860.858	21960
860.99	21823
861.123	21842
861.256	21739
861.388	21770
861.521	22466
861.653	21755
861.786	21629
861.918	21739
862.05	21762
862.183	21690
862.315	21755
862.447	21888
862.58	21690
862.712	21610
862.844	21526
862.976	21595
863.108	21660
863.24	22021
863.372	21408
863.504	21587
863.636	21545
863.768	21553
863.9	21561
864.032	21507
864.164	21507
864.296	21656
864.428	21671
864.559	21656
864.691	21660
864.823	21469
864.954	21576
865.086	21576
865.217	21511
865.349	21329
865.48	21477
865.612	21526
865.743	21549
865.875	21542
866.006	21416
866.137	21485
866.269	21481
866.4	21443
866.531	21313
866.662	21268
866.793	21386
866.924	21214
867.055	21378
867.186	21351
867.317	21382
867.448	21336
867.579	21348
867.71	21199
867.841	21275
867.972	21256
868.103	21355
868.233	21408
868.364	21386
868.495	21473
868.625	21530
868.756	21854
868.886	21530
869.017	21629
869.147	21667
869.278	21690
869.408	21732
869.539	21694
869.669	21774
869.799	21660
869.929	21808
870.06	21610
870.19	21842
870.32	21888
870.45	21884
870.58	21987
870.71	22116
870.84	22078
870.97	21998
871.1	21975
871.23	22188
871.36	22147
871.489	22070
871.619	22325
871.749	22097
871.879	22253
872.008	22424
872.138	22238
872.267	22116
872.397	22063
872.526	22029
872.656	22067
872.785	22048
872.915	22223
873.044	22363
873.173	22238
873.303	22200
873.432	22303
873.561	22249
873.69	22166
873.819	22143
873.948	22265
874.077	22257
874.206	22078
874.335	22162
874.464	22318
874.593	22428
874.722	22421
874.851	22485
874.979	22436
875.108	22542
875.237	22344
875.365	22310
875.494	22436
875.623	22516
875.751	22348
875.88	22462
876.008	22645
876.136	22831
876.265	22919
876.393	22801
876.521	22889
876.65	22866
876.778	22816
876.906	22759
877.034	22649
877.162	22774
877.29	22786
877.418	22858
877.546	22759
877.674	22809
877.802	22717
877.93	22828
878.058	22809
878.185	22653
878.313	22763
878.441	22694
878.568	22653
878.696	22694
878.824	22927
878.951	22748
879.079	22949
879.206	23147
879.333	22919
879.461	22763
879.588	22930
879.715	22915
879.842	23014
879.97	22892
880.097	22710
880.224	22588
880.351	22653
880.478	22580
880.605	22607
880.732	22538
880.859	22759
880.986	22550
881.112	22637
881.239	22535
881.366	22249
881.493	22147
881.619	22074
881.746	22234
881.872	22249
881.999	22021
882.125	22143
882.252	22234
882.378	22204
882.505	22352
882.631	22006
882.757	21854
882.883	21857
883.01	21846
883.136	21709
883.262	21846
883.388	21663
883.514	21926
883.64	21918
883.766	21903
883.892	21618
884.018	21622
884.143	21770
884.269	21903
884.395	21564
884.52	21431
884.646	21492
884.772	21458
884.897	21363
885.023	21485
885.148	21542
885.274	21648
885.399	21515
885.524	21542
885.65	21481
885.775	21405
885.9	21462
886.025	21564
886.15	21530
886.275	21500
886.4	21481
886.525	21340
886.65	21294
886.775	21481
886.9	21595
887.025	21797
887.149	21443
887.274	21249
887.399	21340
887.523	21218
887.648	21237
887.773	21241
887.897	21408
888.021	21336
888.146	21085
888.27	21466
888.395	21279
888.519	21302
888.643	21294
888.767	21260
888.891	21108
889.015	21161
889.139	21188
889.263	21081
889.387	21150
889.511	21302
889.635	21184
889.759	21066
889.883	21020
890.006	21096
890.13	21127
890.254	20994
890.377	20967
890.501	20796
890.624	20746
890.748	20902
890.871	20689
890.995	20636
891.118	20537
891.241	20659
891.364	20708
891.488	20667
891.611	20659
891.734	20648
891.857	20686
891.98	20594
892.103	20583
892.226	20640
892.349	20594
892.471	20374
892.594	20617
892.717	20568
892.839	20545
892.962	20564
893.085	20530
893.207	20541
893.33	20408
893.452	20484
893.575	20571
893.697	20355
893.819	20663
893.941	20613
894.064	20632
894.186	20415
894.308	20419
894.43	20537
894.552	20644
894.674	20541
894.796	20423
894.918	20434
895.04	20385
895.161	20549
895.283	20419
895.405	20362
895.526	20415
895.648	20541
895.769	20476
895.891	20446
896.012	20568
896.134	20537
896.255	20537
896.376	20404
896.498	20609
896.619	20537
896.74	20587
896.861	20530
896.982	20823
897.103	20880
897.224	20804
897.345	20788
897.466	20598
897.587	20754
897.708	20819
897.828	20834
897.949	20594
898.07	20682
898.19	20655
898.311	20864
898.431	20708
898.552	20727
898.672	20777
898.792	20762
898.913	20708
899.033	20594
899.153	20492
899.273	20370
899.393	20457
899.513	20469
899.633	20526
899.753	20404
899.873	20313
899.993	20442
900.113	20351
900.232	20362
900.352	20404
900.472	20256
900.591	20218
900.711	20263
900.83	20142
900.95	20248
901.069	20332
901.189	20103
901.308	19970
901.427	19856
901.546	19765
901.665	19879
901.784	19822
901.904	19696
902.023	19502
902.141	19453
902.26	19312
902.379	19403
902.498	19343
902.617	19247
902.735	19407
902.854	19259
902.973	19232
903.091	19034
903.21	18996
903.328	19057
903.446	18867
903.565	18856
903.683	18654
903.801	18684
903.919	18760
904.038	18692
904.156	18528
904.274	18593
904.392	18418
904.51	18433
904.627	18589
904.745	18623
904.863	18627
904.981	18391
905.098	18346
905.216	18228
905.334	18277
905.451	18228
905.569	18174
905.686	18311
905.803	18194
905.921	18026
906.038	18159
906.155	17977
906.272	17927
906.389	17931
906.506	17771
906.623	17699
906.74	17828
906.857	17592
906.974	17627
907.091	17805
907.208	17961
907.324	17767
907.441	17714
907.557	17474
907.674	17387
907.79	17440
907.907	17474
908.023	17440
908.139	17410
908.256	17406
908.372	17406
908.488	17303
908.604	17345
908.72	17151
908.836	17105
908.952	17083
909.068	17227
909.184	17254
909.3	17143
909.415	17155
909.531	17151
909.647	17014
909.762	16915
909.878	16843
909.993	16923
910.108	16953
910.224	16847
910.339	16828
910.454	16736
910.57	16713
910.685	16626
910.8	16831
910.915	16755
911.03	16611
911.145	16542
911.259	16497
911.374	16542
911.489	16519
911.604	16386
911.718	16166
911.833	16166
911.947	16032
912.062	16040
912.176	16188
912.291	16185
912.405	16215
912.519	16462
912.633	16337
912.748	16238
912.862	16109
912.976	16131
913.09	15918
913.204	16002
913.318	16013
913.431	16101
913.545	16017
913.659	16048
913.772	15964
913.886	15892
914	15804
914.113	15941
914.226	15991
914.34	15941
914.453	15732
914.566	15827
914.68	15644
914.793	15762
914.906	15641
915.019	15412
915.132	15405
915.245	15428
915.358	15412
915.47	15393
915.583	15458
915.696	15439
915.809	15488
915.921	15496
916.034	15386
916.146	15283
916.259	15340
916.371	15382
916.483	15443
916.595	15237
916.708	15226
916.82	15214
916.932	15291
917.044	15291
917.156	15169
917.268	15081
917.38	15157
917.491	15123
917.603	15009
917.715	15077
917.826	15127
917.938	14967
918.049	14914
918.161	15005
918.272	15093
918.384	15157
918.495	14986
918.606	14876
918.717	14670
918.828	14880
918.939	14899
919.05	14739
919.161	14804
919.272	14503
919.383	14606
919.494	14853
919.604	14944
919.715	14708
919.826	14705
919.936	14727
920.047	14895
920.157	14830
920.267	14933
920.378	14815
920.488	14804
920.598	15055
920.708	15024
920.818	14918
920.928	14944
921.038	14948
921.148	15055
921.258	14712
921.368	14594
921.477	14511
921.587	14575
921.697	14389
921.806	14492
921.916	14377
922.025	14237
922.134	14176
922.244	14065
922.353	14240
922.462	13982
922.571	13997
922.68	13753
922.789	13753
922.898	13833
923.007	13685
923.116	13803
923.224	13681
923.333	13788
923.442	13548
923.55	13559
923.659	13647
923.767	13613
923.876	13578
923.984	13696
924.092	13487
924.201	13491
924.309	13544
924.417	13559
924.525	13400
924.633	13415
924.741	14221
924.849	13274
924.956	13335
925.064	13217
925.172	13152
925.279	13152
925.387	13266
925.494	13091
925.602	13316
925.709	13175
925.816	13107
925.924	13076
926.031	13187
926.138	13164
926.245	13164
926.352	13015
926.459	13057
926.566	13179
926.673	13107
926.779	12882
926.886	13031
926.993	12734
927.099	12734
927.206	12677
927.312	12726
927.419	12829
927.525	12654
927.631	12757
927.737	12593
927.843	12620
927.95	12559
928.056	12540
928.162	12521
928.267	12612
928.373	13274
928.479	12673
928.585	12353
928.69	12544
928.796	12578
928.901	12403
929.007	12289
929.112	12380
929.218	12292
929.323	12277
929.428	12292
929.533	12460
929.638	12175
929.743	12220
929.848	12258
929.953	12258
930.058	12121
930.163	11923
930.267	11954
930.372	12148
930.477	11847
930.581	12129
930.685	12038
930.79	11748
930.894	11889
930.998	11870
931.103	11992
931.207	11615
931.311	11505
931.415	11474
931.519	11261
931.623	11170
