Data from test_V78500241_1669.txt Node
Date: Fri Mar 25 15:21:28 CST 2022
User: usil
Spectrometer: V785-0024
Trigger mode: 0
Integration Time (sec): 4.000000E-1
Scans to average: 1
Nonlinearity correction enabled: false
Boxcar width: 0
Storing dark spectrum: false
XAxis mode: Wavelengths
Number of Pixels in Spectrum: 1024
>>>>>Begin Spectral Data<<<<<
801.071	27953
801.214	27934
801.356	27679
801.499	27728
801.641	27549
801.783	27382
801.926	27564
802.068	27504
802.211	27283
802.353	27458
802.496	27283
802.638	27138
802.78	27180
802.923	27218
803.065	26998
803.208	26971
803.35	27184
803.492	27279
803.635	27245
803.777	27245
803.919	27195
804.061	27747
804.204	27378
804.346	27245
804.488	27275
804.63	27454
804.773	27207
804.915	27466
805.057	27507
805.199	27344
805.341	27420
805.483	27507
805.626	27523
805.768	27310
805.91	27492
806.052	27545
806.194	27374
806.336	27622
806.478	27526
806.62	27523
806.762	27717
806.904	27793
807.046	27956
807.188	27922
807.33	27865
807.472	27968
807.614	27819
807.756	27747
807.898	27793
808.04	27694
808.182	27816
808.324	27774
808.465	27865
808.607	28025
808.749	28070
808.891	28295
809.033	28329
809.174	28154
809.316	27994
809.458	28131
809.6	28169
809.741	28173
809.883	28268
810.025	28508
810.166	28455
810.308	28512
810.45	28325
810.591	28238
810.733	27972
810.875	28139
811.016	27861
811.158	28070
811.299	28147
811.441	28310
811.582	28337
811.724	28063
811.865	28120
812.007	28169
812.148	27994
812.29	28253
812.431	28230
812.573	28329
812.714	28649
812.855	28599
812.997	28725
813.138	28797
813.279	28862
813.421	28721
813.562	28622
813.703	28527
813.845	28421
813.986	28090
814.127	27972
814.268	27789
814.41	27926
814.551	27682
814.692	27884
814.833	27755
814.974	27838
815.115	27823
815.256	27679
815.397	27564
815.539	27690
815.68	27622
815.821	27679
815.962	27644
816.103	27603
816.244	27397
816.385	27374
816.526	27268
816.666	27252
816.807	27119
816.948	27180
817.089	27127
817.23	27142
817.371	27096
817.512	27062
817.653	26982
817.793	27005
817.934	27157
818.075	27154
818.216	27032
818.356	26921
818.497	27024
818.638	26811
818.778	26876
818.919	26819
819.06	26792
819.2	27077
819.341	27062
819.481	27100
819.622	27397
819.762	27439
819.903	27249
820.043	27329
820.184	27119
820.324	27207
820.465	27298
820.605	27173
820.746	27161
820.886	27039
821.026	27192
821.167	27089
821.307	27214
821.447	27249
821.588	27047
821.728	26864
821.868	26724
822.008	26594
822.149	26427
822.289	26579
822.429	26358
822.569	26100
822.709	26195
822.849	26126
822.99	26039
823.13	25921
823.27	26096
823.41	25959
823.55	25913
823.69	25898
823.83	25970
823.97	25788
824.11	25693
824.25	25826
824.389	25586
824.529	25936
824.669	25700
824.809	25685
824.949	25852
825.089	25708
825.228	25940
825.368	25601
825.508	25499
825.648	25643
825.787	25700
825.927	25635
826.067	25525
826.206	25620
826.346	25571
826.485	25582
826.625	25685
826.765	25674
826.904	25715
827.044	25438
827.183	25384
827.323	25236
827.462	25217
827.601	25335
827.741	25285
827.88	25304
828.02	25266
828.159	25293
828.298	25285
828.437	25422
828.577	25221
828.716	25400
828.855	25023
828.994	25042
829.134	25050
829.273	25061
829.412	24962
829.551	24924
829.69	25088
829.829	24992
829.968	25023
830.107	24954
830.246	24970
830.385	24958
830.524	24878
830.663	24779
830.802	24817
830.941	24589
831.08	24582
831.219	24787
831.357	24757
831.496	25004
831.635	24661
831.774	24445
831.913	24498
832.051	24414
832.19	24433
832.329	24395
832.467	24327
832.606	24220
832.744	24289
832.883	24372
833.022	24125
833.16	24174
833.299	24365
833.437	24380
833.576	24357
833.714	24315
833.852	24422
833.991	24433
834.129	24483
834.267	24471
834.406	24266
834.544	24350
834.682	24327
834.821	24418
834.959	24540
835.097	24422
835.235	24483
835.373	24315
835.511	24300
835.65	24136
835.788	24247
835.926	24174
836.064	23935
836.202	24121
836.34	24167
836.478	24258
836.615	24289
836.753	24182
836.891	24243
837.029	24327
837.167	24079
837.305	24087
837.443	24110
837.58	24133
837.718	24102
837.856	24110
837.993	23992
838.131	24095
838.269	23969
838.406	23912
838.544	23988
838.681	23790
838.819	23467
838.956	23516
839.094	23520
839.231	23554
839.369	23600
839.506	23939
839.643	23802
839.781	23421
839.918	23509
840.055	23630
840.193	23383
840.33	23360
840.467	23474
840.604	23528
840.742	23661
840.879	23254
841.016	23318
841.153	23322
841.29	23471
841.427	23273
841.564	23417
841.701	23345
841.838	23433
841.975	23368
842.112	23315
842.249	23292
842.385	23094
842.522	23383
842.659	23254
842.796	23143
842.933	23064
843.069	23193
843.206	23090
843.343	23223
843.479	23242
843.616	23277
843.752	23086
843.889	22927
844.025	23128
844.162	22942
844.298	23109
844.435	23029
844.571	22965
844.708	23003
844.844	23098
844.98	23147
845.117	23113
845.253	22885
845.389	22824
845.525	22885
845.661	22809
845.798	22759
845.934	22896
846.07	22778
846.206	22774
846.342	22725
846.478	22653
846.614	22580
846.75	22348
846.886	22436
847.022	22535
847.158	22390
847.294	22466
847.429	22535
847.565	22371
847.701	22531
847.837	22280
847.972	22192
848.108	22451
848.244	22200
848.379	21998
848.515	21956
848.65	22010
848.786	22010
848.921	21930
849.057	22230
849.192	22078
849.328	22044
849.463	21808
849.598	21941
849.734	21789
849.869	21831
850.004	21728
850.14	21713
850.275	21819
850.41	21800
850.545	21713
850.68	21800
850.815	21770
850.95	21728
851.085	21873
851.22	21903
851.355	21831
851.49	21743
851.625	21778
851.76	21778
851.895	21717
852.03	21644
852.165	21816
852.299	21785
852.434	21884
852.569	21808
852.703	21781
852.838	21926
852.973	21880
853.107	21762
853.242	21709
853.376	21614
853.511	21481
853.645	21534
853.78	21599
853.914	21591
854.048	21549
854.183	21519
854.317	21603
854.451	21675
854.585	21667
854.72	21587
854.854	21629
854.988	21504
855.122	21614
855.256	21431
855.39	21568
855.524	21720
855.658	21671
855.792	21713
855.926	21583
856.06	21701
856.194	21679
856.327	21538
856.461	21603
856.595	21557
856.729	21561
856.862	21686
856.996	21667
857.13	21587
857.263	21766
857.397	21698
857.53	21549
857.664	21641
857.797	21564
857.931	21648
858.064	21473
858.197	21770
858.331	21587
858.464	21587
858.597	21458
858.731	21660
858.864	21557
858.997	21580
859.13	21599
859.263	21519
859.396	21652
859.529	21713
859.662	21534
859.795	21743
859.928	21644
860.061	21641
860.194	21755
860.327	21610
860.46	21568
860.592	21686
860.725	21759
860.858	21827
860.99	21580
861.123	21549
861.256	21545
861.388	21591
861.521	22249
861.653	21355
861.786	21405
861.918	21397
862.05	21618
862.183	21511
862.315	21591
862.447	21545
862.58	21511
862.712	21237
862.844	21279
862.976	21351
863.108	21485
863.24	21842
863.372	21264
863.504	21355
863.636	21268
863.768	21424
863.9	21287
864.032	21245
864.164	21214
864.296	21374
864.428	21382
864.559	21386
864.691	21321
864.823	21268
864.954	21218
865.086	21275
865.217	21169
865.349	21119
865.48	21146
865.612	21256
865.743	21275
865.875	21146
866.006	21180
866.137	21207
866.269	21116
866.4	21051
866.531	21123
866.662	21043
866.793	21135
866.924	21112
867.055	21176
867.186	21230
867.317	21074
867.448	20975
867.579	21085
867.71	21017
867.841	20948
867.972	21127
868.103	21150
868.233	21074
868.364	21131
868.495	21203
868.625	21363
868.756	21435
868.886	21241
869.017	21298
869.147	21428
869.278	21424
869.408	21439
869.539	21397
869.669	21443
869.799	21374
869.929	21382
870.06	21416
870.19	21629
870.32	21599
870.45	21652
870.58	21625
870.71	21937
870.84	21922
870.97	21846
871.1	21797
871.23	21968
871.36	21941
871.489	21838
871.619	21819
871.749	21972
871.879	22044
872.008	22128
872.138	21987
872.267	22010
872.397	21884
872.526	21781
872.656	21766
872.785	21972
872.915	21934
873.044	22086
873.173	22017
873.303	21956
873.432	22105
873.561	22116
873.69	21953
873.819	22006
873.948	22063
874.077	21987
874.206	21892
874.335	21911
874.464	22044
874.593	22242
874.722	22166
874.851	22101
874.979	22257
875.108	22101
875.237	22051
875.365	22188
875.494	22207
875.623	22192
875.751	22287
875.88	22223
876.008	22265
876.136	22413
876.265	22607
876.393	22748
876.521	22569
876.65	22683
876.778	22713
876.906	22550
877.034	22611
877.162	22451
877.29	22493
877.418	22561
877.546	22523
877.674	22382
877.802	22554
877.93	22554
878.058	22386
878.185	22390
878.313	22466
878.441	22436
878.568	22306
878.696	22474
878.824	22550
878.951	22554
879.079	22577
879.206	22835
879.333	22710
879.461	22569
879.588	22561
879.715	22793
879.842	22771
879.97	22542
880.097	22386
880.224	22318
880.351	22413
880.478	22382
880.605	22417
880.732	22299
880.859	22523
880.986	22379
881.112	22489
881.239	22299
881.366	22147
881.493	22109
881.619	21903
881.746	21960
881.872	21960
881.999	21838
882.125	21922
882.252	21960
882.378	21945
882.505	22021
882.631	21690
882.757	21652
882.883	21728
883.01	21599
883.136	21568
883.262	21549
883.388	21408
883.514	21583
883.64	21599
883.766	21496
883.892	21397
884.018	21408
884.143	21557
884.269	21622
884.395	21386
884.52	21268
884.646	21378
884.772	21154
884.897	21230
885.023	21252
885.148	21378
885.274	21431
885.399	21321
885.524	21252
885.65	21252
885.775	21389
885.9	21142
886.025	21344
886.15	21435
886.275	21207
886.4	21173
886.525	21321
886.65	21116
886.775	21199
886.9	21401
887.025	21378
887.149	21264
887.274	21085
887.399	21104
887.523	20960
887.648	21020
887.773	21005
887.897	21043
888.021	21009
888.146	21055
888.27	21100
888.395	21020
888.519	20994
888.643	20952
888.767	21070
888.891	20998
889.015	20777
889.139	20838
889.263	20796
889.387	20960
889.511	21009
889.635	20998
889.759	20845
889.883	20823
890.006	20880
890.13	20876
890.254	20811
890.377	20788
890.501	20560
890.624	20533
890.748	20674
890.871	20499
890.995	20419
891.118	20240
891.241	20358
891.364	20415
891.488	20507
891.611	20446
891.734	20389
891.857	20446
891.98	20499
892.103	20454
892.226	20385
892.349	20343
892.471	20180
892.594	20294
892.717	20298
892.839	20317
892.962	20237
893.085	20252
893.207	20290
893.33	20187
893.452	20195
893.575	20400
893.697	20202
893.819	20423
893.941	20480
894.064	20454
894.186	20248
894.308	20149
894.43	20347
894.552	20298
894.674	20362
894.796	20138
894.918	20229
895.04	20309
895.161	20320
895.283	20309
895.405	20214
895.526	20256
895.648	20332
895.769	20301
895.891	20324
896.012	20389
896.134	20259
896.255	20172
896.376	20237
896.498	20256
896.619	20362
896.74	20259
896.861	20256
896.982	20621
897.103	20705
897.224	20507
897.345	20583
897.466	20404
897.587	20427
897.708	20617
897.828	20571
897.949	20412
898.07	20248
898.19	20495
898.311	20644
898.431	20431
898.552	20533
898.672	20492
898.792	20522
898.913	20621
899.033	20244
899.153	20195
899.273	20187
899.393	20294
899.513	20358
899.633	20233
899.753	20286
899.873	20157
899.993	20415
900.113	20256
900.232	20271
900.352	20065
900.472	20065
900.591	20016
900.711	19997
900.83	19944
900.95	20081
901.069	20073
901.189	19913
901.308	19666
901.427	19666
901.546	19609
901.665	19544
901.784	19552
901.904	19426
902.023	19335
902.141	19133
902.26	19027
902.379	19076
902.498	19141
902.617	18985
902.735	19126
902.854	18970
902.973	19099
903.091	18798
903.21	18776
903.328	18688
903.446	18840
903.565	18650
903.683	18593
903.801	18506
903.919	18460
904.038	18441
904.156	18372
904.274	18376
904.392	18399
904.51	18369
904.627	18258
904.745	18350
904.863	18460
904.981	18117
905.098	17988
905.216	17958
905.334	18049
905.451	18159
905.569	18030
905.686	18095
905.803	17999
905.921	17828
906.038	17939
906.155	17843
906.272	17722
906.389	17672
906.506	17581
906.623	17520
906.74	17543
906.857	17429
906.974	17486
907.091	17535
907.208	17570
907.324	17642
907.441	17372
907.557	17280
907.674	17299
907.79	17113
907.907	17261
908.023	17356
908.139	17208
908.256	17124
908.372	17143
908.488	17216
908.604	17029
908.72	16957
908.836	17010
908.952	17022
909.068	17018
909.184	17071
909.3	16946
909.415	16923
909.531	16934
909.647	16793
909.762	16717
909.878	16691
909.993	16778
910.108	16717
910.224	16733
910.339	16679
910.454	16580
910.57	16440
910.685	16337
910.8	16774
910.915	16672
911.03	16485
911.145	16337
911.259	16230
911.374	16272
911.489	16124
911.604	16120
911.718	16044
911.833	16105
911.947	15880
912.062	15800
912.176	16025
912.291	16006
912.405	16010
912.519	16230
912.633	16200
912.748	16071
912.862	15998
912.976	15953
913.09	15800
913.204	15804
913.318	15831
913.431	15907
913.545	15918
913.659	15979
913.772	15762
913.886	15663
914	15720
914.113	15660
914.226	15686
914.34	15778
914.453	15488
914.566	15618
914.68	15496
914.793	15454
914.906	15389
915.019	15283
915.132	15264
915.245	15291
915.358	15180
915.47	15135
915.583	15268
915.696	15252
915.809	15287
915.921	15378
916.034	15154
916.146	15085
916.259	15089
916.371	15195
916.483	15233
916.595	15093
916.708	14998
916.82	15062
916.932	15013
917.044	15020
917.156	14971
917.268	14826
917.38	14960
917.491	14788
917.603	14849
917.715	14921
917.826	15043
917.938	14765
918.049	14731
918.161	14868
918.272	14948
918.384	14891
918.495	14857
918.606	14689
918.717	14564
918.828	14716
918.939	14670
919.05	14484
919.161	14552
919.272	14431
919.383	14473
919.494	14758
919.604	14762
919.715	14693
919.826	14552
919.936	14568
920.047	14727
920.157	14651
920.267	14804
920.378	14644
920.488	14594
920.598	14758
920.708	14899
920.818	14731
920.928	14720
921.038	14906
921.148	14800
921.258	14651
921.368	14545
921.477	14427
921.587	14355
921.697	14225
921.806	14412
921.916	14305
922.025	14065
922.134	14111
922.244	13909
922.353	14039
922.462	13947
922.571	13814
922.68	13746
922.789	13662
922.898	13685
923.007	13567
923.116	13723
923.224	13616
923.333	13632
923.442	13548
923.55	13540
923.659	13377
923.767	13636
923.876	13495
923.984	13521
924.092	13316
924.201	13434
924.309	13335
924.417	13480
924.525	13331
924.633	13308
924.741	14096
924.849	13126
924.956	13259
925.064	13179
925.172	13038
925.279	13141
925.387	13069
925.494	13099
925.602	13145
925.709	13103
925.816	13012
925.924	13004
926.031	13179
926.138	12989
926.245	12996
926.352	12920
926.459	13031
926.566	13038
926.673	12924
926.779	12943
926.886	12760
926.993	12673
927.099	12620
927.206	12593
927.312	12597
927.419	12623
927.525	12544
927.631	12635
927.737	12494
927.843	12471
927.95	12353
928.056	12456
928.162	12429
928.267	12563
928.373	13072
928.479	12517
928.585	12296
928.69	12365
928.796	12338
928.901	12327
929.007	12175
929.112	12323
929.218	12289
929.323	12194
929.428	12140
929.533	12262
929.638	12076
929.743	12041
929.848	12140
929.953	12068
930.058	12068
930.163	11927
930.267	11760
930.372	12019
930.477	11824
930.581	12133
930.685	11939
930.79	11726
930.894	11710
930.998	11817
931.103	11859
931.207	11463
931.311	11452
931.415	11322
931.519	11147
931.623	11178
