Data from test_V78500241_9.txt Node
Date: Fri Mar 25 15:09:55 CST 2022
User: usil
Spectrometer: V785-0024
Trigger mode: 0
Integration Time (sec): 4.000000E-1
Scans to average: 1
Nonlinearity correction enabled: false
Boxcar width: 0
Storing dark spectrum: false
XAxis mode: Wavelengths
Number of Pixels in Spectrum: 1024
>>>>>Begin Spectral Data<<<<<
801.071	27637
801.214	27629
801.356	27367
801.499	27203
801.641	27180
801.783	26937
801.926	27077
802.068	26986
802.211	26944
802.353	26845
802.496	26571
802.638	26667
802.78	26606
802.923	26606
803.065	26469
803.208	26533
803.35	26514
803.492	26609
803.635	26613
803.777	26674
803.919	26659
804.061	27131
804.204	26743
804.346	26533
804.488	26522
804.63	26625
804.773	26377
804.915	26804
805.057	26621
805.199	26549
805.341	26602
805.483	26693
805.626	26689
805.768	26602
805.91	26693
806.052	26743
806.194	26594
806.336	26788
806.478	26788
806.62	26655
806.762	26773
806.904	26686
807.046	27154
807.188	26960
807.33	26990
807.472	27127
807.614	26899
807.756	26940
807.898	26800
808.04	26750
808.182	26590
808.324	26811
808.465	26792
808.607	26948
808.749	26971
808.891	27131
809.033	27184
809.174	27138
809.316	27070
809.458	27112
809.6	27013
809.741	27272
809.883	27169
810.025	27214
810.166	27279
810.308	27401
810.45	27321
810.591	27268
810.733	26925
810.875	26975
811.016	26788
811.158	26826
811.299	27093
811.441	27252
811.582	27119
811.724	27085
811.865	26933
812.007	26925
812.148	26804
812.29	27066
812.431	27218
812.573	27169
812.714	27344
812.855	27492
812.997	27473
813.138	27633
813.279	27519
813.421	27454
813.562	27351
813.703	27252
813.845	27249
813.986	26773
814.127	26587
814.268	26457
814.41	26514
814.551	26579
814.692	26609
814.833	26434
814.974	26355
815.115	26499
815.256	26484
815.397	26347
815.539	26393
815.68	26206
815.821	26103
815.962	26298
816.103	26183
816.244	26043
816.385	25986
816.526	25852
816.666	25803
816.807	25681
816.948	25681
817.089	25791
817.23	25601
817.371	25590
817.512	25681
817.653	25594
817.793	25605
817.934	25594
818.075	25529
818.216	25578
818.356	25628
818.497	25422
818.638	25187
818.778	25221
818.919	25236
819.06	25312
819.2	25449
819.341	25445
819.481	25525
819.622	25662
819.762	25841
819.903	25788
820.043	25700
820.184	25677
820.324	25506
820.465	25601
820.605	25666
820.746	25548
820.886	25339
821.026	25411
821.167	25464
821.307	25590
821.447	25502
821.588	25411
821.728	25407
821.868	25072
822.008	24920
822.149	24859
822.289	24871
822.429	24612
822.569	24517
822.709	24578
822.849	24346
822.99	24388
823.13	24384
823.27	24292
823.41	24186
823.55	24144
823.69	24102
823.83	24182
823.97	24163
824.11	23855
824.25	23821
824.389	23984
824.529	23950
824.669	23904
824.809	24072
824.949	24007
825.089	24026
825.228	23965
825.368	23707
825.508	23726
825.648	23794
825.787	23756
825.927	23676
826.067	23707
826.206	23779
826.346	23767
826.485	23729
826.625	23687
826.765	23916
826.904	23779
827.044	23345
827.183	23463
827.323	23315
827.462	23474
827.601	23360
827.741	23345
827.88	23463
828.02	23239
828.159	23379
828.298	23376
828.437	23341
828.577	23372
828.716	23436
828.855	23296
828.994	23105
829.134	23048
829.273	23067
829.412	22980
829.551	23098
829.69	23079
829.829	23014
829.968	23006
830.107	23132
830.246	23025
830.385	22938
830.524	22778
830.663	22847
830.802	22740
830.941	22607
831.08	22656
831.219	22691
831.357	22672
831.496	22698
831.635	22615
831.774	22371
831.913	22440
832.051	22200
832.19	22428
832.329	22318
832.467	22169
832.606	22112
832.744	22158
832.883	22261
833.022	22242
833.16	22093
833.299	22299
833.437	22135
833.576	22238
833.714	22272
833.852	22291
833.991	22188
834.129	22333
834.267	22303
834.406	22295
834.544	22348
834.682	22162
834.821	22063
834.959	22322
835.097	22238
835.235	22234
835.373	22162
835.511	22101
835.65	22078
835.788	22090
835.926	21899
836.064	21827
836.202	21922
836.34	22063
836.478	22067
836.615	21945
836.753	21968
836.891	22029
837.029	21903
837.167	21975
837.305	22055
837.443	21918
837.58	21857
837.718	22093
837.856	21953
837.993	21911
838.131	21876
838.269	21816
838.406	21785
838.544	21622
838.681	21515
838.819	21466
838.956	21317
839.094	21325
839.231	21329
839.369	21504
839.506	21690
839.643	21641
839.781	21317
839.918	21173
840.055	21332
840.193	21260
840.33	21264
840.467	21142
840.604	21237
840.742	21515
840.879	21028
841.016	21150
841.153	21055
841.29	21287
841.427	21287
841.564	21199
841.701	21070
841.838	21070
841.975	20990
842.112	21017
842.249	20971
842.385	20910
842.522	21104
842.659	20925
842.796	20868
842.933	20838
843.069	20872
843.206	20819
843.343	20963
843.479	20857
843.616	20883
843.752	20705
843.889	20670
844.025	20849
844.162	20629
844.298	20781
844.435	20571
844.571	20606
844.708	20686
844.844	20781
844.98	20853
845.117	20785
845.253	20606
845.389	20476
845.525	20530
845.661	20476
845.798	20286
845.934	20442
846.07	20301
846.206	20404
846.342	20583
846.478	20412
846.614	20206
846.75	20084
846.886	20119
847.022	20202
847.158	19993
847.294	20088
847.429	20153
847.565	20073
847.701	20347
847.837	19982
847.972	19738
848.108	19928
848.244	19830
848.379	19693
848.515	19468
848.65	19670
848.786	19632
848.921	19727
849.057	19818
849.192	19712
849.328	19696
849.463	19616
849.598	19548
849.734	19415
849.869	19559
850.004	19377
850.14	19453
850.275	19369
850.41	19362
850.545	19350
850.68	19327
850.815	19388
850.95	19320
851.085	19586
851.22	19582
851.355	19453
851.49	19297
851.625	19247
851.76	19285
851.895	19285
852.03	19289
852.165	19339
852.299	19430
852.434	19441
852.569	19384
852.703	19369
852.838	19270
852.973	19331
853.107	19457
853.242	19316
853.376	19289
853.511	19084
853.645	19057
853.78	19331
853.914	19206
854.048	19206
854.183	19221
854.317	19145
854.451	19358
854.585	19137
854.72	19137
854.854	19289
854.988	19221
855.122	19046
855.256	19141
855.39	19171
855.524	19179
855.658	19179
855.792	19179
855.926	19175
856.06	19255
856.194	19263
856.327	19194
856.461	19084
856.595	19129
856.729	19129
856.862	19324
856.996	19187
857.13	19308
857.263	19187
857.397	19152
857.53	19012
857.664	19164
857.797	19175
857.931	19247
858.064	19152
858.197	19209
858.331	19152
858.464	19091
858.597	18985
858.731	19069
858.864	19122
858.997	19069
859.13	19126
859.263	19099
859.396	19225
859.529	19000
859.662	18993
859.795	19084
859.928	19168
860.061	19320
860.194	19263
860.327	19099
860.46	18973
860.592	19107
860.725	19236
860.858	19198
860.99	19069
861.123	18989
861.256	18973
861.388	19171
861.521	19605
861.653	19004
861.786	18894
861.918	18962
862.05	19110
862.183	19057
862.315	19213
862.447	19168
862.58	19122
862.712	18871
862.844	18894
862.976	18962
863.108	18935
863.24	19282
863.372	18753
863.504	18776
863.636	18856
863.768	18810
863.9	18897
864.032	18738
864.164	18700
864.296	18768
864.428	18867
864.559	18859
864.691	18863
864.823	18741
864.954	18760
865.086	18795
865.217	18692
865.349	18635
865.48	18669
865.612	18631
865.743	18894
865.875	18772
866.006	18700
866.137	18703
866.269	18719
866.4	18753
866.531	18703
866.662	18490
866.793	18677
866.924	18646
867.055	18700
867.186	18688
867.317	18604
867.448	18703
867.579	18639
867.71	18608
867.841	18696
867.972	18639
868.103	18654
868.233	18688
868.364	18684
868.495	18745
868.625	18798
868.756	18962
868.886	18791
869.017	18795
869.147	18935
869.278	18947
869.408	18920
869.539	18867
869.669	18966
869.799	18837
869.929	19012
870.06	19042
870.19	19148
870.32	19190
870.45	19240
870.58	19285
870.71	19289
870.84	19377
870.97	19282
871.1	19217
871.23	19396
871.36	19487
871.489	19354
871.619	19320
871.749	19460
871.879	19578
872.008	19521
872.138	19514
872.267	19457
872.397	19365
872.526	19194
872.656	19289
872.785	19384
872.915	19499
873.044	19594
873.173	19422
873.303	19624
873.432	19521
873.561	19537
873.69	19590
873.819	19445
873.948	19575
874.077	19525
874.206	19556
874.335	19419
874.464	19719
874.593	19826
874.722	19689
874.851	19772
874.979	19788
875.108	19856
875.237	19757
875.365	19769
875.494	19791
875.623	19841
875.751	19742
875.88	19799
876.008	19955
876.136	20020
876.265	20149
876.393	20324
876.521	20172
876.65	20301
876.778	20176
876.906	20077
877.034	20149
877.162	20142
877.29	20111
877.418	20058
877.546	20142
877.674	20187
877.802	20130
877.93	20111
878.058	20119
878.185	20043
878.313	20134
878.441	20199
878.568	19913
878.696	20183
878.824	20168
878.951	20134
879.079	20263
879.206	20419
879.333	20339
879.461	20164
879.588	20263
879.715	20256
879.842	20408
879.97	20244
880.097	19898
880.224	20027
880.351	19909
880.478	19978
880.605	19875
880.732	19887
880.859	20149
880.986	20035
881.112	20024
881.239	19871
881.366	19765
881.493	19742
881.619	19563
881.746	19563
881.872	19514
881.999	19495
882.125	19491
882.252	19613
882.378	19575
882.505	19803
882.631	19426
882.757	19350
882.883	19518
883.01	19377
883.136	19369
883.262	19198
883.388	19160
883.514	19354
883.64	19324
883.766	19362
883.892	19084
884.018	19160
884.143	19251
884.269	19419
884.395	19076
884.52	19027
884.646	19133
884.772	18973
884.897	18833
885.023	18981
885.148	19057
885.274	19194
885.399	19080
885.524	18935
885.65	19065
885.775	18935
885.9	18939
886.025	19095
886.15	19046
886.275	18939
886.4	18814
886.525	19023
886.65	18932
886.775	18951
886.9	19122
887.025	19209
887.149	18993
887.274	18920
887.399	18646
887.523	18825
887.648	18688
887.773	18688
887.897	18840
888.021	18909
888.146	18631
888.27	18798
888.395	18798
888.519	18806
888.643	18779
888.767	18894
888.891	18654
889.015	18460
889.139	18601
889.263	18578
889.387	18715
889.511	18700
889.635	18738
889.759	18635
889.883	18536
890.006	18585
890.13	18616
890.254	18433
890.377	18403
890.501	18285
890.624	18235
890.748	18395
890.871	18220
890.995	18114
891.118	18209
891.241	18091
891.364	18148
891.488	18346
891.611	18155
891.734	18163
891.857	18308
891.98	18178
892.103	18410
892.226	18117
892.349	18117
892.471	18110
892.594	18117
892.717	18106
892.839	18201
892.962	18232
893.085	18133
893.207	18178
893.33	17927
893.452	18098
893.575	18190
893.697	18068
893.819	18091
893.941	18247
894.064	18205
894.186	18011
894.308	18049
894.43	18194
894.552	18289
894.674	18209
894.796	17954
894.918	18163
895.04	18129
895.161	18251
895.283	18239
895.405	18129
895.526	18034
895.648	18136
895.769	18117
895.891	18201
896.012	18121
896.134	18270
896.255	18182
896.376	18140
896.498	18232
896.619	18254
896.74	18372
896.861	18308
896.982	18574
897.103	18722
897.224	18513
897.345	18521
897.466	18445
897.587	18414
897.708	18658
897.828	18563
897.949	18376
898.07	18304
898.19	18456
898.311	18551
898.431	18327
898.552	18426
898.672	18525
898.792	18479
898.913	18395
899.033	18330
899.153	18258
899.273	18216
899.393	18114
899.513	18201
899.633	18163
899.753	18190
899.873	18167
899.993	18186
900.113	18019
900.232	18121
900.352	18117
900.472	18015
900.591	17908
900.711	17931
900.83	17893
900.95	18083
901.069	18110
901.189	17954
901.308	17653
901.427	17512
901.546	17592
901.665	17600
901.784	17630
901.904	17383
902.023	17414
902.141	17178
902.26	17216
902.379	17193
902.498	17162
902.617	17033
902.735	17124
902.854	17079
902.973	16949
903.091	16782
903.21	16782
903.328	16809
903.446	16664
903.565	16611
903.683	16554
903.801	16474
903.919	16584
904.038	16622
904.156	16367
904.274	16493
904.392	16421
904.51	16356
904.627	16371
904.745	16497
904.863	16481
904.981	16230
905.098	16059
905.216	16013
905.334	16105
905.451	16048
905.569	15979
905.686	16109
905.803	16120
905.921	15930
906.038	16021
906.155	15915
906.272	15747
906.389	15690
906.506	15614
906.623	15561
906.74	15606
906.857	15572
906.974	15526
907.091	15751
907.208	15584
907.324	15633
907.441	15412
907.557	15370
907.674	15344
907.79	15348
907.907	15199
908.023	15370
908.139	15321
908.256	15294
908.372	15173
908.488	15161
908.604	15055
908.72	14982
908.836	15017
908.952	14967
909.068	15077
909.184	15062
909.3	15036
909.415	14990
909.531	15001
909.647	14682
909.762	14724
909.878	14693
909.993	14686
910.108	14697
910.224	14682
910.339	14651
910.454	14594
910.57	14564
910.685	14377
910.8	14777
910.915	14670
911.03	14568
911.145	14343
911.259	14313
911.374	14313
911.489	14225
911.604	14103
911.718	14134
911.833	14092
911.947	14016
912.062	13849
912.176	13974
912.291	14092
912.405	14016
912.519	14263
912.633	14256
912.748	14180
912.862	14050
912.976	13947
913.09	13849
913.204	13875
913.318	13795
913.431	13909
913.545	14043
913.659	13970
913.772	13837
913.886	13685
914	13712
914.113	13871
914.226	13947
914.34	13841
914.453	13643
914.566	13833
914.68	13605
914.793	13693
914.906	13453
915.019	13400
915.132	13358
915.245	13415
915.358	13430
915.47	13441
915.583	13457
915.696	13449
915.809	13529
915.921	13670
916.034	13384
916.146	13362
916.259	13293
916.371	13407
916.483	13320
916.595	13255
916.708	13331
916.82	13289
916.932	13259
917.044	13175
917.156	13194
917.268	13065
917.38	13088
917.491	13053
917.603	13069
917.715	13217
917.826	13297
917.938	13031
918.049	12947
918.161	13099
918.272	13274
918.384	13175
918.495	13099
918.606	12939
918.717	12970
918.828	12935
918.939	13004
919.05	12810
919.161	12871
919.272	12669
919.383	12791
919.494	12958
919.604	13099
919.715	12859
919.826	12753
919.936	12837
920.047	13019
920.157	12886
920.267	12954
920.378	12939
920.488	12890
920.598	13114
920.708	13114
920.818	13046
920.928	13038
921.038	13168
921.148	13061
921.258	12859
921.368	12768
921.477	12642
921.587	12604
921.697	12471
921.806	12684
921.916	12540
922.025	12346
922.134	12270
922.244	12319
922.353	12285
922.462	12228
922.571	12140
922.68	11961
922.789	11958
922.898	11927
923.007	11874
923.116	11988
923.224	11965
923.333	11874
923.442	11760
923.55	11775
923.659	11798
923.767	11851
923.876	11737
923.984	11840
924.092	11684
924.201	11707
924.309	11726
924.417	11695
924.525	11630
924.633	11707
924.741	12532
924.849	11440
924.956	11535
925.064	11455
925.172	11471
925.279	11398
925.387	11493
925.494	11474
925.602	11562
925.709	11497
925.816	11440
925.924	11364
926.031	11520
926.138	11406
926.245	11376
926.352	11383
926.459	11421
926.566	11493
926.673	11356
926.779	11170
926.886	11227
926.993	11056
927.099	11052
927.206	11086
927.312	11010
927.419	11094
927.525	11056
927.631	11136
927.737	10957
927.843	10896
927.95	10809
928.056	10927
928.162	10873
928.267	11018
928.373	11528
928.479	11128
928.585	10805
928.69	10881
928.796	10900
928.901	10805
929.007	10634
929.112	10850
929.218	10694
929.323	10675
929.428	10683
929.533	10759
929.638	10668
929.743	10611
929.848	10664
929.953	10603
930.058	10550
930.163	10405
930.267	10455
930.372	10531
930.477	10363
930.581	10558
930.685	10470
930.79	10348
930.894	10268
930.998	10200
931.103	10367
931.207	10059
931.311	10006
931.415	9930
931.519	9724
931.623	9618
