Data from test_V78500241_3269.txt Node
Date: Fri Mar 25 15:32:37 CST 2022
User: usil
Spectrometer: V785-0024
Trigger mode: 0
Integration Time (sec): 4.000000E-1
Scans to average: 1
Nonlinearity correction enabled: false
Boxcar width: 0
Storing dark spectrum: false
XAxis mode: Wavelengths
Number of Pixels in Spectrum: 1024
>>>>>Begin Spectral Data<<<<<
801.071	27233
801.214	27382
801.356	27104
801.499	26937
801.641	26796
801.783	26902
801.926	26940
802.068	26906
802.211	26781
802.353	26853
802.496	26480
802.638	26453
802.78	26400
802.923	26400
803.065	26453
803.208	26400
803.35	26412
803.492	26598
803.635	26701
803.777	26708
803.919	26670
804.061	26963
804.204	26739
804.346	26507
804.488	26564
804.63	26693
804.773	26461
804.915	26678
805.057	26857
805.199	26693
805.341	26663
805.483	26800
805.626	26785
805.768	26613
805.91	26750
806.052	26724
806.194	26727
806.336	26948
806.478	26705
806.62	26804
806.762	26830
806.904	26971
807.046	27226
807.188	27062
807.33	27287
807.472	27142
807.614	27176
807.756	27039
807.898	27066
808.04	26800
808.182	26910
808.324	26948
808.465	26899
808.607	27188
808.749	27211
808.891	27397
809.033	27427
809.174	27424
809.316	27218
809.458	27351
809.6	27466
809.741	27405
809.883	27408
810.025	27641
810.166	27625
810.308	27823
810.45	27595
810.591	27625
810.733	27534
810.875	27344
811.016	27260
811.158	27249
811.299	27348
811.441	27542
811.582	27424
811.724	27405
811.865	27389
812.007	27291
812.148	27412
812.29	27348
812.431	27545
812.573	27614
812.714	27778
812.855	27907
812.997	27865
813.138	28067
813.279	27873
813.421	27865
813.562	27854
813.703	27713
813.845	27603
813.986	27310
814.127	27218
814.268	27028
814.41	27070
814.551	26979
814.692	27100
814.833	27020
814.974	26975
815.115	27047
815.256	26826
815.397	26967
815.539	26712
815.68	26880
815.821	26670
815.962	26796
816.103	26769
816.244	26670
816.385	26568
816.526	26530
816.666	26446
816.807	26183
816.948	26206
817.089	26370
817.23	26294
817.371	26358
817.512	26305
817.653	26134
817.793	26206
817.934	26103
818.075	26298
818.216	26343
818.356	26218
818.497	26100
818.638	26001
818.778	26035
818.919	26073
819.06	26138
819.2	26172
819.341	26263
819.481	26161
819.622	26427
819.762	26606
819.903	26598
820.043	26332
820.184	26290
820.324	26366
820.465	26393
820.605	26324
820.746	26324
820.886	26157
821.026	26366
821.167	26328
821.307	26339
821.447	26202
821.588	26107
821.728	26115
821.868	25936
822.008	25837
822.149	25628
822.289	25753
822.429	25491
822.569	25426
822.709	25430
822.849	25263
822.99	25472
823.13	25148
823.27	25236
823.41	25042
823.55	24962
823.69	25126
823.83	25129
823.97	24966
824.11	24776
824.25	24654
824.389	24859
824.529	25015
824.669	24989
824.809	25019
824.949	24913
825.089	24715
825.228	24905
825.368	24757
825.508	24635
825.648	24909
825.787	24821
825.927	24764
826.067	24711
826.206	24798
826.346	24749
826.485	24882
826.625	24707
826.765	24909
826.904	24871
827.044	24551
827.183	24464
827.323	24433
827.462	24479
827.601	24521
827.741	24448
827.88	24437
828.02	24452
828.159	24407
828.298	24338
828.437	24601
828.577	24452
828.716	24471
828.855	24308
828.994	24209
829.134	24205
829.273	24247
829.412	24091
829.551	24174
829.69	24087
829.829	24140
829.968	24319
830.107	24334
830.246	24270
830.385	24110
830.524	24045
830.663	23965
830.802	24022
830.941	23805
831.08	23859
831.219	23851
831.357	23946
831.496	23961
831.635	23756
831.774	23760
831.913	23600
832.051	23592
832.19	23562
832.329	23551
832.467	23551
832.606	23395
832.744	23539
832.883	23429
833.022	23429
833.16	23448
833.299	23497
833.437	23459
833.576	23520
833.714	23611
833.852	23630
833.991	23554
834.129	23581
834.267	23573
834.406	23497
834.544	23535
834.682	23562
834.821	23619
834.959	23577
835.097	23482
835.235	23554
835.373	23520
835.511	23535
835.65	23395
835.788	23383
835.926	23345
836.064	23189
836.202	23181
836.34	23436
836.478	23512
836.615	23322
836.753	23417
836.891	23471
837.029	23376
837.167	23277
837.305	23307
837.443	23197
837.58	23277
837.718	23284
837.856	23212
837.993	23189
838.131	23296
838.269	23208
838.406	23159
838.544	22999
838.681	22896
838.819	22809
838.956	22679
839.094	22698
839.231	22847
839.369	22953
839.506	23121
839.643	23052
839.781	22835
839.918	22767
840.055	22835
840.193	22679
840.33	22637
840.467	22679
840.604	22687
840.742	22885
840.879	22668
841.016	22679
841.153	22535
841.29	22744
841.427	22698
841.564	22759
841.701	22717
841.838	22645
841.975	22607
842.112	22691
842.249	22565
842.385	22428
842.522	22596
842.659	22459
842.796	22478
842.933	22356
843.069	22314
843.206	22204
843.343	22428
843.479	22436
843.616	22489
843.752	22215
843.889	22360
844.025	22398
844.162	22211
844.298	22268
844.435	22166
844.571	22185
844.708	22280
844.844	22371
844.98	22310
845.117	22196
845.253	22143
845.389	22002
845.525	22025
845.661	21983
845.798	21945
845.934	22067
846.07	21724
846.206	21968
846.342	22021
846.478	21846
846.614	21728
846.75	21587
846.886	21644
847.022	21694
847.158	21789
847.294	21618
847.429	21774
847.565	21660
847.701	21892
847.837	21420
847.972	21431
848.108	21485
848.244	21454
848.379	21260
848.515	21268
848.65	21195
848.786	21184
848.921	21272
849.057	21397
849.192	21424
849.328	21401
849.463	21241
849.598	21146
849.734	21169
849.869	21093
850.004	20998
850.14	21005
850.275	21043
850.41	20929
850.545	20986
850.68	21070
850.815	20906
850.95	20921
851.085	21150
851.22	21116
851.355	21028
851.49	20982
851.625	20986
851.76	20963
851.895	20929
852.03	20956
852.165	21047
852.299	20986
852.434	21135
852.569	21154
852.703	21020
852.838	21112
852.973	21150
853.107	21093
853.242	21028
853.376	20781
853.511	20754
853.645	20845
853.78	20929
853.914	20952
854.048	20807
854.183	20857
854.317	20819
854.451	20899
854.585	20838
854.72	20857
854.854	21100
854.988	20796
855.122	20853
855.256	20762
855.39	20967
855.524	20952
855.658	20811
855.792	20849
855.926	20838
856.06	20979
856.194	20811
856.327	20773
856.461	20762
856.595	20838
856.729	20857
856.862	20902
856.996	20788
857.13	20960
857.263	20914
857.397	20872
857.53	20815
857.664	20880
857.797	20952
857.931	20902
858.064	20956
858.197	21013
858.331	20944
858.464	20765
858.597	20765
858.731	20777
858.864	20838
858.997	20731
859.13	20895
859.263	20777
859.396	20925
859.529	20849
859.662	20712
859.795	20739
859.928	20914
860.061	21058
860.194	21096
860.327	20861
860.46	20918
860.592	21009
860.725	20906
860.858	20914
860.99	20971
861.123	20727
861.256	20762
861.388	20963
861.521	21393
861.653	20716
861.786	20587
861.918	20811
862.05	20705
862.183	20712
862.315	20800
862.447	20849
862.58	20811
862.712	20549
862.844	20556
862.976	20720
863.108	20697
863.24	21119
863.372	20469
863.504	20617
863.636	20511
863.768	20526
863.9	20495
864.032	20545
864.164	20545
864.296	20712
864.428	20697
864.559	20651
864.691	20640
864.823	20480
864.954	20526
865.086	20564
865.217	20560
865.349	20461
865.48	20503
865.612	20518
865.743	20625
865.875	20526
866.006	20377
866.137	20450
866.269	20469
866.4	20423
866.531	20313
866.662	20271
866.793	20366
866.924	20457
867.055	20408
867.186	20484
867.317	20259
867.448	20240
867.579	20343
867.71	20317
867.841	20343
867.972	20366
868.103	20450
868.233	20370
868.364	20454
868.495	20579
868.625	20667
868.756	20667
868.886	20587
869.017	20705
869.147	20743
869.278	20743
869.408	20636
869.539	20636
869.669	20644
869.799	20731
869.929	20887
870.06	20864
870.19	20902
870.32	20921
870.45	21062
870.58	21039
870.71	21241
870.84	21020
870.97	21123
871.1	20967
871.23	21222
871.36	21249
871.489	21131
871.619	21268
871.749	21207
871.879	21214
872.008	21272
872.138	21264
872.267	21268
872.397	21279
872.526	21070
872.656	21055
872.785	21085
872.915	21260
873.044	21367
873.173	21199
873.303	21355
873.432	21348
873.561	21397
873.69	21214
873.819	21230
873.948	21268
874.077	21252
874.206	21218
874.335	21268
874.464	21416
874.593	21511
874.722	21386
874.851	21439
874.979	21557
875.108	21641
875.237	21462
875.365	21424
875.494	21412
875.623	21583
875.751	21603
875.88	21538
876.008	21614
876.136	21682
876.265	21884
876.393	22131
876.521	22013
876.65	21968
876.778	21873
876.906	21956
877.034	21778
877.162	21926
877.29	21975
877.418	21831
877.546	21892
877.674	21816
877.802	21785
877.93	21892
878.058	21759
878.185	21701
878.313	21762
878.441	21876
878.568	21835
878.696	21835
878.824	21903
878.951	21960
879.079	21964
879.206	22154
879.333	21956
879.461	21888
879.588	21907
879.715	21998
879.842	22196
879.97	21934
880.097	21614
880.224	21720
880.351	21690
880.478	21614
880.605	21686
880.732	21739
880.859	22017
880.986	21618
881.112	21549
881.239	21557
881.366	21447
881.493	21462
881.619	21306
881.746	21291
881.872	21287
881.999	21306
882.125	21195
882.252	21222
882.378	21199
882.505	21287
882.631	21081
882.757	20929
882.883	21036
883.01	20800
883.136	20925
883.262	20796
883.388	20781
883.514	20933
883.64	20948
883.766	20868
883.892	20762
884.018	20857
884.143	20914
884.269	20921
884.395	20693
884.52	20625
884.646	20689
884.772	20560
884.897	20590
885.023	20678
885.148	20845
885.274	20629
885.399	20682
885.524	20606
885.65	20716
885.775	20651
885.9	20556
886.025	20663
886.15	20568
886.275	20571
886.4	20473
886.525	20549
886.65	20446
886.775	20438
886.9	20571
887.025	20811
887.149	20583
887.274	20412
887.399	20282
887.523	20400
887.648	20377
887.773	20229
887.897	20431
888.021	20263
888.146	20336
888.27	20431
888.395	20434
888.519	20446
888.643	20442
888.767	20495
888.891	20374
889.015	20153
889.139	20248
889.263	20187
889.387	20248
889.511	20396
889.635	20248
889.759	20172
889.883	20134
890.006	20199
890.13	20218
890.254	20077
890.377	20180
890.501	19845
890.624	19936
890.748	19967
890.871	19875
890.995	19761
891.118	19788
891.241	19799
891.364	19719
891.488	19986
891.611	19894
891.734	19765
891.857	19765
891.98	19803
892.103	19769
892.226	19841
892.349	19712
892.471	19495
892.594	19811
892.717	19723
892.839	19639
892.962	19624
893.085	19727
893.207	19708
893.33	19613
893.452	19700
893.575	19628
893.697	19670
893.819	19807
893.941	19845
894.064	19818
894.186	19620
894.308	19616
894.43	19723
894.552	19772
894.674	19651
894.796	19624
894.918	19693
895.04	19571
895.161	19712
895.283	19788
895.405	19712
895.526	19704
895.648	19674
895.769	19719
895.891	19727
896.012	19742
896.134	19742
896.255	19616
896.376	19681
896.498	19635
896.619	19791
896.74	19693
896.861	19731
896.982	20039
897.103	20138
897.224	20008
897.345	19856
897.466	19849
897.587	19849
897.708	20039
897.828	20008
897.949	19753
898.07	19757
898.19	19890
898.311	20027
898.431	19830
898.552	19917
898.672	20008
898.792	19913
898.913	19928
899.033	19788
899.153	19677
899.273	19567
899.393	19556
899.513	19613
899.633	19670
899.753	19696
899.873	19670
899.993	19693
900.113	19616
900.232	19601
900.352	19666
900.472	19419
900.591	19434
900.711	19445
900.83	19346
900.95	19571
901.069	19499
901.189	19244
901.308	19091
901.427	18878
901.546	19069
901.665	19080
901.784	19004
901.904	18989
902.023	18772
902.141	18654
902.26	18658
902.379	18608
902.498	18486
902.617	18426
902.735	18661
902.854	18513
902.973	18452
903.091	18197
903.21	18311
903.328	18182
903.446	18072
903.565	18045
903.683	18110
903.801	18030
903.919	18087
904.038	18015
904.156	17828
904.274	17927
904.392	17813
904.51	17805
904.627	17866
904.745	17824
904.863	17901
904.981	17684
905.098	17455
905.216	17440
905.334	17535
905.451	17493
905.569	17417
905.686	17524
905.803	17417
905.921	17326
906.038	17364
906.155	17307
906.272	17143
906.389	17299
906.506	17022
906.623	17041
906.74	17003
906.857	16934
906.974	16953
907.091	16923
907.208	17155
907.324	16984
907.441	16858
907.557	16763
907.674	16637
907.79	16801
907.907	16729
908.023	16645
908.139	16736
908.256	16744
908.372	16645
908.488	16599
908.604	16485
908.72	16485
908.836	16367
908.952	16451
909.068	16474
909.184	16535
909.3	16424
909.415	16436
909.531	16523
909.647	16158
909.762	16192
909.878	16177
909.993	16177
910.108	16025
910.224	16082
910.339	16162
910.454	16010
910.57	15979
910.685	15945
910.8	16223
910.915	16154
911.03	15915
911.145	15789
911.259	15907
911.374	15717
911.489	15663
911.604	15591
911.718	15469
911.833	15568
911.947	15443
912.062	15397
912.176	15648
912.291	15526
912.405	15447
912.519	15694
912.633	15709
912.748	15572
912.862	15515
912.976	15363
913.09	15294
913.204	15313
913.318	15329
913.431	15428
913.545	15325
913.659	15416
913.772	15397
913.886	15146
914	15131
914.113	15192
914.226	15264
914.34	15199
914.453	14948
914.566	15169
914.68	15032
914.793	14902
914.906	14807
915.019	14724
915.132	14625
915.245	14682
915.358	14845
915.47	14796
915.583	14720
915.696	14765
915.809	14842
915.921	14876
916.034	14765
916.146	14602
916.259	14530
916.371	14781
916.483	14701
916.595	14670
916.708	14667
916.82	14708
916.932	14541
917.044	14499
917.156	14480
917.268	14473
917.38	14480
917.491	14298
917.603	14393
917.715	14461
917.826	14473
917.938	14412
918.049	14286
918.161	14343
918.272	14579
918.384	14549
918.495	14412
918.606	14218
918.717	14149
918.828	14240
918.939	14221
919.05	14164
919.161	14187
919.272	14008
919.383	14020
919.494	14248
919.604	14457
919.715	14161
919.826	14058
919.936	14065
920.047	14176
920.157	14252
920.267	14381
920.378	14134
920.488	14092
920.598	14396
920.708	14564
920.818	14271
920.928	14305
921.038	14427
921.148	14381
921.258	14092
921.368	14012
921.477	13909
921.587	13852
921.697	13772
921.806	13917
921.916	13791
922.025	13601
922.134	13499
922.244	13487
922.353	13552
922.462	13426
922.571	13434
922.68	13171
922.789	13263
922.898	13251
923.007	13133
923.116	13251
923.224	13232
923.333	13217
923.442	13076
923.55	13027
923.659	13023
923.767	13175
923.876	13038
923.984	13118
924.092	12905
924.201	13027
924.309	12966
924.417	12932
924.525	12916
924.633	12943
924.741	13818
924.849	12639
924.956	12878
925.064	12650
925.172	12620
925.279	12612
925.387	12635
925.494	12642
925.602	12757
925.709	12616
925.816	12608
925.924	12547
926.031	12665
926.138	12585
926.245	12631
926.352	12479
926.459	12627
926.566	12639
926.673	12483
926.779	12475
926.886	12407
926.993	12243
927.099	12266
927.206	12197
927.312	12121
927.419	12330
927.525	12148
927.631	12262
927.737	12106
927.843	11992
927.95	11999
928.056	11961
928.162	12114
928.267	12133
928.373	12681
928.479	12144
928.585	11832
928.69	11969
928.796	12007
928.901	11866
929.007	11813
929.112	11931
929.218	11817
929.323	11866
929.428	11809
929.533	11950
929.638	11710
929.743	11745
929.848	11741
929.953	11760
930.058	11570
930.163	11455
930.267	11398
930.372	11649
930.477	11433
930.581	11668
930.685	11524
930.79	11360
930.894	11429
930.998	11372
931.103	11436
931.207	11140
931.311	11075
931.415	10991
931.519	10797
931.623	10786
