Data from test_V78500241_2869.txt Node
Date: Fri Mar 25 15:29:50 CST 2022
User: usil
Spectrometer: V785-0024
Trigger mode: 0
Integration Time (sec): 4.000000E-1
Scans to average: 1
Nonlinearity correction enabled: false
Boxcar width: 0
Storing dark spectrum: false
XAxis mode: Wavelengths
Number of Pixels in Spectrum: 1024
>>>>>Begin Spectral Data<<<<<
801.071	27184
801.214	27096
801.356	26853
801.499	26842
801.641	26788
801.783	26705
801.926	26659
802.068	26697
802.211	26648
802.353	26473
802.496	26355
802.638	26393
802.78	26294
802.923	26313
803.065	26351
803.208	26248
803.35	26374
803.492	26564
803.635	26560
803.777	26400
803.919	26560
804.061	26819
804.204	26594
804.346	26556
804.488	26514
804.63	26473
804.773	26473
804.915	26511
805.057	26644
805.199	26370
805.341	26564
805.483	26602
805.626	26705
805.768	26507
805.91	26674
806.052	26651
806.194	26492
806.336	26720
806.478	26571
806.62	26579
806.762	26876
806.904	26925
807.046	27093
807.188	27108
807.33	26986
807.472	27036
807.614	27017
807.756	26963
807.898	26906
808.04	26842
808.182	26826
808.324	26845
808.465	26998
808.607	27009
808.749	27207
808.891	27252
809.033	27287
809.174	27077
809.316	27112
809.458	27142
809.6	27226
809.741	27256
809.883	27218
810.025	27458
810.166	27549
810.308	27504
810.45	27462
810.591	27412
810.733	27176
810.875	27180
811.016	27089
811.158	27119
811.299	27351
811.441	27298
811.582	27443
811.724	27161
811.865	27135
812.007	27165
812.148	27093
812.29	27252
812.431	27420
812.573	27412
812.714	27618
812.855	27686
812.997	27736
813.138	27861
813.279	27720
813.421	27838
813.562	27568
813.703	27614
813.845	27298
813.986	27135
814.127	27024
814.268	26948
814.41	26982
814.551	26758
814.692	26845
814.833	26811
814.974	26781
815.115	26800
815.256	26735
815.397	26503
815.539	26705
815.68	26682
815.821	26419
815.962	26507
816.103	26560
816.244	26473
816.385	26507
816.526	26313
816.666	26225
816.807	26199
816.948	26180
817.089	26332
817.23	26164
817.371	26153
817.512	26115
817.653	26008
817.793	26138
817.934	26134
818.075	26176
818.216	26195
818.356	26077
818.497	25993
818.638	25925
818.778	25696
818.919	25883
819.06	25959
819.2	25959
819.341	26111
819.481	26092
819.622	26282
819.762	26389
819.903	26385
820.043	26282
820.184	26248
820.324	26191
820.465	26237
820.605	26256
820.746	26240
820.886	26046
821.026	26092
821.167	26164
821.307	26286
821.447	26103
821.588	26065
821.728	25807
821.868	25784
822.008	25624
822.149	25601
822.289	25518
822.429	25251
822.569	25225
822.709	25175
822.849	25164
822.99	25137
823.13	24985
823.27	25034
823.41	25004
823.55	24768
823.69	24863
823.83	24920
823.97	24837
824.11	24741
824.25	24555
824.389	24684
824.529	24779
824.669	24703
824.809	24802
824.949	24787
825.089	24833
825.228	24776
825.368	24631
825.508	24585
825.648	24536
825.787	24551
825.927	24585
826.067	24601
826.206	24616
826.346	24460
826.485	24661
826.625	24635
826.765	24696
826.904	24703
827.044	24327
827.183	24232
827.323	24239
827.462	24296
827.601	24205
827.741	24296
827.88	24308
828.02	24121
828.159	24205
828.298	24300
828.437	24308
828.577	24178
828.716	24182
828.855	24182
828.994	23939
829.134	23927
829.273	23920
829.412	23851
829.551	23847
829.69	23996
829.829	24030
829.968	23999
830.107	23965
830.246	23942
830.385	23931
830.524	23828
830.663	23589
830.802	23657
830.941	23493
831.08	23482
831.219	23524
831.357	23661
831.496	23828
831.635	23623
831.774	23493
831.913	23425
832.051	23223
832.19	23337
832.329	23398
832.467	23235
832.606	23181
832.744	23147
832.883	23216
833.022	23162
833.16	23185
833.299	23242
833.437	23265
833.576	23391
833.714	23242
833.852	23261
833.991	23326
834.129	23349
834.267	23402
834.406	23360
834.544	23402
834.682	23223
834.821	23174
834.959	23436
835.097	23174
835.235	23341
835.373	23258
835.511	23345
835.65	23056
835.788	23086
835.926	22805
836.064	22919
836.202	22999
836.34	23052
836.478	23189
836.615	23189
836.753	23041
836.891	23166
837.029	23071
837.167	23022
837.305	23105
837.443	23105
837.58	23067
837.718	23079
837.856	22965
837.993	22927
838.131	22930
838.269	22854
838.406	22873
838.544	22782
838.681	22637
838.819	22546
838.956	22421
839.094	22428
839.231	22440
839.369	22656
839.506	22831
839.643	22569
839.781	22375
839.918	22466
840.055	22303
840.193	22325
840.33	22337
840.467	22421
840.604	22516
840.742	22679
840.879	22424
841.016	22356
841.153	22329
841.29	22428
841.427	22322
841.564	22367
841.701	22386
841.838	22299
841.975	22265
842.112	22443
842.249	22215
842.385	22131
842.522	22356
842.659	22207
842.796	22124
842.933	22185
843.069	22112
843.206	22154
843.343	22295
843.479	22131
843.616	22131
843.752	21949
843.889	21911
844.025	22017
844.162	21899
844.298	22051
844.435	21918
844.571	21816
844.708	21892
844.844	22029
844.98	22124
845.117	21975
845.253	21778
845.389	21717
845.525	21857
845.661	21751
845.798	21553
845.934	21622
846.07	21599
846.206	21576
846.342	21660
846.478	21625
846.614	21428
846.75	21302
846.886	21378
847.022	21428
847.158	21245
847.294	21351
847.429	21458
847.565	21382
847.701	21622
847.837	21176
847.972	21066
848.108	21131
848.244	21131
848.379	21020
848.515	21028
848.65	21066
848.786	20990
848.921	21047
849.057	21104
849.192	20998
849.328	21142
849.463	20861
849.598	20830
849.734	20842
849.869	20861
850.004	20727
850.14	20861
850.275	20792
850.41	20625
850.545	20765
850.68	20667
850.815	20823
850.95	20785
851.085	21062
851.22	20902
851.355	20720
851.49	20686
851.625	20724
851.76	20712
851.895	20758
852.03	20716
852.165	20826
852.299	20864
852.434	20769
852.569	20777
852.703	20792
852.838	20746
852.973	20876
853.107	20758
853.242	20541
853.376	20644
853.511	20438
853.645	20587
853.78	20708
853.914	20560
854.048	20613
854.183	20476
854.317	20602
854.451	20644
854.585	20629
854.72	20518
854.854	20667
854.988	20602
855.122	20655
855.256	20499
855.39	20564
855.524	20598
855.658	20670
855.792	20568
855.926	20625
856.06	20678
856.194	20617
856.327	20590
856.461	20549
856.595	20473
856.729	20655
856.862	20701
856.996	20541
857.13	20621
857.263	20750
857.397	20754
857.53	20613
857.664	20571
857.797	20571
857.931	20667
858.064	20648
858.197	20613
858.331	20594
858.464	20568
858.597	20499
858.731	20636
858.864	20636
858.997	20499
859.13	20503
859.263	20629
859.396	20651
859.529	20651
859.662	20693
859.795	20465
859.928	20648
860.061	20724
860.194	20868
860.327	20598
860.46	20579
860.592	20674
860.725	20708
860.858	20724
860.99	20594
861.123	20488
861.256	20552
861.388	20537
861.521	21310
861.653	20499
861.786	20457
861.918	20564
862.05	20526
862.183	20393
862.315	20545
862.447	20522
862.58	20347
862.712	20343
862.844	20122
862.976	20404
863.108	20343
863.24	20826
863.372	20096
863.504	20214
863.636	20336
863.768	20362
863.9	20324
864.032	20214
864.164	20187
864.296	20233
864.428	20404
864.559	20366
864.691	20484
864.823	20286
864.954	20347
865.086	20317
865.217	20092
865.349	20202
865.48	20259
865.612	20206
865.743	20221
865.875	20161
866.006	20199
866.137	20145
866.269	20263
866.4	20259
866.531	20172
866.662	20084
866.793	20145
866.924	20183
867.055	20176
867.186	20122
867.317	20119
867.448	20088
867.579	20149
867.71	20065
867.841	20001
867.972	20164
868.103	20233
868.233	20142
868.364	20343
868.495	20225
868.625	20347
868.756	20415
868.886	20419
869.017	20377
869.147	20419
869.278	20438
869.408	20465
869.539	20336
869.669	20454
869.799	20415
869.929	20511
870.06	20621
870.19	20720
870.32	20674
870.45	20617
870.58	20785
870.71	20941
870.84	20830
870.97	20670
871.1	20762
871.23	21058
871.36	21032
871.489	20773
871.619	20891
871.749	20910
871.879	20998
872.008	21127
872.138	20895
872.267	20990
872.397	20765
872.526	20845
872.656	20807
872.785	20777
872.915	21058
873.044	21074
873.173	21028
873.303	21146
873.432	20948
873.561	21066
873.69	21028
873.819	21245
873.948	21028
874.077	20902
874.206	20921
874.335	20933
874.464	21135
874.593	21146
874.722	21081
874.851	21279
874.979	21256
875.108	21287
875.237	21180
875.365	21123
875.494	21268
875.623	21287
875.751	21138
875.88	21272
876.008	21359
876.136	21424
876.265	21618
876.393	21766
876.521	21701
876.65	21732
876.778	21709
876.906	21545
877.034	21644
877.162	21667
877.29	21576
877.418	21709
877.546	21603
877.674	21637
877.802	21561
877.93	21698
878.058	21606
878.185	21488
878.313	21542
878.441	21595
878.568	21424
878.696	21477
878.824	21549
878.951	21614
879.079	21724
879.206	21793
879.333	21747
879.461	21641
879.588	21800
879.715	21671
879.842	21876
879.97	21618
880.097	21488
880.224	21431
880.351	21496
880.478	21355
880.605	21348
880.732	21481
880.859	21557
880.986	21348
881.112	21416
881.239	21287
881.366	21214
881.493	21142
881.619	21017
881.746	20990
881.872	20960
881.999	20967
882.125	20971
882.252	21047
882.378	20971
882.505	21081
882.631	20746
882.757	20689
882.883	20845
883.01	20697
883.136	20686
883.262	20655
883.388	20556
883.514	20758
883.64	20689
883.766	20712
883.892	20457
884.018	20514
884.143	20655
884.269	20739
884.395	20396
884.52	20400
884.646	20309
884.772	20202
884.897	20218
885.023	20362
885.148	20427
885.274	20678
885.399	20370
885.524	20282
885.65	20408
885.775	20450
885.9	20320
886.025	20415
886.15	20522
886.275	20442
886.4	20248
886.525	20377
886.65	20271
886.775	20396
886.9	20400
887.025	20461
887.149	20461
887.274	20229
887.399	20092
887.523	20332
887.648	20069
887.773	20016
887.897	20210
888.021	20271
888.146	20027
888.27	20183
888.395	20210
888.519	20172
888.643	20069
888.767	20161
888.891	20039
889.015	19947
889.139	20031
889.263	19879
889.387	20088
889.511	20164
889.635	20062
889.759	19898
889.883	19898
890.006	19989
890.13	19947
890.254	19784
890.377	19852
890.501	19715
890.624	19651
890.748	19681
890.871	19643
890.995	19548
891.118	19559
891.241	19594
891.364	19635
891.488	19647
891.611	19483
891.734	19510
891.857	19632
891.98	19613
892.103	19514
892.226	19571
892.349	19388
892.471	19324
892.594	19480
892.717	19552
892.839	19419
892.962	19487
893.085	19434
893.207	19556
893.33	19396
893.452	19327
893.575	19445
893.697	19346
893.819	19594
893.941	19578
894.064	19620
894.186	19350
894.308	19384
894.43	19491
894.552	19639
894.674	19525
894.796	19491
894.918	19533
895.04	19381
895.161	19556
895.283	19578
895.405	19327
895.526	19476
895.648	19403
895.769	19422
895.891	19464
896.012	19639
896.134	19464
896.255	19350
896.376	19339
896.498	19293
896.619	19430
896.74	19468
896.861	19552
896.982	19803
897.103	19940
897.224	19784
897.345	19681
897.466	19624
897.587	19814
897.708	19761
897.828	19662
897.949	19708
898.07	19567
898.19	19518
898.311	19807
898.431	19563
898.552	19616
898.672	19826
898.792	19841
898.913	19624
899.033	19674
899.153	19419
899.273	19434
899.393	19400
899.513	19449
899.633	19514
899.753	19407
899.873	19274
899.993	19403
900.113	19335
900.232	19480
900.352	19415
900.472	19358
900.591	19282
900.711	19339
900.83	19217
900.95	19377
901.069	19354
901.189	19129
901.308	18882
901.427	18840
901.546	18825
901.665	18924
901.784	18916
901.904	18730
902.023	18696
902.141	18395
902.26	18273
902.379	18414
902.498	18372
902.617	18304
902.735	18456
902.854	18357
902.973	18174
903.091	18121
903.21	18068
903.328	18053
903.446	18011
903.565	17798
903.683	17767
903.801	17805
903.919	17874
904.038	17840
904.156	17516
904.274	17630
904.392	17634
904.51	17573
904.627	17539
904.745	17562
904.863	17707
904.981	17452
905.098	17288
905.216	17239
905.334	17349
905.451	17231
905.569	17193
905.686	17143
905.803	17273
905.921	16999
906.038	17113
906.155	17162
906.272	17083
906.389	16991
906.506	16873
906.623	16869
906.74	16698
906.857	16790
906.974	16645
907.091	16805
907.208	17010
907.324	16873
907.441	16816
907.557	16596
907.674	16561
907.79	16618
907.907	16432
908.023	16569
908.139	16500
908.256	16382
908.372	16440
908.488	16436
908.604	16344
908.72	16280
908.836	16291
908.952	16185
909.068	16291
909.184	16265
909.3	16280
909.415	16382
909.531	16253
909.647	16067
909.762	16006
909.878	15979
909.993	16078
910.108	15979
910.224	15945
910.339	15930
910.454	15899
910.57	15762
910.685	15717
910.8	15949
910.915	15983
911.03	15850
911.145	15652
911.259	15545
911.374	15641
911.489	15473
911.604	15450
911.718	15332
911.833	15389
911.947	15291
912.062	15256
912.176	15291
912.291	15420
912.405	15367
912.519	15500
912.633	15542
912.748	15298
912.862	15329
912.976	15207
913.09	15039
913.204	15009
913.318	15077
913.431	15272
913.545	15237
913.659	15207
913.772	15081
913.886	15005
914	14975
914.113	14944
914.226	15013
914.34	15017
914.453	14891
914.566	15017
914.68	14891
914.793	14876
914.906	14735
915.019	14537
915.132	14492
915.245	14499
915.358	14697
915.47	14587
915.583	14568
915.696	14587
915.809	14693
915.921	14689
916.034	14511
916.146	14549
916.259	14522
916.371	14552
916.483	14549
916.595	14507
916.708	14415
916.82	14442
916.932	14446
917.044	14396
917.156	14370
917.268	14278
917.38	14290
917.491	14157
917.603	14400
917.715	14385
917.826	14400
917.938	14218
918.049	14035
918.161	14176
918.272	14355
918.384	14305
918.495	14149
918.606	14039
918.717	13982
918.828	14073
918.939	14081
919.05	13955
919.161	14012
919.272	13807
919.383	13917
919.494	14062
919.604	14199
919.715	13986
919.826	14016
919.936	13963
920.047	14069
920.157	13986
920.267	14153
920.378	13974
920.488	13967
920.598	14206
920.708	14275
920.818	14050
920.928	14111
921.038	14309
921.148	14259
921.258	13860
921.368	13803
921.477	13769
921.587	13784
921.697	13742
921.806	13742
921.916	13567
922.025	13559
922.134	13457
922.244	13335
922.353	13438
922.462	13274
922.571	13285
922.68	13015
922.789	13023
922.898	13072
923.007	12958
923.116	13133
923.224	12943
923.333	13099
923.442	12943
923.55	12867
923.659	12886
923.767	13008
923.876	12825
923.984	12920
924.092	12760
924.201	12833
924.309	12806
924.417	12802
924.525	12730
924.633	12810
924.741	13647
924.849	12566
924.956	12711
925.064	12502
925.172	12467
925.279	12464
925.387	12479
925.494	12574
925.602	12642
925.709	12563
925.816	12433
925.924	12395
926.031	12547
926.138	12433
926.245	12494
926.352	12361
926.459	12426
926.566	12540
926.673	12353
926.779	12213
926.886	12243
926.993	12175
927.099	12064
927.206	12034
927.312	11996
927.419	12152
927.525	12026
927.631	12068
927.737	12003
927.843	11954
927.95	11813
928.056	11958
928.162	11980
928.267	11969
928.373	12597
928.479	12064
928.585	11737
928.69	11885
928.796	11897
928.901	11756
929.007	11505
929.112	11832
929.218	11703
929.323	11680
929.428	11619
929.533	11775
929.638	11661
929.743	11596
929.848	11630
929.953	11615
930.058	11512
930.163	11353
930.267	11356
930.372	11436
930.477	11353
930.581	11512
930.685	11459
930.79	11189
930.894	11235
930.998	11231
931.103	11337
931.207	10949
931.311	10915
931.415	10782
931.519	10687
931.623	10603
