Data from test_V78500241_572.txt Node
Date: Fri Mar 25 15:13:50 CST 2022
User: usil
Spectrometer: V785-0024
Trigger mode: 0
Integration Time (sec): 4.000000E-1
Scans to average: 1
Nonlinearity correction enabled: false
Boxcar width: 0
Storing dark spectrum: false
XAxis mode: Wavelengths
Number of Pixels in Spectrum: 1024
>>>>>Begin Spectral Data<<<<<
801.071	27260
801.214	27116
801.356	26944
801.499	26788
801.641	26804
801.783	26857
801.926	26792
802.068	26864
802.211	26587
802.353	26617
802.496	26415
802.638	26404
802.78	26476
802.923	26408
803.065	26351
803.208	26438
803.35	26431
803.492	26537
803.635	26602
803.777	26339
803.919	26564
804.061	26975
804.204	26617
804.346	26465
804.488	26488
804.63	26537
804.773	26537
804.915	26552
805.057	26613
805.199	26507
805.341	26621
805.483	26663
805.626	26461
805.768	26549
805.91	26648
806.052	26788
806.194	26686
806.336	26785
806.478	26693
806.62	26598
806.762	26670
806.904	26994
807.046	27272
807.188	27188
807.33	27108
807.472	27279
807.614	27138
807.756	27135
807.898	26952
808.04	26975
808.182	26864
808.324	27005
808.465	26979
808.607	27066
808.749	27188
808.891	27283
809.033	27389
809.174	27389
809.316	27378
809.458	27287
809.6	27310
809.741	27378
809.883	27427
810.025	27595
810.166	27724
810.308	27488
810.45	27572
810.591	27500
810.733	27473
810.875	27283
811.016	27123
811.158	27089
811.299	27302
811.441	27424
811.582	27462
811.724	27340
811.865	27203
812.007	27321
812.148	27363
812.29	27275
812.431	27435
812.573	27606
812.714	27690
812.855	27918
812.997	28017
813.138	28124
813.279	27941
813.421	27914
813.562	27884
813.703	27625
813.845	27504
813.986	27298
814.127	27150
814.268	26899
814.41	26956
814.551	26940
814.692	27058
814.833	26899
814.974	26838
815.115	26944
815.256	26902
815.397	26906
815.539	26868
815.68	26925
815.821	26693
815.962	26743
816.103	26667
816.244	26598
816.385	26507
816.526	26579
816.666	26358
816.807	26290
816.948	26461
817.089	26438
817.23	26381
817.371	26336
817.512	26343
817.653	26301
817.793	26210
817.934	26282
818.075	26244
818.216	26218
818.356	26301
818.497	26161
818.638	26024
818.778	26012
818.919	25871
819.06	26065
819.2	26214
819.341	26168
819.481	26138
819.622	26332
819.762	26587
819.903	26518
820.043	26469
820.184	26389
820.324	26275
820.465	26473
820.605	26476
820.746	26446
820.886	26149
821.026	26339
821.167	26290
821.307	26351
821.447	26164
821.588	26214
821.728	26107
821.868	25837
822.008	25811
822.149	25708
822.289	25803
822.429	25460
822.569	25434
822.709	25521
822.849	25266
822.99	25221
823.13	25244
823.27	25046
823.41	25053
823.55	24882
823.69	25050
823.83	24947
823.97	25053
824.11	24806
824.25	24726
824.389	24859
824.529	24840
824.669	24814
824.809	25046
824.949	25019
825.089	25042
825.228	24932
825.368	24764
825.508	24715
825.648	24897
825.787	24795
825.927	24776
826.067	24661
826.206	24684
826.346	24616
826.485	24810
826.625	24738
826.765	24779
826.904	24779
827.044	24517
827.183	24471
827.323	24422
827.462	24566
827.601	24555
827.741	24559
827.88	24490
828.02	24429
828.159	24372
828.298	24502
828.437	24521
828.577	24395
828.716	24528
828.855	24452
828.994	24174
829.134	24121
829.273	24171
829.412	24117
829.551	24228
829.69	24220
829.829	24224
829.968	24140
830.107	24232
830.246	24239
830.385	24102
830.524	24098
830.663	23916
830.802	23821
830.941	23733
831.08	23691
831.219	23798
831.357	23859
831.496	24018
831.635	23775
831.774	23627
831.913	23589
832.051	23592
832.19	23592
832.329	23608
832.467	23497
832.606	23349
832.744	23452
832.883	23387
833.022	23364
833.16	23501
833.299	23455
833.437	23478
833.576	23592
833.714	23627
833.852	23646
833.991	23566
834.129	23497
834.267	23577
834.406	23638
834.544	23680
834.682	23482
834.821	23463
834.959	23729
835.097	23436
835.235	23535
835.373	23448
835.511	23505
835.65	23353
835.788	23425
835.926	23242
836.064	23128
836.202	23147
836.34	23349
836.478	23402
836.615	23273
836.753	23395
836.891	23372
837.029	23459
837.167	23258
837.305	23292
837.443	23185
837.58	23273
837.718	23406
837.856	23299
837.993	23109
838.131	23204
838.269	22942
838.406	23113
838.544	23003
838.681	22828
838.819	22847
838.956	22736
839.094	22782
839.231	22668
839.369	22877
839.506	23136
839.643	22919
839.781	22618
839.918	22668
840.055	22733
840.193	22630
840.33	22596
840.467	22630
840.604	22599
840.742	22748
840.879	22557
841.016	22478
841.153	22481
841.29	22835
841.427	22516
841.564	22733
841.701	22611
841.838	22573
841.975	22538
842.112	22424
842.249	22398
842.385	22341
842.522	22466
842.659	22405
842.796	22322
842.933	22310
843.069	22371
843.206	22352
843.343	22428
843.479	22421
843.616	22382
843.752	22295
843.889	22234
844.025	22322
844.162	22063
844.298	22238
844.435	22109
844.571	22120
844.708	22166
844.844	22234
844.98	22257
845.117	22314
845.253	22074
845.389	22090
845.525	22109
845.661	21964
845.798	21785
845.934	21998
846.07	21857
846.206	21812
846.342	21953
846.478	21892
846.614	21564
846.75	21523
846.886	21633
847.022	21759
847.158	21679
847.294	21728
847.429	21671
847.565	21633
847.701	21873
847.837	21370
847.972	21302
848.108	21393
848.244	21477
848.379	21393
848.515	21264
848.65	21207
848.786	21264
848.921	21294
849.057	21306
849.192	21268
849.328	21237
849.463	21218
849.598	21127
849.734	21100
849.869	20902
850.004	21032
850.14	21127
850.275	20982
850.41	20933
850.545	20948
850.68	20929
850.815	20971
850.95	20921
851.085	21199
851.22	21070
851.355	21032
851.49	21024
851.625	20998
851.76	20944
851.895	20895
852.03	20937
852.165	21017
852.299	21032
852.434	21127
852.569	20975
852.703	20948
852.838	21077
852.973	21157
853.107	21077
853.242	20872
853.376	20861
853.511	20705
853.645	20842
853.78	20971
853.914	20830
854.048	20724
854.183	20815
854.317	20777
854.451	21020
854.585	20765
854.72	20880
854.854	20857
854.988	20686
855.122	20887
855.256	20743
855.39	20807
855.524	20872
855.658	20933
855.792	20724
855.926	20853
856.06	20864
856.194	20823
856.327	20887
856.461	20819
856.595	20735
856.729	20712
856.862	20937
856.996	20857
857.13	20853
857.263	20883
857.397	20994
857.53	20800
857.664	20880
857.797	20899
857.931	20826
858.064	20830
858.197	20918
858.331	20819
858.464	20796
858.597	20644
858.731	20769
858.864	20857
858.997	20758
859.13	20895
859.263	20899
859.396	20830
859.529	20800
859.662	20788
859.795	20849
859.928	20777
860.061	20960
860.194	20994
860.327	20868
860.46	20834
860.592	20880
860.725	21032
860.858	20876
860.99	20807
861.123	20765
861.256	20788
861.388	20857
861.521	21618
861.653	20693
861.786	20537
861.918	20602
862.05	20674
862.183	20667
862.315	20777
862.447	20804
862.58	20712
862.712	20568
862.844	20575
862.976	20644
863.108	20571
863.24	20929
863.372	20469
863.504	20667
863.636	20602
863.768	20579
863.9	20511
864.032	20355
864.164	20438
864.296	20560
864.428	20678
864.559	20590
864.691	20602
864.823	20579
864.954	20438
865.086	20526
865.217	20408
865.349	20286
865.48	20370
865.612	20374
865.743	20473
865.875	20492
866.006	20484
866.137	20415
866.269	20290
866.4	20336
866.531	20324
866.662	20229
866.793	20461
866.924	20317
867.055	20366
867.186	20366
867.317	20290
867.448	20191
867.579	20309
867.71	20259
867.841	20202
867.972	20278
868.103	20309
868.233	20465
868.364	20370
868.495	20526
868.625	20571
868.756	20712
868.886	20556
869.017	20621
869.147	20743
869.278	20777
869.408	20613
869.539	20644
869.669	20663
869.799	20716
869.929	20705
870.06	20739
870.19	20864
870.32	20925
870.45	21013
870.58	20967
870.71	21096
870.84	21150
870.97	21039
871.1	20937
871.23	21077
871.36	21131
871.489	21233
871.619	21195
871.749	21066
871.879	21241
872.008	21317
872.138	21294
872.267	21161
872.397	21138
872.526	21039
872.656	20849
872.785	20994
872.915	21233
873.044	21214
873.173	21074
873.303	21256
873.432	21344
873.561	21249
873.69	21291
873.819	21237
873.948	21378
874.077	21173
874.206	21157
874.335	21233
874.464	21386
874.593	21443
874.722	21458
874.851	21515
874.979	21526
875.108	21595
875.237	21450
875.365	21344
875.494	21386
875.623	21519
875.751	21408
875.88	21519
876.008	21576
876.136	21671
876.265	21873
876.393	21861
876.521	21911
876.65	21838
876.778	21922
876.906	21800
877.034	21781
877.162	21831
877.29	21797
877.418	21770
877.546	21724
877.674	21759
877.802	21808
877.93	21854
878.058	21713
878.185	21728
878.313	21888
878.441	21816
878.568	21591
878.696	21743
878.824	21876
878.951	21846
879.079	22131
879.206	22124
879.333	22086
879.461	21739
879.588	22010
879.715	21953
879.842	21987
879.97	21819
880.097	21583
880.224	21618
880.351	21770
880.478	21652
880.605	21549
880.732	21641
880.859	21736
880.986	21827
881.112	21644
881.239	21492
881.366	21279
881.493	21264
881.619	21157
881.746	21138
881.872	21176
881.999	21218
882.125	21226
882.252	21226
882.378	21123
882.505	21386
882.631	21081
882.757	20937
882.883	21013
883.01	21020
883.136	20807
883.262	20861
883.388	20746
883.514	20819
883.64	21089
883.766	20906
883.892	20712
884.018	20678
884.143	20876
884.269	20914
884.395	20651
884.52	20629
884.646	20511
884.772	20419
884.897	20537
885.023	20640
885.148	20552
885.274	20674
885.399	20689
885.524	20564
885.65	20571
885.775	20571
885.9	20636
886.025	20655
886.15	20617
886.275	20556
886.4	20457
886.525	20419
886.65	20480
886.775	20461
886.9	20651
887.025	20826
887.149	20507
887.274	20438
887.399	20415
887.523	20393
887.648	20381
887.773	20267
887.897	20423
888.021	20499
888.146	20271
888.27	20415
888.395	20495
888.519	20256
888.643	20294
888.767	20313
888.891	20336
889.015	20008
889.139	20206
889.263	20134
889.387	20183
889.511	20362
889.635	20206
889.759	20065
889.883	20142
890.006	20130
890.13	20294
890.254	20024
890.377	20035
890.501	19963
890.624	19921
890.748	19932
890.871	19894
890.995	19750
891.118	19772
891.241	19761
891.364	19803
891.488	19708
891.611	19780
891.734	19811
891.857	19742
891.98	19662
892.103	19811
892.226	19814
892.349	19658
892.471	19506
892.594	19632
892.717	19590
892.839	19681
892.962	19567
893.085	19742
893.207	19635
893.33	19529
893.452	19502
893.575	19696
893.697	19567
893.819	19860
893.941	19883
894.064	19795
894.186	19529
894.308	19578
894.43	19742
894.552	19708
894.674	19666
894.796	19533
894.918	19628
895.04	19582
895.161	19712
895.283	19670
895.405	19567
895.526	19533
895.648	19624
895.769	19628
895.891	19548
896.012	19822
896.134	19693
896.255	19563
896.376	19662
896.498	19582
896.619	19738
896.74	19578
896.861	19719
896.982	19860
897.103	20092
897.224	19921
897.345	19909
897.466	19814
897.587	19940
897.708	19993
897.828	19967
897.949	19887
898.07	19753
898.19	19837
898.311	19959
898.431	19776
898.552	19902
898.672	19837
898.792	19795
898.913	19849
899.033	19708
899.153	19628
899.273	19601
899.393	19609
899.513	19597
899.633	19670
899.753	19693
899.873	19624
899.993	19639
900.113	19586
900.232	19525
900.352	19521
900.472	19415
900.591	19400
900.711	19514
900.83	19327
900.95	19491
901.069	19563
901.189	19274
901.308	19031
901.427	18935
901.546	19053
901.665	19019
901.784	19012
901.904	18829
902.023	18779
902.141	18540
902.26	18502
902.379	18692
902.498	18536
902.617	18483
902.735	18593
902.854	18532
902.973	18395
903.091	18197
903.21	18136
903.328	18213
903.446	18068
903.565	17958
903.683	18079
903.801	17882
903.919	17950
904.038	17927
904.156	17718
904.274	17821
904.392	17729
904.51	17752
904.627	17737
904.745	17824
904.863	17802
904.981	17722
905.098	17501
905.216	17414
905.334	17562
905.451	17539
905.569	17406
905.686	17376
905.803	17433
905.921	17280
906.038	17311
906.155	17277
906.272	17220
906.389	17170
906.506	16991
906.623	16991
906.74	16961
906.857	16965
906.974	16904
907.091	17075
907.208	17216
907.324	16968
907.441	16942
907.557	16771
907.674	16675
907.79	16645
907.907	16733
908.023	16691
908.139	16824
908.256	16778
908.372	16615
908.488	16596
908.604	16451
908.72	16440
908.836	16481
908.952	16443
909.068	16402
909.184	16508
909.3	16516
909.415	16531
909.531	16382
909.647	16192
909.762	16169
909.878	16177
909.993	16177
910.108	16086
910.224	16086
910.339	16131
910.454	16074
910.57	15937
910.685	15964
910.8	16200
910.915	16051
911.03	15922
911.145	15831
911.259	15800
911.374	15781
911.489	15694
911.604	15622
911.718	15439
911.833	15477
911.947	15340
912.062	15291
912.176	15492
912.291	15431
912.405	15450
912.519	15618
912.633	15720
912.748	15603
912.862	15447
912.976	15249
913.09	15233
913.204	15218
913.318	15283
913.431	15401
913.545	15401
913.659	15344
913.772	15256
913.886	15146
914	15123
914.113	15321
914.226	15245
914.34	15192
914.453	15005
914.566	15226
914.68	14982
914.793	15024
914.906	14800
915.019	14769
915.132	14629
915.245	14705
915.358	14838
915.47	14773
915.583	14785
915.696	14754
915.809	14811
915.921	14762
916.034	14773
916.146	14651
916.259	14583
916.371	14655
916.483	14644
916.595	14617
916.708	14564
916.82	14541
916.932	14526
917.044	14579
917.156	14541
917.268	14358
917.38	14541
917.491	14465
917.603	14389
917.715	14499
917.826	14530
917.938	14267
918.049	14206
918.161	14415
918.272	14492
918.384	14530
918.495	14427
918.606	14149
918.717	14149
918.828	14202
918.939	14218
919.05	14225
919.161	14161
919.272	14020
919.383	14031
919.494	14210
919.604	14419
919.715	14168
919.826	14050
919.936	14111
920.047	14191
920.157	14168
920.267	14343
920.378	14092
920.488	14107
920.598	14313
920.708	14473
920.818	14389
920.928	14294
921.038	14393
921.148	14374
921.258	14096
921.368	14050
921.477	13902
921.587	13814
921.697	13795
921.806	13799
921.916	13772
922.025	13559
922.134	13559
922.244	13510
922.353	13609
922.462	13419
922.571	13415
922.68	13194
922.789	13198
922.898	13312
923.007	13137
923.116	13251
923.224	13263
923.333	13084
923.442	13103
923.55	12981
923.659	13114
923.767	13088
923.876	12966
923.984	13027
924.092	12848
924.201	12962
924.309	12890
924.417	12928
924.525	12852
924.633	12848
924.741	13902
924.849	12620
924.956	12825
925.064	12635
925.172	12566
925.279	12635
925.387	12597
925.494	12601
925.602	12791
925.709	12654
925.816	12582
925.924	12555
926.031	12673
926.138	12608
926.245	12631
926.352	12433
926.459	12585
926.566	12681
926.673	12570
926.779	12334
926.886	12391
926.993	12186
927.099	12228
927.206	12102
927.312	12125
927.419	12163
927.525	12224
927.631	12175
927.737	12072
927.843	12041
927.95	11931
928.056	11980
928.162	12041
928.267	12091
928.373	12612
928.479	12171
928.585	11836
928.69	11912
928.796	11969
928.901	11847
929.007	11786
929.112	11874
929.218	11851
929.323	11847
929.428	11691
929.533	11908
929.638	11710
929.743	11649
929.848	11741
929.953	11680
930.058	11592
930.163	11497
930.267	11467
930.372	11600
930.477	11356
930.581	11611
930.685	11532
930.79	11376
930.894	11337
930.998	11364
931.103	11452
931.207	11151
931.311	11006
931.415	10938
931.519	10691
931.623	10691
