Data from test_V78500241_2302.txt Node
Date: Fri Mar 25 15:25:53 CST 2022
User: usil
Spectrometer: V785-0024
Trigger mode: 0
Integration Time (sec): 4.000000E-1
Scans to average: 1
Nonlinearity correction enabled: false
Boxcar width: 0
Storing dark spectrum: false
XAxis mode: Wavelengths
Number of Pixels in Spectrum: 1024
>>>>>Begin Spectral Data<<<<<
801.071	27831
801.214	27720
801.356	27485
801.499	27321
801.641	27469
801.783	27211
801.926	27363
802.068	27294
802.211	27093
802.353	27135
802.496	26891
802.638	26971
802.78	26853
802.923	26823
803.065	26883
803.208	26838
803.35	26979
803.492	27089
803.635	27161
803.777	26982
803.919	27123
804.061	27359
804.204	27146
804.346	27146
804.488	26994
804.63	27104
804.773	27116
804.915	27089
805.057	27207
805.199	27135
805.341	27119
805.483	27233
805.626	27291
805.768	27173
805.91	27256
806.052	27310
806.194	27146
806.336	27348
806.478	27340
806.62	27131
806.762	27325
806.904	27458
807.046	27648
807.188	27515
807.33	27644
807.472	27789
807.614	27576
807.756	27656
807.898	27473
808.04	27443
808.182	27275
808.324	27488
808.465	27511
808.607	27835
808.749	27861
808.891	27911
809.033	27934
809.174	27903
809.316	27785
809.458	27713
809.6	27846
809.741	28006
809.883	28013
810.025	28112
810.166	28181
810.308	28105
810.45	28029
810.591	27998
810.733	27914
810.875	27831
811.016	27648
811.158	27774
811.299	27972
811.441	27972
811.582	27918
811.724	27956
811.865	27728
812.007	27690
812.148	27739
812.29	27854
812.431	28112
812.573	28185
812.714	28253
812.855	28386
812.997	28421
813.138	28603
813.279	28459
813.421	28451
813.562	28284
813.703	28010
813.845	27918
813.986	27709
814.127	27504
814.268	27526
814.41	27713
814.551	27485
814.692	27492
814.833	27367
814.974	27481
815.115	27473
815.256	27408
815.397	27389
815.539	27485
815.68	27230
815.821	27260
815.962	27367
816.103	27252
816.244	27230
816.385	27268
816.526	27135
816.666	26910
816.807	26853
816.948	26857
817.089	26872
817.23	26762
817.371	26899
817.512	26693
817.653	26720
817.793	26773
817.934	26823
818.075	26788
818.216	26830
818.356	26651
818.497	26743
818.638	26389
818.778	26503
818.919	26564
819.06	26712
819.2	26507
819.341	26769
819.481	26834
819.622	26960
819.762	27169
819.903	27176
820.043	26891
820.184	26872
820.324	26838
820.465	26967
820.605	26960
820.746	26849
820.886	26674
821.026	26910
821.167	26834
821.307	26960
821.447	26735
821.588	26788
821.728	26651
821.868	26278
822.008	26191
822.149	26191
822.289	26317
822.429	26012
822.569	25890
822.709	25959
822.849	25818
822.99	25795
823.13	25852
823.27	25597
823.41	25597
823.55	25407
823.69	25476
823.83	25556
823.97	25476
824.11	25400
824.25	25301
824.389	25396
824.529	25491
824.669	25491
824.809	25472
824.949	25563
825.089	25502
825.228	25434
825.368	25403
825.508	25278
825.648	25160
825.787	25301
825.927	25400
826.067	25228
826.206	25168
826.346	25221
826.485	25464
826.625	25278
826.765	25430
826.904	25263
827.044	25072
827.183	24935
827.323	24928
827.462	25129
827.601	24939
827.741	24932
827.88	24973
828.02	24856
828.159	24901
828.298	24970
828.437	25019
828.577	24894
828.716	25042
828.855	24817
828.994	24650
829.134	24646
829.273	24719
829.412	24555
829.551	24707
829.69	24555
829.829	24757
829.968	24738
830.107	24635
830.246	24627
830.385	24711
830.524	24517
830.663	24479
830.802	24395
830.941	24277
831.08	24251
831.219	24296
831.357	24247
831.496	24517
831.635	24258
831.774	24114
831.913	24228
832.051	24163
832.19	24049
832.329	24076
832.467	23912
832.606	23889
832.744	23988
832.883	23965
833.022	23855
833.16	24114
833.299	23946
833.437	23927
833.576	24049
833.714	24064
833.852	24152
833.991	24003
834.129	24102
834.267	24015
834.406	23980
834.544	24072
834.682	23939
834.821	23992
834.959	24140
835.097	23988
835.235	24136
835.373	23977
835.511	23931
835.65	23771
835.788	23794
835.926	23699
836.064	23710
836.202	23611
836.34	23931
836.478	23893
836.615	23946
836.753	23859
836.891	23809
837.029	23870
837.167	23805
837.305	23745
837.443	23676
837.58	23657
837.718	23737
837.856	23668
837.993	23718
838.131	23653
838.269	23512
838.406	23627
838.544	23531
838.681	23307
838.819	23292
838.956	23227
839.094	23235
839.231	23246
839.369	23315
839.506	23547
839.643	23341
839.781	23208
839.918	23151
840.055	23010
840.193	23090
840.33	23102
840.467	23117
840.604	23105
840.742	23429
840.879	22915
841.016	22904
841.153	23060
841.29	23178
841.427	22995
841.564	23079
841.701	23064
841.838	23025
841.975	23124
842.112	23014
842.249	22797
842.385	22797
842.522	23079
842.659	22923
842.796	22736
842.933	22885
843.069	22812
843.206	22843
843.343	22824
843.479	22771
843.616	22809
843.752	22740
843.889	22618
844.025	22706
844.162	22649
844.298	22713
844.435	22725
844.571	22504
844.708	22557
844.844	22634
844.98	22790
845.117	22675
845.253	22630
845.389	22481
845.525	22485
845.661	22474
845.798	22291
845.934	22363
846.07	22303
846.206	22367
846.342	22394
846.478	22341
846.614	22246
846.75	22097
846.886	22010
847.022	22173
847.158	22173
847.294	22124
847.429	22040
847.565	22006
847.701	22215
847.837	21800
847.972	21762
848.108	21755
848.244	21930
848.379	21739
848.515	21694
848.65	21682
848.786	21686
848.921	21747
849.057	21739
849.192	21660
849.328	21663
849.463	21717
849.598	21622
849.734	21625
849.869	21542
850.004	21454
850.14	21538
850.275	21420
850.41	21351
850.545	21412
850.68	21310
850.815	21481
850.95	21389
851.085	21622
851.22	21458
851.355	21393
851.49	21367
851.625	21412
851.76	21458
851.895	21268
852.03	21279
852.165	21382
852.299	21435
852.434	21591
852.569	21428
852.703	21428
852.838	21523
852.973	21557
853.107	21477
853.242	21416
853.376	21275
853.511	21150
853.645	21184
853.78	21336
853.914	21329
854.048	21157
854.183	21306
854.317	21260
854.451	21397
854.585	21146
854.72	21237
854.854	21374
854.988	21066
855.122	21275
855.256	21112
855.39	21150
855.524	21256
855.658	21230
855.792	21268
855.926	21306
856.06	21222
856.194	21249
856.327	21237
856.461	21214
856.595	21085
856.729	21245
856.862	21367
856.996	21230
857.13	21321
857.263	21310
857.397	21302
857.53	21218
857.664	21283
857.797	21237
857.931	21233
858.064	21321
858.197	21344
858.331	21321
858.464	21135
858.597	20998
858.731	21230
858.864	21104
858.997	21077
859.13	21256
859.263	21294
859.396	21275
859.529	21336
859.662	21135
859.795	21203
859.928	21313
860.061	21363
860.194	21519
860.327	21370
860.46	21199
860.592	21367
860.725	21359
860.858	21310
860.99	21256
861.123	21203
861.256	21218
861.388	21222
861.521	21987
861.653	21112
861.786	21036
861.918	21142
862.05	21199
862.183	21112
862.315	21203
862.447	21226
862.58	21180
862.712	21024
862.844	20941
862.976	21070
863.108	21017
863.24	21431
863.372	20781
863.504	20864
863.636	20902
863.768	20933
863.9	20952
864.032	20982
864.164	20910
864.296	20937
864.428	21051
864.559	21051
864.691	21043
864.823	20956
864.954	20929
865.086	20990
865.217	20880
865.349	20788
865.48	20842
865.612	20811
865.743	21024
865.875	20762
866.006	20853
866.137	20830
866.269	20883
866.4	20849
866.531	20746
866.662	20667
866.793	20853
866.924	20739
867.055	20735
867.186	20849
867.317	20914
867.448	20670
867.579	20762
867.71	20640
867.841	20746
867.972	20842
868.103	20857
868.233	20758
868.364	20785
868.495	20788
868.625	21062
868.756	21085
868.886	20849
869.017	21005
869.147	21077
869.278	21184
869.408	21005
869.539	21077
869.669	21108
869.799	21096
869.929	21100
870.06	21013
870.19	21287
870.32	21252
870.45	21382
870.58	21298
870.71	21386
870.84	21587
870.97	21370
871.1	21431
871.23	21599
871.36	21614
871.489	21561
871.619	21538
871.749	21694
871.879	21637
872.008	21679
872.138	21633
872.267	21557
872.397	21500
872.526	21450
872.656	21317
872.785	21447
872.915	21648
873.044	21755
873.173	21637
873.303	21717
873.432	21724
873.561	21717
873.69	21717
873.819	21614
873.948	21728
874.077	21724
874.206	21610
874.335	21663
874.464	21759
874.593	21903
874.722	21770
874.851	22017
874.979	21831
875.108	21934
875.237	21739
875.365	21785
875.494	21892
875.623	21926
875.751	21835
875.88	21884
876.008	21994
876.136	22029
876.265	22242
876.393	22447
876.521	22337
876.65	22348
876.778	22204
876.906	22188
877.034	22223
877.162	22234
877.29	22280
877.418	22272
877.546	22169
877.674	22147
877.802	22169
877.93	22158
878.058	22101
878.185	22188
878.313	22036
878.441	22059
878.568	22070
878.696	22090
878.824	22333
878.951	22268
879.079	22306
879.206	22402
879.333	22451
879.461	22192
879.588	22284
879.715	22291
879.842	22432
879.97	22249
880.097	21956
880.224	22124
880.351	22109
880.478	22055
880.605	22067
880.732	21956
880.859	22207
880.986	22090
881.112	22097
881.239	21960
881.366	21694
881.493	21694
881.619	21747
881.746	21633
881.872	21682
881.999	21675
882.125	21599
882.252	21511
882.378	21572
882.505	21778
882.631	21538
882.757	21268
882.883	21363
883.01	21332
883.136	21089
883.262	21138
883.388	21165
883.514	21310
883.64	21378
883.766	21294
883.892	21017
884.018	21119
884.143	21287
884.269	21359
884.395	21104
884.52	20815
884.646	21028
884.772	20887
884.897	20773
885.023	20998
885.148	21081
885.274	21112
885.399	20998
885.524	20899
885.65	20975
885.775	20952
885.9	20941
886.025	21058
886.15	21131
886.275	20906
886.4	20914
886.525	20910
886.65	20880
886.775	20724
886.9	20982
887.025	21260
887.149	20979
887.274	20739
887.399	20754
887.523	20739
887.648	20746
887.773	20724
887.897	20872
888.021	20746
888.146	20716
888.27	20769
888.395	20765
888.519	20750
888.643	20811
888.767	20708
888.891	20606
889.015	20564
889.139	20617
889.263	20571
889.387	20651
889.511	20815
889.635	20526
889.759	20560
889.883	20465
890.006	20492
890.13	20575
890.254	20549
890.377	20389
890.501	20275
890.624	20218
890.748	20393
890.871	20153
890.995	20092
891.118	20122
891.241	20145
891.364	20119
891.488	20145
891.611	20020
891.734	20092
891.857	20035
891.98	20092
892.103	20214
892.226	20130
892.349	19970
892.471	19894
892.594	20024
892.717	20103
892.839	20005
892.962	19970
893.085	19955
893.207	19928
893.33	19830
893.452	19871
893.575	20020
893.697	20008
893.819	20138
893.941	20149
894.064	20168
894.186	19970
894.308	19883
894.43	20001
894.552	20096
894.674	20016
894.796	19830
894.918	20031
895.04	20073
895.161	20020
895.283	20005
895.405	19940
895.526	20065
895.648	20012
895.769	19986
895.891	20084
896.012	20081
896.134	20164
896.255	20084
896.376	19898
896.498	19978
896.619	20043
896.74	19978
896.861	20103
896.982	20294
897.103	20480
897.224	20199
897.345	20286
897.466	20157
897.587	20317
897.708	20305
897.828	20130
897.949	20062
898.07	20134
898.19	20096
898.311	20263
898.431	20191
898.552	20233
898.672	20351
898.792	20355
898.913	20183
899.033	20130
899.153	20069
899.273	19894
899.393	19978
899.513	19925
899.633	20027
899.753	19894
899.873	19826
899.993	20035
900.113	19890
900.232	20043
900.352	19936
900.472	19791
900.591	19662
900.711	19750
900.83	19727
900.95	19830
901.069	19830
901.189	19548
901.308	19373
901.427	19460
901.546	19346
901.665	19343
901.784	19343
901.904	19285
902.023	18996
902.141	18894
902.26	18871
902.379	18951
902.498	18791
902.617	18837
902.735	18875
902.854	18894
902.973	18833
903.091	18574
903.21	18513
903.328	18414
903.446	18460
903.565	18460
903.683	18311
903.801	18216
903.919	18327
904.038	18266
904.156	18102
904.274	18201
904.392	18007
904.51	18159
904.627	18091
904.745	18117
904.863	18045
904.981	17889
905.098	17847
905.216	17760
905.334	17923
905.451	17821
905.569	17790
905.686	17790
905.803	17726
905.921	17634
906.038	17703
906.155	17600
906.272	17554
906.389	17471
906.506	17311
906.623	17208
906.74	17258
906.857	17181
906.974	17292
907.091	17372
907.208	17376
907.324	17429
907.441	17204
907.557	17056
907.674	17105
907.79	17025
907.907	16957
908.023	17132
908.139	17071
908.256	16980
908.372	16968
908.488	16892
908.604	16725
908.72	16778
908.836	16790
908.952	16725
909.068	16778
909.184	16854
909.3	16778
909.415	16809
909.531	16641
909.647	16554
909.762	16428
909.878	16405
909.993	16421
910.108	16440
910.224	16485
910.339	16386
910.454	16276
910.57	16314
910.685	16166
910.8	16531
910.915	16360
911.03	16257
911.145	16253
911.259	15972
911.374	15994
911.489	16032
911.604	15960
911.718	15812
911.833	15831
911.947	15652
912.062	15648
912.176	15774
912.291	15884
912.405	15694
912.519	15915
912.633	15888
912.748	15838
912.862	15785
912.976	15690
913.09	15477
913.204	15545
913.318	15603
913.431	15705
913.545	15679
913.659	15576
913.772	15591
913.886	15545
914	15355
914.113	15580
914.226	15587
914.34	15507
914.453	15233
914.566	15473
914.68	15252
914.793	15306
914.906	15093
915.019	14979
915.132	14933
915.245	14998
915.358	15108
915.47	14998
915.583	15017
915.696	15024
915.809	15085
915.921	15039
916.034	14971
916.146	14948
916.259	14895
916.371	15017
916.483	14979
916.595	14773
916.708	14849
916.82	14876
916.932	14796
917.044	14689
917.156	14872
917.268	14712
917.38	14819
917.491	14682
917.603	14727
917.715	14724
917.826	14842
917.938	14678
918.049	14568
918.161	14621
918.272	14693
918.384	14659
918.495	14632
918.606	14476
918.717	14377
918.828	14473
918.939	14480
919.05	14240
919.161	14461
919.272	14229
919.383	14206
919.494	14476
919.604	14636
919.715	14412
919.826	14301
919.936	14362
920.047	14514
920.157	14355
920.267	14659
920.378	14514
920.488	14309
920.598	14518
920.708	14610
920.818	14537
920.928	14556
921.038	14773
921.148	14655
921.258	14374
921.368	14252
921.477	14126
921.587	14168
921.697	14043
921.806	14100
921.916	13955
922.025	13909
922.134	13765
922.244	13734
922.353	13807
922.462	13685
922.571	13662
922.68	13434
922.789	13457
922.898	13438
923.007	13400
923.116	13460
923.224	13392
923.333	13392
923.442	13266
923.55	13251
923.659	13251
923.767	13388
923.876	13206
923.984	13251
924.092	13149
924.201	13190
924.309	13202
924.417	13190
924.525	13038
924.633	13118
924.741	14062
924.849	12924
924.956	13019
925.064	12875
925.172	12810
925.279	12859
925.387	12821
925.494	12882
925.602	12947
925.709	12939
925.816	12722
925.924	12829
926.031	12962
926.138	12840
926.245	12852
926.352	12703
926.459	12867
926.566	12909
926.673	12707
926.779	12521
926.886	12604
926.993	12384
927.099	12509
927.206	12369
927.312	12414
927.419	12407
927.525	12407
927.631	12437
927.737	12372
927.843	12262
927.95	12136
928.056	12220
928.162	12190
928.267	12308
928.373	12764
928.479	12285
928.585	12091
928.69	12175
928.796	12175
928.901	12068
929.007	12079
929.112	12110
929.218	12057
929.323	11961
929.428	11973
929.533	12011
929.638	11901
929.743	11885
929.848	11920
929.953	11920
930.058	11840
930.163	11672
930.267	11703
930.372	11798
930.477	11680
930.581	11893
930.685	11714
930.79	11528
930.894	11535
930.998	11497
931.103	11623
931.207	11280
931.311	11220
931.415	11121
931.519	10961
931.623	10866
