Data from test_V78500241_1991.txt Node
Date: Fri Mar 25 15:23:43 CST 2022
User: usil
Spectrometer: V785-0024
Trigger mode: 0
Integration Time (sec): 4.000000E-1
Scans to average: 1
Nonlinearity correction enabled: false
Boxcar width: 0
Storing dark spectrum: false
XAxis mode: Wavelengths
Number of Pixels in Spectrum: 1024
>>>>>Begin Spectral Data<<<<<
801.071	27865
801.214	27781
801.356	27637
801.499	27496
801.641	27515
801.783	27462
801.926	27492
802.068	27545
802.211	27450
802.353	27310
802.496	27176
802.638	27032
802.78	27108
802.923	27020
803.065	27028
803.208	26944
803.35	27116
803.492	27279
803.635	27348
803.777	27154
803.919	27226
804.061	27355
804.204	27477
804.346	27233
804.488	27150
804.63	27237
804.773	27199
804.915	27416
805.057	27287
805.199	27119
805.341	27435
805.483	27367
805.626	27397
805.768	27355
805.91	27454
806.052	27462
806.194	27287
806.336	27603
806.478	27435
806.62	27374
806.762	27458
806.904	27823
807.046	27835
807.188	27816
807.33	27914
807.472	27895
807.614	27679
807.756	27895
807.898	27835
808.04	27705
808.182	27572
808.324	27663
808.465	27679
808.607	27907
808.749	28101
808.891	28086
809.033	28166
809.174	28097
809.316	28063
809.458	28082
809.6	28021
809.741	28204
809.883	28238
810.025	28299
810.166	28284
810.308	28303
810.45	28242
810.591	28211
810.733	28112
810.875	28048
811.016	27968
811.158	27762
811.299	28040
811.441	28150
811.582	28177
811.724	28032
811.865	28006
812.007	27979
812.148	28013
812.29	27968
812.431	28265
812.573	28363
812.714	28565
812.855	28523
812.997	28538
813.138	29006
813.279	28664
813.421	28504
813.562	28565
813.703	28325
813.845	28356
813.986	27937
814.127	27907
814.268	27850
814.41	27759
814.551	27667
814.692	27766
814.833	27732
814.974	27736
815.115	27648
815.256	27713
815.397	27572
815.539	27534
815.68	27427
815.821	27462
815.962	27622
816.103	27485
816.244	27389
816.385	27230
816.526	27275
816.666	27192
816.807	26982
816.948	27138
817.089	27127
817.23	27077
817.371	27108
817.512	26967
817.653	26975
817.793	27001
817.934	26952
818.075	27081
818.216	27058
818.356	27032
818.497	26944
818.638	26720
818.778	26796
818.919	26872
819.06	26876
819.2	26887
819.341	26891
819.481	27009
819.622	27146
819.762	27329
819.903	27252
820.043	27161
820.184	27062
820.324	27058
820.465	27077
820.605	27264
820.746	27070
820.886	27093
821.026	26986
821.167	27150
821.307	27112
821.447	27058
821.588	26979
821.728	26788
821.868	26697
822.008	26514
822.149	26476
822.289	26549
822.429	26195
822.569	26126
822.709	26073
822.849	26024
822.99	26012
823.13	25966
823.27	25883
823.41	25750
823.55	25830
823.69	25921
823.83	25898
823.97	25761
824.11	25742
824.25	25544
824.389	25685
824.529	25772
824.669	25776
824.809	25738
824.949	25674
825.089	25502
825.228	25757
825.368	25594
825.508	25362
825.648	25365
825.787	25552
825.927	25616
826.067	25556
826.206	25373
826.346	25445
826.485	25521
826.625	25438
826.765	25662
826.904	25502
827.044	25145
827.183	25225
827.323	25324
827.462	25175
827.601	25285
827.741	25141
827.88	25247
828.02	25129
828.159	25274
828.298	25247
828.437	25263
828.577	25156
828.716	25228
828.855	25232
828.994	24954
829.134	24992
829.273	24894
829.412	24901
829.551	25004
829.69	24894
829.829	24973
829.968	25004
830.107	24909
830.246	24897
830.385	24817
830.524	24875
830.663	24669
830.802	24540
830.941	24479
831.08	24570
831.219	24589
831.357	24688
831.496	24764
831.635	24642
831.774	24494
831.913	24388
832.051	24410
832.19	24308
832.329	24338
832.467	24243
832.606	24197
832.744	24220
832.883	24045
833.022	24171
833.16	24205
833.299	24251
833.437	24239
833.576	24258
833.714	24315
833.852	24353
833.991	24372
834.129	24292
834.267	24350
834.406	24315
834.544	24216
834.682	24273
834.821	24190
834.959	24410
835.097	24220
835.235	24292
835.373	24224
835.511	24258
835.65	24171
835.788	24258
835.926	23988
836.064	23885
836.202	23889
836.34	24026
836.478	24171
836.615	24102
836.753	24045
836.891	24243
837.029	23996
837.167	23954
837.305	24091
837.443	24121
837.58	23916
837.718	24041
837.856	23954
837.993	23843
838.131	23859
838.269	23878
838.406	23946
838.544	23775
838.681	23596
838.819	23547
838.956	23459
839.094	23531
839.231	23368
839.369	23646
839.506	23874
839.643	23581
839.781	23364
839.918	23356
840.055	23429
840.193	23322
840.33	23368
840.467	23292
840.604	23349
840.742	23627
840.879	23102
841.016	23273
841.153	23216
841.29	23440
841.427	23299
841.564	23471
841.701	23455
841.838	23220
841.975	23128
842.112	23250
842.249	23041
842.385	23037
842.522	23204
842.659	23151
842.796	23044
842.933	23048
843.069	23094
843.206	22987
843.343	23151
843.479	23109
843.616	23117
843.752	22809
843.889	22835
844.025	23003
844.162	22866
844.298	22987
844.435	22908
844.571	22927
844.708	22862
844.844	23109
844.98	22984
845.117	22976
845.253	22713
845.389	22675
845.525	22904
845.661	22725
845.798	22557
845.934	22782
846.07	22527
846.206	22565
846.342	22710
846.478	22500
846.614	22382
846.75	22356
846.886	22306
847.022	22348
847.158	22371
847.294	22394
847.429	22402
847.565	22337
847.701	22527
847.837	22040
847.972	22101
848.108	22162
848.244	22135
848.379	22055
848.515	21983
848.65	21949
848.786	21876
848.921	21785
849.057	22086
849.192	21903
849.328	21857
849.463	21857
849.598	21823
849.734	21884
849.869	21747
850.004	21671
850.14	21770
850.275	21732
850.41	21564
850.545	21595
850.68	21625
850.815	21717
850.95	21679
851.085	21835
851.22	21797
851.355	21739
851.49	21485
851.625	21564
851.76	21660
851.895	21641
852.03	21625
852.165	21606
852.299	21686
852.434	21812
852.569	21656
852.703	21652
852.838	21633
852.973	21793
853.107	21717
853.242	21667
853.376	21614
853.511	21241
853.645	21496
853.78	21572
853.914	21656
854.048	21469
854.183	21363
854.317	21568
854.451	21583
854.585	21447
854.72	21420
854.854	21564
854.988	21488
855.122	21473
855.256	21332
855.39	21389
855.524	21568
855.658	21663
855.792	21507
855.926	21378
856.06	21595
856.194	21500
856.327	21538
856.461	21412
856.595	21443
856.729	21431
856.862	21625
856.996	21500
857.13	21648
857.263	21644
857.397	21557
857.53	21420
857.664	21515
857.797	21534
857.931	21504
858.064	21614
858.197	21599
858.331	21530
858.464	21291
858.597	21302
858.731	21492
858.864	21439
858.997	21500
859.13	21481
859.263	21496
859.396	21526
859.529	21606
859.662	21424
859.795	21336
859.928	21504
860.061	21622
860.194	21785
860.327	21519
860.46	21469
860.592	21576
860.725	21679
860.858	21667
860.99	21500
861.123	21382
861.256	21386
861.388	21439
861.521	22101
861.653	21378
861.786	21294
861.918	21226
862.05	21370
862.183	21431
862.315	21504
862.447	21469
862.58	21340
862.712	21321
862.844	21085
862.976	21272
863.108	21336
863.24	21644
863.372	21169
863.504	21203
863.636	21119
863.768	21294
863.9	21249
864.032	21096
864.164	21123
864.296	21188
864.428	21298
864.559	21226
864.691	21382
864.823	21135
864.954	21123
865.086	21119
865.217	21157
865.349	21036
865.48	21127
865.612	21161
865.743	21184
865.875	21237
866.006	21058
866.137	21161
866.269	21131
866.4	21165
866.531	20994
866.662	21096
866.793	21070
866.924	21001
867.055	20994
867.186	21096
867.317	20952
867.448	21066
867.579	21070
867.71	20941
867.841	20941
867.972	21127
868.103	21024
868.233	20975
868.364	20918
868.495	21150
868.625	21165
868.756	21325
868.886	21222
869.017	21252
869.147	21370
869.278	21416
869.408	21310
869.539	21310
869.669	21237
869.799	21374
869.929	21370
870.06	21450
870.19	21603
870.32	21587
870.45	21561
870.58	21686
870.71	21823
870.84	21808
870.97	21690
871.1	21557
871.23	21778
871.36	21861
871.489	21724
871.619	21778
871.749	21842
871.879	21880
872.008	21930
872.138	21876
872.267	21797
872.397	21831
872.526	21720
872.656	21671
872.785	21637
872.915	21854
873.044	21937
873.173	21953
873.303	21892
873.432	22013
873.561	21941
873.69	21850
873.819	21888
873.948	21865
874.077	21903
874.206	21831
874.335	21903
874.464	22063
874.593	22135
874.722	22131
874.851	22265
874.979	22188
875.108	22135
875.237	22112
875.365	21941
875.494	22040
875.623	22128
875.751	22177
875.88	22177
876.008	22192
876.136	22398
876.265	22508
876.393	22622
876.521	22599
876.65	22630
876.778	22497
876.906	22428
877.034	22573
877.162	22481
877.29	22344
877.418	22561
877.546	22485
877.674	22409
877.802	22523
877.93	22413
878.058	22398
878.185	22405
878.313	22402
878.441	22386
878.568	22196
878.696	22344
878.824	22440
878.951	22550
879.079	22649
879.206	22710
879.333	22618
879.461	22417
879.588	22535
879.715	22569
879.842	22736
879.97	22523
880.097	22348
880.224	22284
880.351	22424
880.478	22268
880.605	22211
880.732	22303
880.859	22542
880.986	22390
881.112	22226
881.239	22192
881.366	21968
881.493	21778
881.619	21903
881.746	21816
881.872	21838
881.999	21850
882.125	21873
882.252	21861
882.378	21778
882.505	21994
882.631	21709
882.757	21534
882.883	21622
883.01	21534
883.136	21511
883.262	21310
883.388	21393
883.514	21564
883.64	21545
883.766	21481
883.892	21230
884.018	21389
884.143	21412
884.269	21580
884.395	21325
884.52	21131
884.646	21226
884.772	21207
884.897	21116
885.023	21279
885.148	21264
885.274	21264
885.399	21272
885.524	21222
885.65	21264
885.775	21203
885.9	21211
886.025	21264
886.15	21226
886.275	21085
886.4	21135
886.525	21180
886.65	21165
886.775	21116
886.9	21268
887.025	21291
887.149	20994
887.274	20990
887.399	20906
887.523	20906
887.648	20823
887.773	20864
887.897	20971
888.021	21043
888.146	20910
888.27	21005
888.395	21093
888.519	20952
888.643	20929
888.767	20853
888.891	20853
889.015	20663
889.139	20826
889.263	20686
889.387	20849
889.511	20967
889.635	20823
889.759	20804
889.883	20735
890.006	20758
890.13	20925
890.254	20773
890.377	20651
890.501	20545
890.624	20427
890.748	20469
890.871	20400
890.995	20240
891.118	20294
891.241	20298
891.364	20450
891.488	20469
891.611	20301
891.734	20385
891.857	20415
891.98	20465
892.103	20434
892.226	20347
892.349	20225
892.471	20130
892.594	20134
892.717	20328
892.839	20206
892.962	20263
893.085	20298
893.207	20256
893.33	20122
893.452	20134
893.575	20229
893.697	20134
893.819	20328
893.941	20454
894.064	20385
894.186	20130
894.308	20115
894.43	20374
894.552	20366
894.674	20328
894.796	20183
894.918	20168
895.04	20267
895.161	20377
895.283	20313
895.405	20229
895.526	20301
895.648	20199
895.769	20210
895.891	20221
896.012	20256
896.134	20271
896.255	20252
896.376	20164
896.498	20267
896.619	20305
896.74	20313
896.861	20214
896.982	20659
897.103	20651
897.224	20457
897.345	20541
897.466	20301
897.587	20423
897.708	20560
897.828	20450
897.949	20476
898.07	20278
898.19	20473
898.311	20446
898.431	20419
898.552	20476
898.672	20457
898.792	20393
898.913	20423
899.033	20370
899.153	20305
899.273	20119
899.393	20096
899.513	20195
899.633	20202
899.753	20263
899.873	20126
899.993	20176
900.113	20202
900.232	20214
900.352	20092
900.472	20027
900.591	19860
900.711	19970
900.83	19947
900.95	20027
901.069	20016
901.189	19849
901.308	19616
901.427	19548
901.546	19499
901.665	19578
901.784	19495
901.904	19396
902.023	19278
902.141	19156
902.26	19114
902.379	19088
902.498	19031
902.617	19027
902.735	19031
902.854	19103
902.973	19019
903.091	18749
903.21	18730
903.328	18764
903.446	18604
903.565	18589
903.683	18498
903.801	18365
903.919	18544
904.038	18376
904.156	18273
904.274	18327
904.392	18201
904.51	18247
904.627	18327
904.745	18300
904.863	18273
904.981	18117
905.098	17961
905.216	17992
905.334	17954
905.451	17923
905.569	17821
905.686	17939
905.803	17923
905.921	17741
906.038	17908
906.155	17802
906.272	17726
906.389	17775
906.506	17543
906.623	17535
906.74	17455
906.857	17273
906.974	17429
907.091	17478
907.208	17646
907.324	17585
907.441	17410
907.557	17170
907.674	17296
907.79	17159
907.907	17231
908.023	17216
908.139	17231
908.256	17117
908.372	17086
908.488	16995
908.604	17018
908.72	16938
908.836	16976
908.952	16942
909.068	16919
909.184	17075
909.3	16968
909.415	17014
909.531	16911
909.647	16740
909.762	16573
909.878	16611
909.993	16691
910.108	16535
910.224	16554
910.339	16603
910.454	16470
910.57	16375
910.685	16405
910.8	16702
910.915	16561
911.03	16424
911.145	16188
911.259	16204
911.374	16169
911.489	16200
911.604	16158
911.718	16036
911.833	16036
911.947	15800
912.062	15747
912.176	15964
912.291	16006
912.405	15903
912.519	16093
912.633	16154
912.748	15953
912.862	15899
912.976	15774
913.09	15633
913.204	15739
913.318	15804
913.431	15953
913.545	15854
913.659	15819
913.772	15652
913.886	15587
914	15625
914.113	15686
914.226	15720
914.34	15660
914.453	15568
914.566	15610
914.68	15469
914.793	15420
914.906	15329
915.019	15241
915.132	15097
915.245	15192
915.358	15146
915.47	15188
915.583	15150
915.696	15237
915.809	15283
915.921	15298
916.034	15100
916.146	15077
916.259	15100
916.371	15119
916.483	15116
916.595	14979
916.708	15062
916.82	15032
916.932	14899
917.044	14963
917.156	14929
917.268	14712
917.38	14845
917.491	14819
917.603	14925
917.715	14921
917.826	14895
917.938	14792
918.049	14693
918.161	14769
918.272	14944
918.384	14910
918.495	14849
918.606	14583
918.717	14541
918.828	14629
918.939	14617
919.05	14366
919.161	14602
919.272	14423
919.383	14480
919.494	14610
919.604	14750
919.715	14640
919.826	14484
919.936	14598
920.047	14552
920.157	14530
920.267	14754
920.378	14587
920.488	14503
920.598	14792
920.708	14853
920.818	14651
920.928	14640
921.038	14861
921.148	14807
921.258	14488
921.368	14400
921.477	14275
921.587	14282
921.697	14176
921.806	14332
921.916	14164
922.025	13890
922.134	13928
922.244	13841
922.353	13925
922.462	13852
922.571	13715
922.68	13601
922.789	13537
922.898	13632
923.007	13521
923.116	13609
923.224	13594
923.333	13552
923.442	13384
923.55	13388
923.659	13384
923.767	13464
923.876	13377
923.984	13483
924.092	13289
924.201	13285
924.309	13244
924.417	13369
924.525	13236
924.633	13244
924.741	14062
924.849	13042
924.956	13240
925.064	13019
925.172	12981
925.279	12996
925.387	12970
925.494	12993
925.602	13114
925.709	13050
925.816	12935
925.924	12947
926.031	13050
926.138	12935
926.245	12977
926.352	12848
926.459	13008
926.566	13027
926.673	12871
926.779	12688
926.886	12696
926.993	12620
927.099	12551
927.206	12498
927.312	12483
927.419	12639
927.525	12544
927.631	12467
927.737	12506
927.843	12452
927.95	12311
928.056	12308
928.162	12414
928.267	12361
928.373	13129
928.479	12475
928.585	12201
928.69	12311
928.796	12342
928.901	12270
929.007	12049
929.112	12308
929.218	12144
929.323	12106
929.428	12155
929.533	12152
929.638	12011
929.743	12072
929.848	12121
929.953	12003
930.058	11859
930.163	11775
930.267	11767
930.372	11958
930.477	11649
930.581	11916
930.685	11741
930.79	11668
930.894	11630
930.998	11642
931.103	11691
931.207	11398
931.311	11406
931.415	11277
931.519	11083
931.623	11151
