Data from test_V78500241_3566.txt Node
Date: Fri Mar 25 15:34:41 CST 2022
User: usil
Spectrometer: V785-0024
Trigger mode: 0
Integration Time (sec): 4.000000E-1
Scans to average: 1
Nonlinearity correction enabled: false
Boxcar width: 0
Storing dark spectrum: false
XAxis mode: Wavelengths
Number of Pixels in Spectrum: 1024
>>>>>Begin Spectral Data<<<<<
801.071	27218
801.214	27313
801.356	26861
801.499	26895
801.641	26918
801.783	26826
801.926	26960
802.068	26963
802.211	26773
802.353	26701
802.496	26598
802.638	26499
802.78	26465
802.923	26324
803.065	26366
803.208	26366
803.35	26499
803.492	26602
803.635	26598
803.777	26708
803.919	26678
804.061	26826
804.204	26826
804.346	26648
804.488	26590
804.63	26530
804.773	26594
804.915	26663
805.057	26625
805.199	26571
805.341	26746
805.483	26765
805.626	26731
805.768	26693
805.91	26686
806.052	26819
806.194	26678
806.336	26937
806.478	26629
806.62	26609
806.762	26842
806.904	27032
807.046	27306
807.188	27135
807.33	27173
807.472	27150
807.614	27135
807.756	27081
807.898	27017
808.04	26940
808.182	26895
808.324	26918
808.465	26975
808.607	27230
808.749	27264
808.891	27416
809.033	27466
809.174	27408
809.316	27332
809.458	27397
809.6	27397
809.741	27473
809.883	27447
810.025	27739
810.166	27622
810.308	27633
810.45	27625
810.591	27667
810.733	27302
810.875	27332
811.016	27363
811.158	27329
811.299	27549
811.441	27420
811.582	27504
811.724	27317
811.865	27367
812.007	27370
812.148	27211
812.29	27401
812.431	27466
812.573	27576
812.714	27682
812.855	27766
812.997	27850
813.138	28017
813.279	27945
813.421	27827
813.562	27800
813.703	27591
813.845	27564
813.986	27154
814.127	27028
814.268	26998
814.41	26887
814.551	26940
814.692	27051
814.833	26880
814.974	26929
815.115	27070
815.256	26830
815.397	26811
815.539	26868
815.68	26891
815.821	26632
815.962	26849
816.103	26663
816.244	26655
816.385	26514
816.526	26488
816.666	26503
816.807	26317
816.948	26427
817.089	26457
817.23	26290
817.371	26431
817.512	26427
817.653	26309
817.793	26180
817.934	26202
818.075	26282
818.216	26377
818.356	26282
818.497	26084
818.638	26031
818.778	25974
818.919	26031
819.06	26111
819.2	26134
819.341	26202
819.481	26206
819.622	26355
819.762	26568
819.903	26476
820.043	26450
820.184	26328
820.324	26358
820.465	26408
820.605	26366
820.746	26339
820.886	26218
821.026	26271
821.167	26298
821.307	26347
821.447	26237
821.588	26020
821.728	26062
821.868	25944
822.008	25765
822.149	25818
822.289	25616
822.429	25590
822.569	25445
822.709	25301
822.849	25251
822.99	25206
823.13	25183
823.27	25107
823.41	24989
823.55	24935
823.69	25194
823.83	25057
823.97	24951
824.11	24875
824.25	24859
824.389	24844
824.529	24894
824.669	24783
824.809	25069
824.949	24962
825.089	24966
825.228	24943
825.368	24753
825.508	24741
825.648	24757
825.787	24719
825.927	24875
826.067	24563
826.206	24776
826.346	24859
826.485	24897
826.625	24703
826.765	24844
826.904	24760
827.044	24437
827.183	24604
827.323	24433
827.462	24429
827.601	24544
827.741	24536
827.88	24547
828.02	24372
828.159	24448
828.298	24437
828.437	24532
828.577	24422
828.716	24517
828.855	24365
828.994	24201
829.134	24277
829.273	24311
829.412	24174
829.551	24296
829.69	24163
829.829	24087
829.968	24369
830.107	24300
830.246	24281
830.385	24148
830.524	24030
830.663	23992
830.802	23916
830.941	23794
831.08	23965
831.219	23855
831.357	23786
831.496	24003
831.635	23885
831.774	23741
831.913	23592
832.051	23524
832.19	23585
832.329	23630
832.467	23490
832.606	23452
832.744	23349
832.883	23421
833.022	23440
833.16	23299
833.299	23493
833.437	23501
833.576	23531
833.714	23600
833.852	23554
833.991	23649
834.129	23726
834.267	23665
834.406	23551
834.544	23627
834.682	23531
834.821	23505
834.959	23790
835.097	23501
835.235	23589
835.373	23524
835.511	23368
835.65	23455
835.788	23410
835.926	23288
836.064	23170
836.202	23280
836.34	23303
836.478	23471
836.615	23318
836.753	23288
836.891	23421
837.029	23349
837.167	23353
837.305	23353
837.443	23383
837.58	23178
837.718	23341
837.856	23231
837.993	23193
838.131	23254
838.269	23037
838.406	23181
838.544	23166
838.681	22824
838.819	22889
838.956	22634
839.094	22672
839.231	22683
839.369	22881
839.506	23098
839.643	23025
839.781	22694
839.918	22611
840.055	22645
840.193	22649
840.33	22615
840.467	22656
840.604	22630
840.742	22984
840.879	22580
841.016	22554
841.153	22474
841.29	22850
841.427	22649
841.564	22717
841.701	22592
841.838	22675
841.975	22497
842.112	22611
842.249	22523
842.385	22466
842.522	22679
842.659	22455
842.796	22344
842.933	22481
843.069	22421
843.206	22363
843.343	22421
843.479	22489
843.616	22409
843.752	22135
843.889	22074
844.025	22398
844.162	22200
844.298	22329
844.435	22226
844.571	22135
844.708	22291
844.844	22291
844.98	22276
845.117	22242
845.253	22051
845.389	22048
845.525	22188
845.661	22055
845.798	21930
845.934	21888
846.07	21880
846.206	21911
846.342	21983
846.478	21857
846.614	21785
846.75	21675
846.886	21739
847.022	21892
847.158	21747
847.294	21701
847.429	21812
847.565	21682
847.701	21781
847.837	21378
847.972	21294
848.108	21526
848.244	21507
848.379	21317
848.515	21359
848.65	21313
848.786	21241
848.921	21272
849.057	21397
849.192	21252
849.328	21256
849.463	21192
849.598	21230
849.734	21051
849.869	21173
850.004	20982
850.14	21077
850.275	20944
850.41	20921
850.545	20982
850.68	20895
850.815	21055
850.95	20944
851.085	21192
851.22	21207
851.355	21074
851.49	20956
851.625	21043
851.76	21001
851.895	21024
852.03	20952
852.165	20952
852.299	21085
852.434	21074
852.569	20952
852.703	20906
852.838	21077
852.973	21100
853.107	21081
853.242	20982
853.376	20906
853.511	20708
853.645	20739
853.78	20979
853.914	20910
854.048	20880
854.183	20853
854.317	20792
854.451	21093
854.585	20819
854.72	20857
854.854	20921
854.988	20796
855.122	20956
855.256	20773
855.39	20906
855.524	20842
855.658	20914
855.792	20990
855.926	20804
856.06	21039
856.194	20899
856.327	20830
856.461	20773
856.595	20712
856.729	20861
856.862	20743
856.996	20796
857.13	20956
857.263	20960
857.397	20937
857.53	20815
857.664	20883
857.797	20956
857.931	20902
858.064	20785
858.197	20952
858.331	20872
858.464	20792
858.597	20781
858.731	20845
858.864	20872
858.997	20750
859.13	20743
859.263	20815
859.396	21077
859.529	20971
859.662	20849
859.795	20815
859.928	20765
860.061	21005
860.194	21009
860.327	20811
860.46	20857
860.592	20933
860.725	21047
860.858	20971
860.99	20925
861.123	20739
861.256	20788
861.388	20899
861.521	21686
861.653	20727
861.786	20636
861.918	20731
862.05	20785
862.183	20750
862.315	20842
862.447	20815
862.58	20663
862.712	20636
862.844	20514
862.976	20720
863.108	20651
863.24	20902
863.372	20492
863.504	20598
863.636	20533
863.768	20720
863.9	20663
864.032	20590
864.164	20495
864.296	20708
864.428	20587
864.559	20651
864.691	20537
864.823	20606
864.954	20537
865.086	20587
865.217	20507
865.349	20347
865.48	20522
865.612	20423
865.743	20564
865.875	20385
866.006	20507
866.137	20404
866.269	20507
866.4	20530
866.531	20377
866.662	20423
866.793	20324
866.924	20442
867.055	20434
867.186	20400
867.317	20320
867.448	20381
867.579	20431
867.71	20385
867.841	20332
867.972	20404
868.103	20434
868.233	20377
868.364	20454
868.495	20583
868.625	20598
868.756	20743
868.886	20648
869.017	20651
869.147	20697
869.278	20800
869.408	20724
869.539	20629
869.669	20724
869.799	20735
869.929	20754
870.06	20758
870.19	20963
870.32	20975
870.45	21013
870.58	21127
870.71	21214
870.84	21230
870.97	21154
871.1	21051
871.23	21241
871.36	21207
871.489	21112
871.619	21287
871.749	21374
871.879	21287
872.008	21443
872.138	21150
872.267	21386
872.397	21165
872.526	21150
872.656	21036
872.785	21138
872.915	21348
873.044	21370
873.173	21165
873.303	21237
873.432	21237
873.561	21325
873.69	21321
873.819	21367
873.948	21431
874.077	21249
874.206	21264
874.335	21424
874.464	21382
874.593	21496
874.722	21393
874.851	21515
874.979	21561
875.108	21564
875.237	21374
875.365	21424
875.494	21595
875.623	21701
875.751	21568
875.88	21477
876.008	21606
876.136	21656
876.265	21987
876.393	22036
876.521	22029
876.65	21926
876.778	22044
876.906	21899
877.034	21861
877.162	21743
877.29	21800
877.418	21941
877.546	21972
877.674	21888
877.802	21797
877.93	21800
878.058	21926
878.185	21759
878.313	21751
878.441	21884
878.568	21781
878.696	21857
878.824	21876
878.951	21888
879.079	22112
879.206	22314
879.333	21941
879.461	21800
879.588	21941
879.715	22021
879.842	22109
879.97	21979
880.097	21694
880.224	21698
880.351	21755
880.478	21701
880.605	21804
880.732	21800
880.859	21911
880.986	21831
881.112	21739
881.239	21553
881.366	21428
881.493	21294
881.619	21112
881.746	21351
881.872	21317
881.999	21291
882.125	21146
882.252	21279
882.378	21279
882.505	21363
882.631	21112
882.757	21024
882.883	21085
883.01	21070
883.136	20925
883.262	20815
883.388	20769
883.514	21043
883.64	21032
883.766	20948
883.892	20788
884.018	20762
884.143	20872
884.269	20998
884.395	20754
884.52	20545
884.646	20762
884.772	20705
884.897	20404
885.023	20571
885.148	20788
885.274	20823
885.399	20853
885.524	20686
885.65	20621
885.775	20731
885.9	20602
886.025	20796
886.15	20739
886.275	20659
886.4	20469
886.525	20484
886.65	20556
886.775	20514
886.9	20762
887.025	20758
887.149	20613
887.274	20545
887.399	20374
887.523	20400
887.648	20286
887.773	20320
887.897	20457
888.021	20480
888.146	20328
888.27	20533
888.395	20457
888.519	20484
888.643	20499
888.767	20522
888.891	20305
889.015	20115
889.139	20225
889.263	20206
889.387	20206
889.511	20393
889.635	20328
889.759	20218
889.883	19982
890.006	20305
890.13	20408
890.254	20096
890.377	20096
890.501	20039
890.624	19898
890.748	20012
890.871	19871
890.995	19750
891.118	19632
891.241	19807
891.364	19856
891.488	19883
891.611	19833
891.734	19784
891.857	19799
891.98	19750
892.103	19795
892.226	19833
892.349	19731
892.471	19586
892.594	19700
892.717	19818
892.839	19658
892.962	19685
893.085	19784
893.207	19662
893.33	19559
893.452	19700
893.575	19761
893.697	19571
893.819	19871
893.941	19894
894.064	19757
894.186	19693
894.308	19537
894.43	19761
894.552	19791
894.674	19875
894.796	19620
894.918	19628
895.04	19693
895.161	19830
895.283	19769
895.405	19594
895.526	19715
895.648	19597
895.769	19639
895.891	19784
896.012	19852
896.134	19795
896.255	19616
896.376	19533
896.498	19689
896.619	19666
896.74	19643
896.861	19715
896.982	20020
897.103	20103
897.224	19906
897.345	19955
897.466	19826
897.587	19932
897.708	19986
897.828	19940
897.949	19772
898.07	19700
898.19	19932
898.311	19951
898.431	19845
898.552	19947
898.672	20050
898.792	20069
898.913	19928
899.033	19814
899.153	19635
899.273	19624
899.393	19715
899.513	19715
899.633	19658
899.753	19708
899.873	19643
899.993	19818
900.113	19544
900.232	19605
900.352	19575
900.472	19514
900.591	19419
900.711	19510
900.83	19377
900.95	19476
901.069	19571
901.189	19514
901.308	19156
901.427	18973
901.546	19091
901.665	19065
901.784	19095
901.904	18909
902.023	18772
902.141	18707
902.26	18563
902.379	18673
902.498	18582
902.617	18521
902.735	18623
902.854	18483
902.973	18391
903.091	18186
903.21	18266
903.328	18323
903.446	18129
903.565	18152
903.683	18087
903.801	17927
903.919	17996
904.038	18072
904.156	17904
904.274	17954
904.392	17805
904.51	17821
904.627	17779
904.745	17729
904.863	17931
904.981	17627
905.098	17459
905.216	17516
905.334	17592
905.451	17516
905.569	17516
905.686	17509
905.803	17436
905.921	17292
906.038	17353
906.155	17395
906.272	17246
906.389	17231
906.506	17025
906.623	17102
906.74	17025
906.857	16927
906.974	16949
907.091	17014
907.208	17216
907.324	17071
907.441	16991
907.557	16771
907.674	16717
907.79	16656
907.907	16626
908.023	16717
908.139	16744
908.256	16656
908.372	16535
908.488	16675
908.604	16508
908.72	16367
908.836	16580
908.952	16424
909.068	16558
909.184	16630
909.3	16569
909.415	16546
909.531	16440
909.647	16303
909.762	16192
909.878	16238
909.993	16150
910.108	16147
910.224	16215
910.339	16215
910.454	16086
910.57	15983
910.685	15899
910.8	16310
910.915	16139
911.03	15979
911.145	15915
911.259	15743
911.374	15720
911.489	15671
911.604	15755
911.718	15564
911.833	15549
911.947	15439
912.062	15458
912.176	15633
912.291	15633
912.405	15603
912.519	15663
912.633	15717
912.748	15656
912.862	15496
912.976	15435
913.09	15157
913.204	15317
913.318	15428
913.431	15397
913.545	15405
913.659	15443
913.772	15268
913.886	15233
914	15180
914.113	15252
914.226	15325
914.34	15272
914.453	15001
914.566	15214
914.68	15108
914.793	14975
914.906	14891
915.019	14815
915.132	14629
915.245	14735
915.358	14815
915.47	14830
915.583	14773
915.696	14712
915.809	14960
915.921	14853
916.034	14735
916.146	14575
916.259	14640
916.371	14754
916.483	14735
916.595	14583
916.708	14560
916.82	14629
916.932	14579
917.044	14556
917.156	14549
917.268	14438
917.38	14511
917.491	14431
917.603	14594
917.715	14427
917.826	14610
917.938	14442
918.049	14164
918.161	14393
918.272	14552
918.384	14492
918.495	14377
918.606	14294
918.717	14202
918.828	14130
918.939	14244
919.05	14153
919.161	14172
919.272	14084
919.383	14149
919.494	14244
919.604	14434
919.715	14183
919.826	14130
919.936	14058
920.047	14240
920.157	14153
920.267	14381
920.378	14187
920.488	14103
920.598	14320
920.708	14514
920.818	14385
920.928	14290
921.038	14415
921.148	14309
921.258	14115
921.368	13936
921.477	13852
921.587	13917
921.697	13928
921.806	13928
921.916	13746
922.025	13559
922.134	13609
922.244	13457
922.353	13613
922.462	13453
922.571	13407
922.68	13301
922.789	13247
922.898	13232
923.007	13122
923.116	13145
923.224	13141
923.333	13149
923.442	13095
923.55	13034
923.659	13095
923.767	13190
923.876	13019
923.984	13053
924.092	13031
924.201	12970
924.309	13015
924.417	12924
924.525	12863
924.633	12863
924.741	13811
924.849	12616
924.956	12795
925.064	12749
925.172	12620
925.279	12582
925.387	12642
925.494	12635
925.602	12779
925.709	12719
925.816	12570
925.924	12642
926.031	12677
926.138	12620
926.245	12566
926.352	12578
926.459	12703
926.566	12749
926.673	12597
926.779	12467
926.886	12361
926.993	12243
927.099	12266
927.206	12155
927.312	12190
927.419	12266
927.525	12243
927.631	12178
927.737	12171
927.843	12060
927.95	11980
928.056	12087
928.162	12133
928.267	12034
928.373	12662
928.479	12015
928.585	11874
928.69	11973
928.796	11980
928.901	11954
929.007	11813
929.112	11904
929.218	11874
929.323	11752
929.428	11748
929.533	11961
929.638	11657
929.743	11707
929.848	11775
929.953	11752
930.058	11653
930.163	11562
930.267	11497
930.372	11646
930.477	11486
930.581	11638
930.685	11493
930.79	11364
930.894	11376
930.998	11273
931.103	11467
931.207	11109
931.311	11056
931.415	11014
931.519	10828
931.623	10812
