Data from test_V78500241_1620.txt Node
Date: Fri Mar 25 15:21:08 CST 2022
User: usil
Spectrometer: V785-0024
Trigger mode: 0
Integration Time (sec): 4.000000E-1
Scans to average: 1
Nonlinearity correction enabled: false
Boxcar width: 0
Storing dark spectrum: false
XAxis mode: Wavelengths
Number of Pixels in Spectrum: 1024
>>>>>Begin Spectral Data<<<<<
801.071	27854
801.214	27743
801.356	27545
801.499	27450
801.641	27363
801.783	27431
801.926	27485
802.068	27363
802.211	27272
802.353	27249
802.496	27100
802.638	27108
802.78	27005
802.923	27062
803.065	26902
803.208	26990
803.35	27077
803.492	27302
803.635	27268
803.777	27188
803.919	27298
804.061	27500
804.204	27233
804.346	27226
804.488	27260
804.63	27218
804.773	27321
804.915	27291
805.057	27443
805.199	27237
805.341	27397
805.483	27466
805.626	27462
805.768	27329
805.91	27370
806.052	27367
806.194	27302
806.336	27580
806.478	27427
806.62	27454
806.762	27469
806.904	27473
807.046	27930
807.188	27774
807.33	27774
807.472	27812
807.614	27812
807.756	27789
807.898	27591
808.04	27618
808.182	27743
808.324	27606
808.465	27671
808.607	27800
808.749	27991
808.891	27994
809.033	28287
809.174	28021
809.316	28051
809.458	28154
809.6	28070
809.741	28192
809.883	28169
810.025	28421
810.166	28287
810.308	28295
810.45	28329
810.591	28211
810.733	28044
810.875	27979
811.016	27895
811.158	27812
811.299	28105
811.441	28185
811.582	28162
811.724	27983
811.865	27979
812.007	27964
812.148	28078
812.29	28032
812.431	28196
812.573	28360
812.714	28713
812.855	28584
812.997	28645
813.138	28820
813.279	28672
813.421	28717
813.562	28512
813.703	28333
813.845	28333
813.986	28017
814.127	27838
814.268	27736
814.41	27793
814.551	27808
814.692	27698
814.833	27701
814.974	27644
815.115	27679
815.256	27603
815.397	27625
815.539	27660
815.68	27534
815.821	27576
815.962	27458
816.103	27614
816.244	27454
816.385	27112
816.526	27329
816.666	27226
816.807	27112
816.948	27150
817.089	27112
817.23	27108
817.371	27013
817.512	26994
817.653	27142
817.793	27028
817.934	27009
818.075	26990
818.216	26895
818.356	26933
818.497	26971
818.638	26686
818.778	26765
818.919	26693
819.06	26845
819.2	26899
819.341	27146
819.481	27001
819.622	27066
819.762	27230
819.903	27306
820.043	27211
820.184	27123
820.324	27135
820.465	27211
820.605	27104
820.746	27112
820.886	26982
821.026	27165
821.167	26979
821.307	27112
821.447	27036
821.588	26960
821.728	26727
821.868	26518
822.008	26492
822.149	26530
822.289	26541
822.429	26305
822.569	26100
822.709	26237
822.849	25966
822.99	25883
823.13	25982
823.27	25913
823.41	25807
823.55	25670
823.69	25845
823.83	25780
823.97	25681
824.11	25628
824.25	25575
824.389	25594
824.529	25635
824.669	25700
824.809	25856
824.949	25689
825.089	25715
825.228	25658
825.368	25479
825.508	25556
825.648	25552
825.787	25422
825.927	25643
826.067	25483
826.206	25411
826.346	25506
826.485	25491
826.625	25506
826.765	25441
826.904	25491
827.044	25289
827.183	25316
827.323	25122
827.462	25232
827.601	25228
827.741	25050
827.88	25301
828.02	25118
828.159	25316
828.298	25251
828.437	25301
828.577	25194
828.716	25240
828.855	25076
828.994	24886
829.134	24943
829.273	24943
829.412	24916
829.551	24859
829.69	25057
829.829	24882
829.968	25099
830.107	24913
830.246	24977
830.385	24821
830.524	24916
830.663	24635
830.802	24608
830.941	24490
831.08	24479
831.219	24559
831.357	24551
831.496	24719
831.635	24426
831.774	24445
831.913	24505
832.051	24300
832.19	24327
832.329	24330
832.467	24174
832.606	24041
832.744	24110
832.883	24144
833.022	24232
833.16	24144
833.299	24213
833.437	24258
833.576	24243
833.714	24159
833.852	24292
833.991	24270
834.129	24308
834.267	24319
834.406	24376
834.544	24414
834.682	24418
834.821	24289
834.959	24380
835.097	24224
835.235	24292
835.373	24251
835.511	24372
835.65	24201
835.788	24060
835.926	23897
836.064	23923
836.202	24026
836.34	24068
836.478	24247
836.615	23950
836.753	24068
836.891	24129
837.029	24129
837.167	24102
837.305	24057
837.443	23999
837.58	23954
837.718	23836
837.856	24106
837.993	23950
838.131	23935
838.269	23798
838.406	23870
838.544	23786
838.681	23707
838.819	23589
838.956	23398
839.094	23509
839.231	23539
839.369	23471
839.506	23828
839.643	23699
839.781	23463
839.918	23376
840.055	23448
840.193	23337
840.33	23212
840.467	23406
840.604	23452
840.742	23665
840.879	23185
841.016	23235
841.153	23318
841.29	23497
841.427	23318
841.564	23360
841.701	23330
841.838	23254
841.975	23261
842.112	23231
842.249	23136
842.385	23006
842.522	23318
842.659	23223
842.796	23064
842.933	23140
843.069	23022
843.206	23102
843.343	23113
843.479	23044
843.616	23170
843.752	22820
843.889	22816
844.025	23003
844.162	23003
844.298	22965
844.435	22892
844.571	22854
844.708	22812
844.844	23117
844.98	22938
845.117	22976
845.253	22858
845.389	22797
845.525	22759
845.661	22729
845.798	22645
845.934	22622
846.07	22637
846.206	22580
846.342	22672
846.478	22554
846.614	22455
846.75	22344
846.886	22379
847.022	22409
847.158	22356
847.294	22402
847.429	22242
847.565	22253
847.701	22672
847.837	22105
847.972	22158
848.108	22101
848.244	22021
848.379	21812
848.515	21926
848.65	21850
848.786	22040
848.921	21964
849.057	22006
849.192	21972
849.328	21941
849.463	21964
849.598	21884
849.734	21739
849.869	21732
850.004	21774
850.14	21835
850.275	21701
850.41	21637
850.545	21663
850.68	21576
850.815	21724
850.95	21675
851.085	21911
851.22	21656
851.355	21755
851.49	21698
851.625	21618
851.76	21705
851.895	21625
852.03	21717
852.165	21545
852.299	21606
852.434	21827
852.569	21629
852.703	21625
852.838	21644
852.973	21876
853.107	21869
853.242	21644
853.376	21545
853.511	21469
853.645	21408
853.78	21682
853.914	21538
854.048	21420
854.183	21420
854.317	21542
854.451	21625
854.585	21447
854.72	21443
854.854	21591
854.988	21348
855.122	21481
855.256	21344
855.39	21408
855.524	21466
855.658	21561
855.792	21553
855.926	21500
856.06	21599
856.194	21591
856.327	21519
856.461	21481
856.595	21374
856.729	21481
856.862	21622
856.996	21580
857.13	21686
857.263	21713
857.397	21564
857.53	21462
857.664	21564
857.797	21515
857.931	21603
858.064	21545
858.197	21629
858.331	21477
858.464	21370
858.597	21378
858.731	21492
858.864	21469
858.997	21561
859.13	21386
859.263	21587
859.396	21526
859.529	21488
859.662	21355
859.795	21416
859.928	21572
860.061	21610
860.194	21690
860.327	21553
860.46	21450
860.592	21637
860.725	21789
860.858	21561
860.99	21485
861.123	21435
861.256	21530
861.388	21393
861.521	22185
861.653	21367
861.786	21313
861.918	21393
862.05	21344
862.183	21363
862.315	21416
862.447	21507
862.58	21439
862.712	21230
862.844	21226
862.976	21408
863.108	21378
863.24	21553
863.372	21199
863.504	21131
863.636	21233
863.768	21176
863.9	21256
864.032	21157
864.164	21142
864.296	21218
864.428	21249
864.559	21241
864.691	21260
864.823	21218
864.954	21165
865.086	21093
865.217	21123
865.349	21024
865.48	21020
865.612	21116
865.743	21294
865.875	20933
866.006	21108
866.137	21074
866.269	21085
866.4	21157
866.531	21055
866.662	21100
866.793	21013
866.924	20994
867.055	21020
867.186	21089
867.317	21093
867.448	20971
867.579	21009
867.71	20853
867.841	20933
867.972	21074
868.103	20963
868.233	21135
868.364	21013
868.495	21047
868.625	21176
868.756	21443
868.886	21195
869.017	21256
869.147	21401
869.278	21378
869.408	21348
869.539	21275
869.669	21386
869.799	21355
869.929	21405
870.06	21332
870.19	21583
870.32	21557
870.45	21576
870.58	21717
870.71	21789
870.84	21816
870.97	21618
871.1	21580
871.23	21804
871.36	21892
871.489	21869
871.619	21797
871.749	21827
871.879	21895
872.008	21956
872.138	21865
872.267	21968
872.397	21694
872.526	21705
872.656	21717
872.785	21656
872.915	21838
873.044	22093
873.173	21899
873.303	21907
873.432	21987
873.561	21979
873.69	21899
873.819	21876
873.948	21926
874.077	21850
874.206	21861
874.335	21857
874.464	21964
874.593	22086
874.722	21983
874.851	22086
874.979	22158
875.108	22196
875.237	22067
875.365	22021
875.494	22112
875.623	22204
875.751	22147
875.88	22086
876.008	22249
876.136	22352
876.265	22504
876.393	22516
876.521	22649
876.65	22478
876.778	22538
876.906	22474
877.034	22421
877.162	22348
877.29	22367
877.418	22413
877.546	22428
877.674	22371
877.802	22481
877.93	22516
878.058	22390
878.185	22318
878.313	22390
878.441	22394
878.568	22348
878.696	22333
878.824	22455
878.951	22599
879.079	22660
879.206	22630
879.333	22573
879.461	22394
879.588	22523
879.715	22474
879.842	22736
879.97	22459
880.097	22322
880.224	22265
880.351	22322
880.478	22135
880.605	22173
880.732	22143
880.859	22557
880.986	22291
881.112	22287
881.239	22158
881.366	21842
881.493	21956
881.619	21755
881.746	21876
881.872	21797
881.999	21747
882.125	21743
882.252	21972
882.378	21724
882.505	21873
882.631	21629
882.757	21439
882.883	21610
883.01	21557
883.136	21591
883.262	21439
883.388	21325
883.514	21660
883.64	21572
883.766	21504
883.892	21272
884.018	21294
884.143	21599
884.269	21538
884.395	21241
884.52	21169
884.646	21154
884.772	21127
884.897	21024
885.023	21302
885.148	21161
885.274	21252
885.399	21351
885.524	21249
885.65	21249
885.775	21062
885.9	21188
886.025	21268
886.15	21298
886.275	21108
886.4	21104
886.525	21165
886.65	21184
886.775	21017
886.9	21245
887.025	21389
887.149	21192
887.274	21081
887.399	20830
887.523	20956
887.648	20887
887.773	20823
887.897	21024
888.021	21039
888.146	20826
888.27	21039
888.395	21055
888.519	20925
888.643	21077
888.767	20967
888.891	20807
889.015	20743
889.139	20815
889.263	20746
889.387	20853
889.511	20979
889.635	20929
889.759	20735
889.883	20609
890.006	20739
890.13	20712
890.254	20727
890.377	20705
890.501	20400
890.624	20492
890.748	20549
890.871	20347
890.995	20278
891.118	20248
891.241	20237
891.364	20271
891.488	20400
891.611	20282
891.734	20404
891.857	20351
891.98	20290
892.103	20320
892.226	20153
892.349	20259
892.471	20199
892.594	20233
892.717	20202
892.839	20240
892.962	20126
893.085	20313
893.207	20111
893.33	20058
893.452	20115
893.575	20278
893.697	20237
893.819	20419
893.941	20473
894.064	20404
894.186	20210
894.308	20206
894.43	20305
894.552	20484
894.674	20267
894.796	20084
894.918	20187
895.04	20084
895.161	20180
895.283	20259
895.405	20142
895.526	20221
895.648	20282
895.769	20240
895.891	20298
896.012	20195
896.134	20237
896.255	20218
896.376	20134
896.498	20153
896.619	20214
896.74	20138
896.861	20195
896.982	20495
897.103	20651
897.224	20408
897.345	20400
897.466	20298
897.587	20484
897.708	20507
897.828	20476
897.949	20412
898.07	20328
898.19	20290
898.311	20499
898.431	20339
898.552	20423
898.672	20484
898.792	20518
898.913	20434
899.033	20301
899.153	20286
899.273	20081
899.393	20142
899.513	20225
899.633	20214
899.753	20282
899.873	20183
899.993	20199
900.113	20153
900.232	20043
900.352	20054
900.472	20024
900.591	19982
900.711	19875
900.83	19868
900.95	20024
901.069	19944
901.189	19917
901.308	19681
901.427	19548
901.546	19510
901.665	19578
901.784	19499
901.904	19457
902.023	19339
902.141	19141
902.26	19046
902.379	19137
902.498	19034
902.617	18916
902.735	19194
902.854	19023
902.973	18878
903.091	18821
903.21	18582
903.328	18540
903.446	18681
903.565	18555
903.683	18604
903.801	18323
903.919	18464
904.038	18437
904.156	18304
904.274	18372
904.392	18197
904.51	18220
904.627	18140
904.745	18247
904.863	18361
904.981	18019
905.098	17813
905.216	17863
905.334	17912
905.451	17969
905.569	17901
905.686	18011
905.803	17939
905.921	17840
906.038	17851
906.155	17733
906.272	17596
906.389	17699
906.506	17448
906.623	17558
906.74	17353
906.857	17417
906.974	17421
907.091	17551
907.208	17615
907.324	17543
907.441	17368
907.557	17231
907.674	17231
907.79	17140
907.907	17109
908.023	17227
908.139	17170
908.256	17090
908.372	17079
908.488	17151
908.604	17010
908.72	16869
908.836	16904
908.952	16900
909.068	16987
909.184	17079
909.3	16881
909.415	17003
909.531	16892
909.647	16694
909.762	16637
909.878	16653
909.993	16603
910.108	16554
910.224	16603
910.339	16599
910.454	16432
910.57	16478
910.685	16481
910.8	16634
910.915	16626
911.03	16360
911.145	16306
911.259	16234
911.374	16162
911.489	16078
911.604	16154
911.718	15922
911.833	16097
911.947	15884
912.062	15823
912.176	15975
912.291	15937
912.405	15994
912.519	16223
912.633	16109
912.748	15964
912.862	15930
912.976	15873
913.09	15656
913.204	15793
913.318	15800
913.431	15945
913.545	15884
913.659	15899
913.772	15755
913.886	15618
914	15663
914.113	15705
914.226	15759
914.34	15591
914.453	15481
914.566	15667
914.68	15504
914.793	15435
914.906	15237
915.019	15207
915.132	15146
915.245	15192
915.358	15256
915.47	15283
915.583	15108
915.696	15302
915.809	15310
915.921	15310
916.034	15127
916.146	15070
916.259	15112
916.371	15169
916.483	15165
916.595	15077
916.708	15112
916.82	14990
916.932	14948
917.044	14933
917.156	14982
917.268	14868
917.38	14864
917.491	14906
917.603	14933
917.715	14952
917.826	14944
917.938	14796
918.049	14769
918.161	14735
918.272	14937
918.384	14937
918.495	14842
918.606	14667
918.717	14556
918.828	14674
918.939	14632
919.05	14503
919.161	14651
919.272	14446
919.383	14423
919.494	14583
919.604	14826
919.715	14526
919.826	14412
919.936	14587
920.047	14629
920.157	14693
920.267	14754
920.378	14571
920.488	14476
920.598	14712
920.708	14880
920.818	14590
920.928	14743
921.038	14845
921.148	14670
921.258	14537
921.368	14465
921.477	14355
921.587	14362
921.697	14210
921.806	14324
921.916	14168
922.025	14031
922.134	13856
922.244	13860
922.353	13982
922.462	13830
922.571	13712
922.68	13666
922.789	13624
922.898	13651
923.007	13548
923.116	13586
923.224	13525
923.333	13571
923.442	13483
923.55	13445
923.659	13403
923.767	13434
923.876	13365
923.984	13502
924.092	13316
924.201	13350
924.309	13324
924.417	13369
924.525	13285
924.633	13274
924.741	14100
924.849	13015
924.956	13171
925.064	13012
925.172	12852
925.279	13023
925.387	13027
925.494	12989
925.602	13141
925.709	13069
925.816	12913
925.924	12947
926.031	12958
926.138	12909
926.245	12913
926.352	12920
926.459	13042
926.566	12943
926.673	12871
926.779	12730
926.886	12642
926.993	12604
927.099	12601
927.206	12521
927.312	12525
927.419	12696
927.525	12551
927.631	12612
927.737	12521
927.843	12357
927.95	12266
928.056	12437
928.162	12445
928.267	12456
928.373	12985
928.479	12437
928.585	12194
928.69	12330
928.796	12517
928.901	12273
929.007	12106
929.112	12228
929.218	12148
929.323	12186
929.428	12095
929.533	12243
929.638	12102
929.743	12041
929.848	12125
929.953	12072
930.058	12022
930.163	11760
930.267	11836
930.372	11942
930.477	11718
930.581	11939
930.685	11878
930.79	11707
930.894	11634
930.998	11638
931.103	11783
931.207	11421
931.311	11364
931.415	11280
931.519	11048
931.623	11022
