Data from test_V78500241_687.txt Node
Date: Fri Mar 25 15:14:38 CST 2022
User: usil
Spectrometer: V785-0024
Trigger mode: 0
Integration Time (sec): 4.000000E-1
Scans to average: 1
Nonlinearity correction enabled: false
Boxcar width: 0
Storing dark spectrum: false
XAxis mode: Wavelengths
Number of Pixels in Spectrum: 1024
>>>>>Begin Spectral Data<<<<<
801.071	28090
801.214	28059
801.356	27800
801.499	27842
801.641	27766
801.783	27739
801.926	27671
802.068	27724
802.211	27542
802.353	27454
802.496	27389
802.638	27488
802.78	27447
802.923	27401
803.065	27348
803.208	27462
803.35	27363
803.492	27389
803.635	27485
803.777	27454
803.919	27690
804.061	27865
804.204	27614
804.346	27587
804.488	27435
804.63	27610
804.773	27408
804.915	27675
805.057	27629
805.199	27477
805.341	27633
805.483	27827
805.626	27599
805.768	27458
805.91	27724
806.052	27785
806.194	27774
806.336	27922
806.478	27736
806.62	27656
806.762	27876
806.904	27914
807.046	28280
807.188	28147
807.33	27968
807.472	28124
807.614	28074
807.756	28120
807.898	28109
808.04	27934
808.182	27911
808.324	27911
808.465	27907
808.607	28177
808.749	28249
808.891	28523
809.033	28626
809.174	28394
809.316	28413
809.458	28436
809.6	28432
809.741	28478
809.883	28588
810.025	28748
810.166	28759
810.308	28710
810.45	28698
810.591	28710
810.733	28459
810.875	28542
811.016	28234
811.158	28204
811.299	28432
811.441	28512
811.582	28596
811.724	28470
811.865	28504
812.007	28443
812.148	28295
812.29	28333
812.431	28584
812.573	28793
812.714	28820
812.855	29022
812.997	29083
813.138	29128
813.279	29204
813.421	29025
813.562	28854
813.703	28866
813.845	28672
813.986	28424
814.127	28090
814.268	28112
814.41	28230
814.551	28025
814.692	28226
814.833	28029
814.974	28070
815.115	28128
815.256	28040
815.397	28044
815.539	28032
815.68	27835
815.821	27903
815.962	27998
816.103	27979
816.244	27720
816.385	27622
816.526	27682
816.666	27485
816.807	27386
816.948	27504
817.089	27599
817.23	27477
817.371	27447
817.512	27332
817.653	27424
817.793	27382
817.934	27336
818.075	27378
818.216	27496
818.356	27336
818.497	27275
818.638	27173
818.778	27150
818.919	27112
819.06	27218
819.2	27184
819.341	27329
819.481	27405
819.622	27595
819.762	27606
819.903	27679
820.043	27477
820.184	27580
820.324	27701
820.465	27481
820.605	27561
820.746	27507
820.886	27363
821.026	27591
821.167	27469
821.307	27568
821.447	27405
821.588	27401
821.728	27260
821.868	27112
822.008	26895
822.149	26849
822.289	26857
822.429	26590
822.569	26564
822.709	26507
822.849	26377
822.99	26457
823.13	26248
823.27	26389
823.41	26187
823.55	26088
823.69	26206
823.83	26153
823.97	26202
824.11	26043
824.25	25932
824.389	25928
824.529	26180
824.669	25989
824.809	26096
824.949	26111
825.089	26164
825.228	25944
825.368	25860
825.508	25906
825.648	25947
825.787	25966
825.927	26077
826.067	26065
826.206	25826
826.346	25902
826.485	25986
826.625	25841
826.765	26008
826.904	25837
827.044	25689
827.183	25818
827.323	25670
827.462	25601
827.601	25780
827.741	25616
827.88	25567
828.02	25502
828.159	25582
828.298	25586
828.437	25719
828.577	25476
828.716	25590
828.855	25563
828.994	25293
829.134	25365
829.273	25270
829.412	25301
829.551	25225
829.69	25312
829.829	25392
829.968	25381
830.107	25483
830.246	25377
830.385	25312
830.524	25255
830.663	25217
830.802	24897
830.941	24875
831.08	24989
831.219	24890
831.357	25004
831.496	25065
831.635	24970
831.774	24928
831.913	24856
832.051	24757
832.19	24650
832.329	24597
832.467	24525
832.606	24563
832.744	24521
832.883	24593
833.022	24627
833.16	24483
833.299	24646
833.437	24593
833.576	24669
833.714	24536
833.852	24882
833.991	24783
834.129	24715
834.267	24738
834.406	24669
834.544	24719
834.682	24677
834.821	24692
834.959	24920
835.097	24589
835.235	24741
835.373	24681
835.511	24681
835.65	24464
835.788	24475
835.926	24311
836.064	24224
836.202	24311
836.34	24593
836.478	24483
836.615	24627
836.753	24460
836.891	24608
837.029	24464
837.167	24399
837.305	24380
837.443	24433
837.58	24323
837.718	24464
837.856	24395
837.993	24220
838.131	24216
838.269	24300
838.406	24148
838.544	23961
838.681	24060
838.819	23931
838.956	23752
839.094	23912
839.231	23889
839.369	23836
839.506	24178
839.643	24022
839.781	23863
839.918	23630
840.055	23710
840.193	23718
840.33	23790
840.467	23756
840.604	23596
840.742	23904
840.879	23573
841.016	23528
841.153	23615
841.29	23813
841.427	23627
841.564	23745
841.701	23661
841.838	23805
841.975	23722
842.112	23558
842.249	23539
842.385	23512
842.522	23714
842.659	23444
842.796	23429
842.933	23493
843.069	23425
843.206	23299
843.343	23444
843.479	23467
843.616	23452
843.752	23208
843.889	23128
844.025	23448
844.162	23200
844.298	23318
844.435	23292
844.571	23071
844.708	23239
844.844	23356
844.98	23425
845.117	23330
845.253	23185
845.389	23102
845.525	23079
845.661	23033
845.798	22987
845.934	23056
846.07	22774
846.206	22980
846.342	23140
846.478	22957
846.614	22786
846.75	22691
846.886	22679
847.022	22736
847.158	22721
847.294	22797
847.429	22607
847.565	22599
847.701	22881
847.837	22538
847.972	22284
848.108	22516
848.244	22607
848.379	22348
848.515	22276
848.65	22181
848.786	22306
848.921	22306
849.057	22367
849.192	22348
849.328	22379
849.463	22303
849.598	22230
849.734	22192
849.869	22150
850.004	22051
850.14	22158
850.275	22059
850.41	22006
850.545	22070
850.68	21987
850.815	22040
850.95	22013
851.085	22177
851.22	22139
851.355	22055
851.49	21991
851.625	22006
851.76	22051
851.895	22044
852.03	21979
852.165	21994
852.299	22067
852.434	22147
852.569	22002
852.703	22040
852.838	22074
852.973	22246
853.107	22154
853.242	21941
853.376	21937
853.511	21717
853.645	21842
853.78	21907
853.914	21899
854.048	21800
854.183	21918
854.317	21876
854.451	22185
854.585	21873
854.72	21812
854.854	22067
854.988	21831
855.122	21854
855.256	21724
855.39	21732
855.524	21869
855.658	21907
855.792	21804
855.926	21922
856.06	21915
856.194	21960
856.327	21747
856.461	21884
856.595	21751
856.729	21873
856.862	22032
856.996	21915
857.13	21918
857.263	21987
857.397	21892
857.53	21915
857.664	21907
857.797	21949
857.931	21937
858.064	21972
858.197	21888
858.331	21819
858.464	21785
858.597	21751
858.731	21781
858.864	21755
858.997	21781
859.13	21850
859.263	21903
859.396	21937
859.529	21854
859.662	21884
859.795	21686
859.928	21808
860.061	21930
860.194	22109
860.327	21793
860.46	21770
860.592	21991
860.725	21892
860.858	21869
860.99	21934
861.123	21766
861.256	21724
861.388	21895
861.521	22603
861.653	21778
861.786	21701
861.918	21686
862.05	21679
862.183	21717
862.315	21770
862.447	21781
862.58	21732
862.712	21557
862.844	21553
862.976	21553
863.108	21644
863.24	22006
863.372	21439
863.504	21572
863.636	21469
863.768	21599
863.9	21568
864.032	21496
864.164	21450
864.296	21618
864.428	21561
864.559	21629
864.691	21587
864.823	21523
864.954	21557
865.086	21496
865.217	21538
865.349	21416
865.48	21488
865.612	21435
865.743	21466
865.875	21637
866.006	21473
866.137	21389
866.269	21473
866.4	21439
866.531	21329
866.662	21386
866.793	21298
866.924	21306
867.055	21370
867.186	21355
867.317	21222
867.448	21389
867.579	21408
867.71	21355
867.841	21359
867.972	21428
868.103	21302
868.233	21268
868.364	21435
868.495	21481
868.625	21610
868.756	21648
868.886	21599
869.017	21610
869.147	21755
869.278	21717
869.408	21641
869.539	21736
869.669	21660
869.799	21660
869.929	21698
870.06	21770
870.19	21907
870.32	21922
870.45	21953
870.58	22051
870.71	22006
870.84	22017
870.97	21975
871.1	22082
871.23	22249
871.36	22234
871.489	22010
871.619	22147
871.749	22070
871.879	22166
872.008	22280
872.138	22192
872.267	22200
872.397	22067
872.526	21983
872.656	21911
872.785	22002
872.915	22284
873.044	22417
873.173	22063
873.303	22249
873.432	22223
873.561	22215
873.69	22253
873.819	22185
873.948	22249
874.077	22246
874.206	22192
874.335	22192
874.464	22333
874.593	22375
874.722	22398
874.851	22459
874.979	22341
875.108	22382
875.237	22451
875.365	22295
875.494	22440
875.623	22664
875.751	22379
875.88	22424
876.008	22512
876.136	22577
876.265	22733
876.393	22752
876.521	22816
876.65	22873
876.778	22797
876.906	22793
877.034	22881
877.162	22744
877.29	22694
877.418	22721
877.546	22733
877.674	22919
877.802	22717
877.93	22649
878.058	22717
878.185	22565
878.313	22702
878.441	22637
878.568	22615
878.696	22672
878.824	22828
878.951	22835
879.079	22942
879.206	23056
879.333	22995
879.461	22733
879.588	22923
879.715	22995
879.842	23018
879.97	22786
880.097	22694
880.224	22641
880.351	22653
880.478	22660
880.605	22592
880.732	22478
880.859	22873
880.986	22527
881.112	22554
881.239	22489
881.366	22375
881.493	22284
881.619	22265
881.746	22154
881.872	22147
881.999	22147
882.125	22166
882.252	22181
882.378	22063
882.505	22268
882.631	21937
882.757	21850
882.883	21960
883.01	21812
883.136	21785
883.262	21564
883.388	21709
883.514	21816
883.64	21930
883.766	21797
883.892	21648
884.018	21561
884.143	21778
884.269	21793
884.395	21568
884.52	21355
884.646	21492
884.772	21583
884.897	21397
885.023	21458
885.148	21656
885.274	21625
885.399	21504
885.524	21515
885.65	21622
885.775	21473
885.9	21469
886.025	21542
886.15	21519
886.275	21492
886.4	21431
886.525	21450
886.65	21363
886.775	21408
886.9	21462
887.025	21690
887.149	21526
887.274	21325
887.399	21226
887.523	21203
887.648	21188
887.773	21165
887.897	21298
888.021	21222
888.146	21188
888.27	21488
888.395	21332
888.519	21469
888.643	21329
888.767	21367
888.891	21173
889.015	21032
889.139	21119
889.263	20948
889.387	21169
889.511	21169
889.635	21089
889.759	20906
889.883	21013
890.006	21074
890.13	21020
890.254	21123
890.377	20971
890.501	20823
890.624	20670
890.748	20849
890.871	20735
890.995	20632
891.118	20735
891.241	20625
891.364	20446
891.488	20712
891.611	20575
891.734	20686
891.857	20716
891.98	20579
892.103	20655
892.226	20533
892.349	20609
892.471	20309
892.594	20503
892.717	20530
892.839	20332
892.962	20503
893.085	20617
893.207	20545
893.33	20393
893.452	20332
893.575	20530
893.697	20537
893.819	20693
893.941	20674
894.064	20689
894.186	20389
894.308	20393
894.43	20640
894.552	20575
894.674	20568
894.796	20438
894.918	20530
895.04	20522
895.161	20461
895.283	20541
895.405	20518
895.526	20545
895.648	20454
895.769	20427
895.891	20571
896.012	20533
896.134	20465
896.255	20431
896.376	20556
896.498	20499
896.619	20530
896.74	20336
896.861	20507
896.982	20773
897.103	21024
897.224	20819
897.345	20781
897.466	20659
897.587	20655
897.708	20857
897.828	20823
897.949	20541
898.07	20537
898.19	20629
898.311	20746
898.431	20454
898.552	20651
898.672	20807
898.792	20746
898.913	20682
899.033	20564
899.153	20476
899.273	20396
899.393	20389
899.513	20393
899.633	20495
899.753	20514
899.873	20427
899.993	20507
900.113	20358
900.232	20427
900.352	20362
900.472	20263
900.591	20218
900.711	20153
900.83	20221
900.95	20218
901.069	20320
901.189	20115
901.308	19909
901.427	19685
901.546	19784
901.665	19795
901.784	19761
901.904	19635
902.023	19628
902.141	19289
902.26	19396
902.379	19445
902.498	19297
902.617	19198
902.735	19464
902.854	19232
902.973	19312
903.091	19050
903.21	18958
903.328	18920
903.446	18875
903.565	18882
903.683	18738
903.801	18684
903.919	18776
904.038	18741
904.156	18661
904.274	18608
904.392	18566
904.51	18563
904.627	18467
904.745	18639
904.863	18559
904.981	18277
905.098	18285
905.216	18155
905.334	18213
905.451	18148
905.569	18254
905.686	18239
905.803	18182
905.921	18064
906.038	18041
906.155	17904
906.272	17897
906.389	17821
906.506	17771
906.623	17821
906.74	17783
906.857	17710
906.974	17703
907.091	17874
907.208	17889
907.324	17726
907.441	17589
907.557	17478
907.674	17410
907.79	17493
907.907	17417
908.023	17391
908.139	17395
908.256	17448
908.372	17349
908.488	17341
908.604	17250
908.72	17143
908.836	17181
908.952	17269
909.068	17166
909.184	17273
909.3	17200
909.415	17121
909.531	17086
909.647	16854
909.762	16965
909.878	16835
909.993	16911
910.108	16927
910.224	16755
910.339	16881
910.454	16706
910.57	16649
910.685	16527
910.8	16915
910.915	16801
911.03	16694
911.145	16474
911.259	16519
911.374	16402
911.489	16481
911.604	16303
911.718	16329
911.833	16238
911.947	16120
912.062	16067
912.176	16200
912.291	16188
912.405	16192
912.519	16379
912.633	16356
912.748	16196
912.862	16181
912.976	15987
913.09	15793
913.204	15934
913.318	16055
913.431	16120
913.545	16071
913.659	16105
913.772	15945
913.886	15823
914	15850
914.113	15975
914.226	15994
914.34	15789
914.453	15629
914.566	15861
914.68	15694
914.793	15663
914.906	15428
915.019	15473
915.132	15431
915.245	15500
915.358	15492
915.47	15393
915.583	15408
915.696	15519
915.809	15568
915.921	15530
916.034	15397
916.146	15184
916.259	15389
916.371	15412
916.483	15348
916.595	15150
916.708	15294
916.82	15287
916.932	15317
917.044	15230
917.156	15108
917.268	15058
917.38	15093
917.491	15062
917.603	15039
917.715	15116
917.826	15195
917.938	14971
918.049	14891
918.161	14921
918.272	15135
918.384	15017
918.495	14891
918.606	14811
918.717	14727
918.828	14838
918.939	14849
919.05	14686
919.161	14830
919.272	14492
919.383	14655
919.494	14887
919.604	14998
919.715	14739
919.826	14602
919.936	14754
920.047	14868
920.157	14746
920.267	14899
920.378	14777
920.488	14762
920.598	14861
920.708	15028
920.818	14838
920.928	14902
921.038	15127
921.148	15005
921.258	14716
921.368	14606
921.477	14503
921.587	14469
921.697	14393
921.806	14530
921.916	14339
922.025	14183
922.134	14145
922.244	14103
922.353	14206
922.462	14043
922.571	13837
922.68	13811
922.789	13780
922.898	13776
923.007	13761
923.116	13803
923.224	13700
923.333	13731
923.442	13636
923.55	13518
923.659	13636
923.767	13567
923.876	13563
923.984	13601
924.092	13453
924.201	13514
924.309	13537
924.417	13529
924.525	13384
924.633	13438
924.741	14119
924.849	13312
924.956	13377
925.064	13175
925.172	13152
925.279	13133
925.387	13164
925.494	13225
925.602	13301
925.709	13274
925.816	13133
925.924	13129
926.031	13133
926.138	13076
926.245	13149
926.352	13069
926.459	13168
926.566	13114
926.673	13137
926.779	12951
926.886	12905
926.993	12719
927.099	12745
927.206	12650
927.312	12642
927.419	12776
927.525	12730
927.631	12753
927.737	12589
927.843	12585
927.95	12441
928.056	12601
928.162	12555
928.267	12589
928.373	13160
928.479	12627
928.585	12426
928.69	12414
928.796	12486
928.901	12372
929.007	12292
929.112	12410
929.218	12327
929.323	12399
929.428	12186
929.533	12384
929.638	12171
929.743	12228
929.848	12266
929.953	12304
930.058	12136
930.163	12003
930.267	11954
930.372	12079
930.477	11824
930.581	12148
930.685	12022
930.79	11794
930.894	11908
930.998	11813
931.103	11916
931.207	11615
931.311	11524
931.415	11383
931.519	11277
931.623	11132
