Data from test_V78500241_3273.txt Node
Date: Fri Mar 25 15:32:39 CST 2022
User: usil
Spectrometer: V785-0024
Trigger mode: 0
Integration Time (sec): 4.000000E-1
Scans to average: 1
Nonlinearity correction enabled: false
Boxcar width: 0
Storing dark spectrum: false
XAxis mode: Wavelengths
Number of Pixels in Spectrum: 1024
>>>>>Begin Spectral Data<<<<<
801.071	27279
801.214	27180
801.356	27112
801.499	27123
801.641	26914
801.783	26754
801.926	27024
802.068	26785
802.211	26830
802.353	26636
802.496	26655
802.638	26518
802.78	26480
802.923	26583
803.065	26476
803.208	26389
803.35	26492
803.492	26663
803.635	26598
803.777	26632
803.919	26746
804.061	27081
804.204	26773
804.346	26503
804.488	26564
804.63	26587
804.773	26511
804.915	26796
805.057	26804
805.199	26667
805.341	26689
805.483	26895
805.626	26754
805.768	26781
805.91	26731
806.052	26830
806.194	26724
806.336	27039
806.478	26796
806.62	26743
806.762	26883
806.904	26982
807.046	27287
807.188	27146
807.33	27184
807.472	27279
807.614	27176
807.756	27096
807.898	27058
808.04	27070
808.182	26918
808.324	26975
808.465	27108
808.607	27310
808.749	27279
808.891	27454
809.033	27622
809.174	27515
809.316	27405
809.458	27287
809.6	27336
809.741	27405
809.883	27549
810.025	27717
810.166	27660
810.308	27682
810.45	27633
810.591	27686
810.733	27477
810.875	27405
811.016	27317
811.158	27298
811.299	27500
811.441	27561
811.582	27500
811.724	27401
811.865	27287
812.007	27329
812.148	27389
812.29	27462
812.431	27599
812.573	27682
812.714	27823
812.855	27835
812.997	27892
813.138	28013
813.279	27899
813.421	27831
813.562	27728
813.703	27736
813.845	27557
813.986	27329
814.127	27207
814.268	27074
814.41	26933
814.551	27051
814.692	27081
814.833	26994
814.974	27032
815.115	27009
815.256	26849
815.397	26948
815.539	26948
815.68	26811
815.821	26762
815.962	26849
816.103	26819
816.244	26678
816.385	26575
816.526	26564
816.666	26339
816.807	26221
816.948	26328
817.089	26465
817.23	26336
817.371	26206
817.512	26347
817.653	26358
817.793	26320
817.934	26199
818.075	26370
818.216	26305
818.356	26252
818.497	26278
818.638	26073
818.778	26020
818.919	26115
819.06	26119
819.2	26221
819.341	26263
819.481	26358
819.622	26488
819.762	26583
819.903	26450
820.043	26537
820.184	26393
820.324	26480
820.465	26583
820.605	26431
820.746	26370
820.886	26366
821.026	26415
821.167	26358
821.307	26374
821.447	26298
821.588	26161
821.728	26142
821.868	25925
822.008	25704
822.149	25674
822.289	25818
822.429	25559
822.569	25365
822.709	25354
822.849	25312
822.99	25327
823.13	25137
823.27	25209
823.41	25019
823.55	25004
823.69	25057
823.83	25023
823.97	25088
824.11	24867
824.25	24760
824.389	25012
824.529	25023
824.669	24848
824.809	24951
824.949	24977
825.089	24913
825.228	24913
825.368	24795
825.508	24734
825.648	24859
825.787	24741
825.927	24833
826.067	24795
826.206	24825
826.346	24859
826.485	24814
826.625	24753
826.765	24837
826.904	24802
827.044	24658
827.183	24681
827.323	24467
827.462	24635
827.601	24540
827.741	24494
827.88	24418
828.02	24372
828.159	24544
828.298	24517
828.437	24486
828.577	24471
828.716	24612
828.855	24471
828.994	24121
829.134	24155
829.273	24277
829.412	24197
829.551	24178
829.69	24247
829.829	24254
829.968	24194
830.107	24285
830.246	24327
830.385	24273
830.524	24038
830.663	24121
830.802	23984
830.941	23771
831.08	23680
831.219	23889
831.357	23916
831.496	24015
831.635	23863
831.774	23775
831.913	23821
832.051	23653
832.19	23554
832.329	23592
832.467	23398
832.606	23467
832.744	23444
832.883	23509
833.022	23425
833.16	23600
833.299	23589
833.437	23570
833.576	23703
833.714	23558
833.852	23554
833.991	23573
834.129	23703
834.267	23653
834.406	23661
834.544	23627
834.682	23627
834.821	23611
834.959	23775
835.097	23570
835.235	23676
835.373	23543
835.511	23615
835.65	23455
835.788	23471
835.926	23296
836.064	23220
836.202	23326
836.34	23341
836.478	23516
836.615	23421
836.753	23398
836.891	23547
837.029	23425
837.167	23433
837.305	23330
837.443	23235
837.58	23250
837.718	23379
837.856	23417
837.993	23159
838.131	23235
838.269	23185
838.406	23246
838.544	23174
838.681	22946
838.819	22812
838.956	22672
839.094	22721
839.231	22881
839.369	22889
839.506	23204
839.643	22965
839.781	22786
839.918	22668
840.055	22698
840.193	22523
840.33	22698
840.467	22694
840.604	22866
840.742	22873
840.879	22596
841.016	22565
841.153	22660
841.29	22782
841.427	22641
841.564	22725
841.701	22603
841.838	22611
841.975	22634
842.112	22679
842.249	22584
842.385	22478
842.522	22649
842.659	22443
842.796	22424
842.933	22538
843.069	22375
843.206	22402
843.343	22443
843.479	22470
843.616	22459
843.752	22169
843.889	22158
844.025	22394
844.162	22188
844.298	22234
844.435	22116
844.571	22185
844.708	22333
844.844	22447
844.98	22234
845.117	22276
845.253	22207
845.389	22074
845.525	22097
845.661	22070
845.798	21838
845.934	22082
846.07	21934
846.206	22040
846.342	21991
846.478	21964
846.614	21808
846.75	21652
846.886	21511
847.022	21747
847.158	21698
847.294	21713
847.429	21720
847.565	21736
847.701	21915
847.837	21424
847.972	21367
848.108	21542
848.244	21526
848.379	21279
848.515	21233
848.65	21279
848.786	21378
848.921	21165
849.057	21287
849.192	21317
849.328	21397
849.463	21325
849.598	21283
849.734	21207
849.869	21199
850.004	20982
850.14	21005
850.275	21161
850.41	20902
850.545	20876
850.68	20910
850.815	21058
850.95	21119
851.085	21203
851.22	21047
851.355	21085
851.49	20986
851.625	21096
851.76	21062
851.895	20975
852.03	21009
852.165	21058
852.299	21127
852.434	21138
852.569	21032
852.703	20975
852.838	21039
852.973	21146
853.107	21108
853.242	20975
853.376	20872
853.511	20804
853.645	20883
853.78	20887
853.914	20849
854.048	20826
854.183	20834
854.317	20883
854.451	21051
854.585	21013
854.72	20864
854.854	20921
854.988	20754
855.122	20807
855.256	20743
855.39	20921
855.524	20845
855.658	20910
855.792	20914
855.926	21009
856.06	20998
856.194	20975
856.327	20853
856.461	20842
856.595	20819
856.729	20796
856.862	20967
856.996	20979
857.13	20906
857.263	20952
857.397	20975
857.53	20880
857.664	20883
857.797	20960
857.931	21009
858.064	20838
858.197	21024
858.331	20830
858.464	20845
858.597	20773
858.731	20754
858.864	20868
858.997	20906
859.13	20746
859.263	20872
859.396	20956
859.529	20739
859.662	20811
859.795	20838
859.928	20876
860.061	20944
860.194	20952
860.327	20906
860.46	20906
860.592	20967
860.725	20990
860.858	21009
860.99	20834
861.123	20765
861.256	20815
861.388	20937
861.521	21393
861.653	20811
861.786	20678
861.918	20651
862.05	20682
862.183	20758
862.315	20849
862.447	20883
862.58	20857
862.712	20663
862.844	20568
862.976	20800
863.108	20663
863.24	21062
863.372	20552
863.504	20579
863.636	20648
863.768	20746
863.9	20663
864.032	20507
864.164	20659
864.296	20678
864.428	20762
864.559	20743
864.691	20693
864.823	20830
864.954	20655
865.086	20469
865.217	20545
865.349	20454
865.48	20549
865.612	20530
865.743	20625
865.875	20511
866.006	20469
866.137	20598
866.269	20355
866.4	20381
866.531	20412
866.662	20404
866.793	20454
866.924	20492
867.055	20450
867.186	20370
867.317	20370
867.448	20412
867.579	20434
867.71	20381
867.841	20244
867.972	20511
868.103	20317
868.233	20495
868.364	20446
868.495	20537
868.625	20617
868.756	20868
868.886	20678
869.017	20731
869.147	20792
869.278	20731
869.408	20682
869.539	20663
869.669	20716
869.799	20708
869.929	20788
870.06	20857
870.19	21039
870.32	20914
870.45	21032
870.58	21005
870.71	21214
870.84	21131
870.97	21081
871.1	20986
871.23	21321
871.36	21401
871.489	21058
871.619	21332
871.749	21233
871.879	21405
872.008	21401
872.138	21291
872.267	21287
872.397	21192
872.526	21070
872.656	21058
872.785	21249
872.915	21389
873.044	21355
873.173	21275
873.303	21325
873.432	21397
873.561	21439
873.69	21268
873.819	21408
873.948	21336
874.077	21313
874.206	21222
874.335	21287
874.464	21374
874.593	21553
874.722	21458
874.851	21488
874.979	21564
875.108	21545
875.237	21496
875.365	21374
875.494	21526
875.623	21656
875.751	21466
875.88	21462
876.008	21591
876.136	21724
876.265	22002
876.393	22101
876.521	22059
876.65	22078
876.778	21835
876.906	21911
877.034	21835
877.162	22055
877.29	21793
877.418	21899
877.546	21842
877.674	22032
877.802	21876
877.93	21964
878.058	21835
878.185	21778
878.313	21964
878.441	21865
878.568	21576
878.696	21808
878.824	21911
878.951	21880
879.079	22112
879.206	22143
879.333	22017
879.461	22101
879.588	21968
879.715	22101
879.842	22204
879.97	21972
880.097	21831
880.224	21694
880.351	21679
880.478	21789
880.605	21709
880.732	21705
880.859	21835
880.986	21743
881.112	21701
881.239	21743
881.366	21454
881.493	21416
881.619	21321
881.746	21378
881.872	21298
881.999	21382
882.125	21211
882.252	21393
882.378	21203
882.505	21386
882.631	21237
882.757	21043
882.883	21211
883.01	21047
883.136	21024
883.262	20918
883.388	20918
883.514	21043
883.64	21119
883.766	20982
883.892	20712
884.018	20838
884.143	21070
884.269	21119
884.395	20800
884.52	20625
884.646	20655
884.772	20560
884.897	20465
885.023	20526
885.148	20788
885.274	20826
885.399	20777
885.524	20629
885.65	20663
885.775	20792
885.9	20621
886.025	20727
886.15	20727
886.275	20697
886.4	20644
886.525	20632
886.65	20480
886.775	20469
886.9	20815
887.025	20914
887.149	20659
887.274	20423
887.399	20484
887.523	20465
887.648	20320
887.773	20252
887.897	20560
888.021	20511
888.146	20347
888.27	20560
888.395	20552
888.519	20484
888.643	20434
888.767	20377
888.891	20377
889.015	20351
889.139	20446
889.263	20229
889.387	20438
889.511	20339
889.635	20415
889.759	20161
889.883	20172
890.006	20336
890.13	20366
890.254	20199
890.377	20202
890.501	19993
890.624	19959
890.748	19944
890.871	19814
890.995	19780
891.118	19742
891.241	19746
891.364	19837
891.488	20020
891.611	19833
891.734	19791
891.857	19852
891.98	19845
892.103	19852
892.226	19803
892.349	19765
892.471	19571
892.594	19753
892.717	19871
892.839	19772
892.962	19715
893.085	19734
893.207	19693
893.33	19582
893.452	19609
893.575	19849
893.697	19769
893.819	19830
893.941	19887
894.064	19830
894.186	19712
894.308	19613
894.43	19875
894.552	19879
894.674	19822
894.796	19590
894.918	19734
895.04	19662
895.161	19879
895.283	19772
895.405	19830
895.526	19746
895.648	19609
895.769	19681
895.891	19753
896.012	19731
896.134	19791
896.255	19609
896.376	19738
896.498	19700
896.619	19731
896.74	19628
896.861	19791
896.982	20081
897.103	20176
897.224	19967
897.345	19868
897.466	19864
897.587	19993
897.708	20077
897.828	19936
897.949	19986
898.07	19811
898.19	19913
898.311	20043
898.431	19890
898.552	19959
898.672	20035
898.792	20050
898.913	19947
899.033	19883
899.153	19791
899.273	19765
899.393	19761
899.513	19765
899.633	19620
899.753	19693
899.873	19632
899.993	19841
900.113	19651
900.232	19734
900.352	19578
900.472	19533
900.591	19346
900.711	19544
900.83	19346
900.95	19510
901.069	19613
901.189	19426
901.308	19225
901.427	19107
901.546	19091
901.665	19175
901.784	19088
901.904	18894
902.023	18810
902.141	18658
902.26	18661
902.379	18779
902.498	18654
902.617	18623
902.735	18479
902.854	18566
902.973	18483
903.091	18281
903.21	18254
903.328	18289
903.446	18197
903.565	18102
903.683	18076
903.801	17885
903.919	18129
904.038	17958
904.156	17870
904.274	17836
904.392	17805
904.51	17882
904.627	17737
904.745	17984
904.863	17893
904.981	17608
905.098	17543
905.216	17558
905.334	17501
905.451	17623
905.569	17535
905.686	17543
905.803	17440
905.921	17364
906.038	17497
906.155	17246
906.272	17261
906.389	17326
906.506	17136
906.623	17067
906.74	17025
906.857	16976
906.974	16889
907.091	17102
907.208	17235
907.324	17143
907.441	17014
907.557	16877
907.674	16778
907.79	16759
907.907	16721
908.023	16889
908.139	16790
908.256	16634
908.372	16717
908.488	16653
908.604	16440
908.72	16550
908.836	16500
908.952	16348
909.068	16561
909.184	16637
909.3	16493
909.415	16500
909.531	16523
909.647	16249
909.762	16147
909.878	16204
909.993	16310
910.108	16162
910.224	16036
910.339	16154
910.454	16021
910.57	15979
910.685	16006
910.8	16196
910.915	16120
911.03	15922
911.145	15816
911.259	15774
911.374	15850
911.489	15694
911.604	15736
911.718	15641
911.833	15629
911.947	15420
912.062	15431
912.176	15610
912.291	15473
912.405	15538
912.519	15800
912.633	15774
912.748	15599
912.862	15496
912.976	15428
913.09	15310
913.204	15363
913.318	15351
913.431	15424
913.545	15344
913.659	15439
913.772	15313
913.886	15306
914	15203
914.113	15313
914.226	15332
914.34	15211
914.453	15085
914.566	15218
914.68	15093
914.793	14933
914.906	14861
915.019	14746
915.132	14648
915.245	14807
915.358	14754
915.47	14769
915.583	14842
915.696	14826
915.809	14826
915.921	14986
916.034	14678
916.146	14701
916.259	14655
916.371	14743
916.483	14800
916.595	14644
916.708	14579
916.82	14556
916.932	14575
917.044	14682
917.156	14568
917.268	14438
917.38	14507
917.491	14427
917.603	14415
917.715	14518
917.826	14560
917.938	14446
918.049	14358
918.161	14423
918.272	14526
918.384	14583
918.495	14423
918.606	14275
918.717	14100
918.828	14259
918.939	14267
919.05	14252
919.161	14142
919.272	14005
919.383	13982
919.494	14294
919.604	14408
919.715	14218
919.826	14149
919.936	14065
920.047	14309
920.157	14218
920.267	14362
920.378	14195
920.488	14111
920.598	14305
920.708	14488
920.818	14218
920.928	14317
921.038	14518
921.148	14427
921.258	14134
921.368	14065
921.477	13902
921.587	13913
921.697	13811
921.806	14016
921.916	13772
922.025	13643
922.134	13643
922.244	13495
922.353	13518
922.462	13559
922.571	13388
922.68	13278
922.789	13209
922.898	13285
923.007	13152
923.116	13324
923.224	13270
923.333	13301
923.442	13118
923.55	13129
923.659	13072
923.767	13118
923.876	13034
923.984	13046
924.092	12939
924.201	12977
924.309	12977
924.417	12989
924.525	12928
924.633	12970
924.741	13947
924.849	12787
924.956	12882
925.064	12738
925.172	12616
925.279	12715
925.387	12772
925.494	12642
925.602	12795
925.709	12798
925.816	12608
925.924	12688
926.031	12738
926.138	12589
926.245	12783
926.352	12601
926.459	12703
926.566	12764
926.673	12570
926.779	12513
926.886	12475
926.993	12403
927.099	12334
927.206	12281
927.312	12133
927.419	12270
927.525	12292
927.631	12296
927.737	12235
927.843	12133
927.95	12003
928.056	12102
928.162	12049
928.267	12178
928.373	12768
928.479	12220
928.585	11916
928.69	12034
928.796	12091
928.901	11961
929.007	11824
929.112	11958
929.218	11950
929.323	11893
929.428	11840
929.533	11980
929.638	11726
929.743	11809
929.848	11847
929.953	11767
930.058	11665
930.163	11532
930.267	11566
930.372	11668
930.477	11573
930.581	11676
930.685	11532
930.79	11417
930.894	11467
930.998	11395
931.103	11421
931.207	11178
931.311	11113
931.415	11056
931.519	10809
931.623	10858
