Data from test_V78500241_3305.txt Node
Date: Fri Mar 25 15:32:52 CST 2022
User: usil
Spectrometer: V785-0024
Trigger mode: 0
Integration Time (sec): 4.000000E-1
Scans to average: 1
Nonlinearity correction enabled: false
Boxcar width: 0
Storing dark spectrum: false
XAxis mode: Wavelengths
Number of Pixels in Spectrum: 1024
>>>>>Begin Spectral Data<<<<<
801.071	27298
801.214	27081
801.356	26872
801.499	26933
801.641	26674
801.783	26602
801.926	26705
802.068	26674
802.211	26617
802.353	26575
802.496	26396
802.638	26419
802.78	26343
802.923	26206
803.065	26320
803.208	26202
803.35	26355
803.492	26362
803.635	26552
803.777	26473
803.919	26499
804.061	26739
804.204	26522
804.346	26499
804.488	26461
804.63	26495
804.773	26408
804.915	26549
805.057	26750
805.199	26450
805.341	26480
805.483	26670
805.626	26693
805.768	26480
805.91	26575
806.052	26682
806.194	26404
806.336	26678
806.478	26522
806.62	26602
806.762	26674
806.904	26758
807.046	27051
807.188	27100
807.33	27028
807.472	27070
807.614	26948
807.756	26944
807.898	26804
808.04	26716
808.182	26765
808.324	26743
808.465	26872
808.607	27100
808.749	27192
808.891	27310
809.033	27477
809.174	27275
809.316	27230
809.458	27287
809.6	27100
809.741	27252
809.883	27317
810.025	27538
810.166	27477
810.308	27485
810.45	27378
810.591	27397
810.733	27192
810.875	27275
811.016	27123
811.158	27135
811.299	27237
811.441	27268
811.582	27336
811.724	27074
811.865	27154
812.007	27131
812.148	27287
812.29	27188
812.431	27332
812.573	27618
812.714	27572
812.855	27504
812.997	27606
813.138	27724
813.279	27804
813.421	27519
813.562	27523
813.703	27443
813.845	27374
813.986	27146
814.127	26921
814.268	26918
814.41	26762
814.551	26868
814.692	26796
814.833	26739
814.974	26834
815.115	26826
815.256	26632
815.397	26792
815.539	26663
815.68	26640
815.821	26625
815.962	26594
816.103	26644
816.244	26370
816.385	26339
816.526	26301
816.666	26271
816.807	26050
816.948	26248
817.089	26214
817.23	26122
817.371	26092
817.512	26153
817.653	26081
817.793	25974
817.934	26138
818.075	26024
818.216	26161
818.356	25993
818.497	25963
818.638	25887
818.778	25890
818.919	25864
819.06	25864
819.2	25944
819.341	26111
819.481	26149
819.622	26298
819.762	26358
819.903	26206
820.043	26385
820.184	26240
820.324	26256
820.465	26199
820.605	26187
820.746	26180
820.886	26012
821.026	26153
821.167	26103
821.307	26183
821.447	26229
821.588	26050
821.728	25944
821.868	25712
822.008	25533
822.149	25655
822.289	25445
822.429	25312
822.569	25339
822.709	25240
822.849	25088
822.99	25050
823.13	24958
823.27	24913
823.41	24810
823.55	24871
823.69	24932
823.83	24939
823.97	24779
824.11	24711
824.25	24627
824.389	24719
824.529	24783
824.669	24798
824.809	24814
824.949	24878
825.089	24935
825.228	24802
825.368	24410
825.508	24692
825.648	24532
825.787	24593
825.927	24620
826.067	24505
826.206	24574
826.346	24589
826.485	24715
826.625	24547
826.765	24810
826.904	24658
827.044	24376
827.183	24395
827.323	24369
827.462	24426
827.601	24285
827.741	24296
827.88	24273
828.02	24117
828.159	24239
828.298	24296
828.437	24270
828.577	24243
828.716	24346
828.855	24022
828.994	24060
829.134	23980
829.273	23969
829.412	23988
829.551	23832
829.69	23973
829.829	23908
829.968	24072
830.107	24178
830.246	23832
830.385	23988
830.524	23901
830.663	23786
830.802	23665
830.941	23627
831.08	23566
831.219	23718
831.357	23668
831.496	23901
831.635	23630
831.774	23414
831.913	23433
832.051	23356
832.19	23345
832.329	23433
832.467	23299
832.606	23334
832.744	23284
832.883	23235
833.022	23223
833.16	23299
833.299	23322
833.437	23181
833.576	23402
833.714	23330
833.852	23387
833.991	23505
834.129	23440
834.267	23551
834.406	23315
834.544	23528
834.682	23368
834.821	23429
834.959	23551
835.097	23433
835.235	23417
835.373	23436
835.511	23242
835.65	23254
835.788	23124
835.926	23090
836.064	23041
836.202	23056
836.34	23337
836.478	23246
836.615	23303
836.753	23265
836.891	23151
837.029	23311
837.167	23193
837.305	23102
837.443	23102
837.58	23006
837.718	23227
837.856	23075
837.993	23109
838.131	23029
838.269	22968
838.406	23041
838.544	22790
838.681	22710
838.819	22786
838.956	22603
839.094	22580
839.231	22607
839.369	22824
839.506	22984
839.643	22835
839.781	22615
839.918	22462
840.055	22569
840.193	22641
840.33	22382
840.467	22523
840.604	22531
840.742	22843
840.879	22306
841.016	22417
841.153	22268
841.29	22660
841.427	22554
841.564	22451
841.701	22493
841.838	22504
841.975	22352
842.112	22424
842.249	22344
842.385	22268
842.522	22538
842.659	22356
842.796	22188
842.933	22291
843.069	22303
843.206	22200
843.343	22375
843.479	22344
843.616	22238
843.752	21983
843.889	22204
844.025	22147
844.162	21934
844.298	22112
844.435	22074
844.571	21941
844.708	22021
844.844	22101
844.98	22116
845.117	22162
845.253	22078
845.389	21895
845.525	21926
845.661	21846
845.798	21819
845.934	21831
846.07	21690
846.206	21857
846.342	21819
846.478	21759
846.614	21526
846.75	21530
846.886	21530
847.022	21564
847.158	21732
847.294	21549
847.429	21652
847.565	21488
847.701	21789
847.837	21325
847.972	21260
848.108	21317
848.244	21313
848.379	21199
848.515	21108
848.65	21028
848.786	21218
848.921	21093
849.057	21195
849.192	21214
849.328	21188
849.463	21009
849.598	20956
849.734	20948
849.869	20929
850.004	21043
850.14	20975
850.275	20800
850.41	20762
850.545	20720
850.68	20914
850.815	20933
850.95	20823
851.085	21036
851.22	20994
851.355	20948
851.49	20785
851.625	20823
851.76	20838
851.895	20762
852.03	20838
852.165	20716
852.299	21020
852.434	20952
852.569	20868
852.703	20819
852.838	20994
852.973	21009
853.107	20918
853.242	20724
853.376	20830
853.511	20568
853.645	20632
853.78	20815
853.914	20693
854.048	20689
854.183	20667
854.317	20724
854.451	20891
854.585	20663
854.72	20651
854.854	20796
854.988	20648
855.122	20823
855.256	20583
855.39	20762
855.524	20891
855.658	20781
855.792	20701
855.926	20735
856.06	20602
856.194	20838
856.327	20682
856.461	20629
856.595	20564
856.729	20629
856.862	20743
856.996	20804
857.13	20758
857.263	20781
857.397	20750
857.53	20724
857.664	20785
857.797	20743
857.931	20739
858.064	20811
858.197	20781
858.331	20712
858.464	20655
858.597	20568
858.731	20674
858.864	20705
858.997	20686
859.13	20674
859.263	20712
859.396	20788
859.529	20640
859.662	20712
859.795	20731
859.928	20708
860.061	20887
860.194	20815
860.327	20773
860.46	20743
860.592	20788
860.725	21005
860.858	20838
860.99	20823
861.123	20530
861.256	20659
861.388	20758
861.521	21237
861.653	20606
861.786	20564
861.918	20434
862.05	20423
862.183	20636
862.315	20549
862.447	20678
862.58	20617
862.712	20415
862.844	20301
862.976	20423
863.108	20423
863.24	20979
863.372	20377
863.504	20328
863.636	20469
863.768	20587
863.9	20370
864.032	20370
864.164	20355
864.296	20469
864.428	20347
864.559	20552
864.691	20313
864.823	20400
864.954	20358
865.086	20393
865.217	20305
865.349	20199
865.48	20233
865.612	20317
865.743	20408
865.875	20263
866.006	20343
866.137	20465
866.269	20332
866.4	20324
866.531	20396
866.662	20233
866.793	20294
866.924	20294
867.055	20317
867.186	20237
867.317	20221
867.448	20199
867.579	20214
867.71	20130
867.841	20187
867.972	20259
868.103	20202
868.233	20298
868.364	20237
868.495	20396
868.625	20469
868.756	20465
868.886	20457
869.017	20450
869.147	20549
869.278	20545
869.408	20537
869.539	20450
869.669	20575
869.799	20530
869.929	20636
870.06	20526
870.19	20838
870.32	20689
870.45	20891
870.58	20838
870.71	20899
870.84	20956
870.97	20941
871.1	20929
871.23	21051
871.36	21081
871.489	21028
871.619	21112
871.749	21062
871.879	21055
872.008	21367
872.138	21138
872.267	21154
872.397	20971
872.526	20929
872.656	20891
872.785	20880
872.915	21051
873.044	21146
873.173	21108
873.303	21138
873.432	21192
873.561	21279
873.69	21241
873.819	20971
873.948	21279
874.077	21161
874.206	21070
874.335	21081
874.464	21203
874.593	21439
874.722	21268
874.851	21408
874.979	21389
875.108	21389
875.237	21279
875.365	21313
875.494	21355
875.623	21469
875.751	21412
875.88	21458
876.008	21488
876.136	21580
876.265	21812
876.393	21774
876.521	21800
876.65	21907
876.778	21888
876.906	21835
877.034	21797
877.162	21717
877.29	21694
877.418	21739
877.546	21652
877.674	21660
877.802	21732
877.93	21736
878.058	21705
878.185	21515
878.313	21663
878.441	21637
878.568	21450
878.696	21667
878.824	21793
878.951	21686
879.079	21816
879.206	21994
879.333	21941
879.461	21873
879.588	21979
879.715	21926
879.842	21964
879.97	21720
880.097	21580
880.224	21492
880.351	21603
880.478	21622
880.605	21530
880.732	21595
880.859	21732
880.986	21515
881.112	21469
881.239	21428
881.366	21306
881.493	21127
881.619	21173
881.746	21150
881.872	21058
881.999	21005
882.125	21077
882.252	21173
882.378	20975
882.505	21252
882.631	21013
882.757	20849
882.883	20967
883.01	20830
883.136	20785
883.262	20727
883.388	20708
883.514	20804
883.64	20781
883.766	20731
883.892	20625
884.018	20602
884.143	20781
884.269	20864
884.395	20594
884.52	20404
884.646	20476
884.772	20469
884.897	20294
885.023	20564
885.148	20598
885.274	20552
885.399	20606
885.524	20336
885.65	20438
885.775	20537
885.9	20355
886.025	20408
886.15	20526
886.275	20465
886.4	20488
886.525	20484
886.65	20332
886.775	20404
886.9	20609
887.025	20705
887.149	20476
887.274	20267
887.399	20282
887.523	20263
887.648	20237
887.773	20142
887.897	20294
888.021	20309
888.146	20225
888.27	20259
888.395	20309
888.519	20358
888.643	20233
888.767	20282
888.891	20161
889.015	19982
889.139	20096
889.263	20005
889.387	20214
889.511	20332
889.635	20130
889.759	20119
889.883	20031
890.006	20084
890.13	20130
890.254	19993
890.377	20024
890.501	19807
890.624	19750
890.748	19807
890.871	19647
890.995	19681
891.118	19499
891.241	19666
891.364	19708
891.488	19799
891.611	19693
891.734	19662
891.857	19643
891.98	19540
892.103	19635
892.226	19651
892.349	19559
892.471	19449
892.594	19609
892.717	19609
892.839	19521
892.962	19571
893.085	19628
893.207	19582
893.33	19422
893.452	19487
893.575	19529
893.697	19605
893.819	19624
893.941	19685
894.064	19731
894.186	19506
894.308	19521
894.43	19628
894.552	19746
894.674	19658
894.796	19400
894.918	19582
895.04	19544
895.161	19643
895.283	19544
895.405	19502
895.526	19525
895.648	19514
895.769	19556
895.891	19518
896.012	19510
896.134	19514
896.255	19510
896.376	19453
896.498	19647
896.619	19674
896.74	19616
896.861	19670
896.982	19856
897.103	20077
897.224	19837
897.345	19864
897.466	19715
897.587	19830
897.708	19879
897.828	19856
897.949	19742
898.07	19624
898.19	19776
898.311	19936
898.431	19849
898.552	19784
898.672	19974
898.792	19860
898.913	19788
899.033	19696
899.153	19639
899.273	19544
899.393	19529
899.513	19609
899.633	19476
899.753	19540
899.873	19419
899.993	19525
900.113	19502
900.232	19472
900.352	19567
900.472	19373
900.591	19388
900.711	19354
900.83	19278
900.95	19289
901.069	19453
901.189	19202
901.308	18913
901.427	18924
901.546	18905
901.665	18909
901.784	18867
901.904	18768
902.023	18772
902.141	18597
902.26	18414
902.379	18582
902.498	18483
902.617	18418
902.735	18422
902.854	18429
902.973	18407
903.091	18072
903.21	18174
903.328	18182
903.446	18019
903.565	18041
903.683	17851
903.801	17710
903.919	17961
904.038	17901
904.156	17832
904.274	17710
904.392	17661
904.51	17676
904.627	17665
904.745	17748
904.863	17695
904.981	17528
905.098	17372
905.216	17349
905.334	17349
905.451	17273
905.569	17318
905.686	17372
905.803	17315
905.921	17105
906.038	17292
906.155	17113
906.272	17124
906.389	17060
906.506	16824
906.623	16965
906.74	17003
906.857	16862
906.974	16809
907.091	16949
907.208	17037
907.324	16790
907.441	16850
907.557	16653
907.674	16577
907.79	16569
907.907	16660
908.023	16588
908.139	16649
908.256	16542
908.372	16645
908.488	16565
908.604	16382
908.72	16424
908.836	16352
908.952	16299
909.068	16424
909.184	16542
909.3	16386
909.415	16394
909.531	16276
909.647	16128
909.762	16131
909.878	15994
909.993	16071
910.108	16021
910.224	16010
910.339	16044
910.454	15945
910.57	15911
910.685	15835
910.8	16097
910.915	15979
911.03	15789
911.145	15724
911.259	15682
911.374	15671
911.489	15614
911.604	15488
911.718	15439
911.833	15408
911.947	15325
912.062	15283
912.176	15481
912.291	15496
912.405	15534
912.519	15641
912.633	15618
912.748	15443
912.862	15389
912.976	15279
913.09	15169
913.204	15218
913.318	15268
913.431	15283
913.545	15302
913.659	15416
913.772	15283
913.886	15127
914	15081
914.113	15028
914.226	15157
914.34	15085
914.453	14998
914.566	15104
914.68	15009
914.793	14849
914.906	14705
915.019	14640
915.132	14686
915.245	14636
915.358	14674
915.47	14746
915.583	14644
915.696	14689
915.809	14739
915.921	14739
916.034	14606
916.146	14659
916.259	14575
916.371	14750
916.483	14705
916.595	14473
916.708	14568
916.82	14602
916.932	14492
917.044	14423
917.156	14533
917.268	14282
917.38	14488
917.491	14301
917.603	14404
917.715	14473
917.826	14438
917.938	14332
918.049	14161
918.161	14187
918.272	14347
918.384	14427
918.495	14233
918.606	14130
918.717	14065
918.828	14084
918.939	14221
919.05	14016
919.161	14134
919.272	13944
919.383	13887
919.494	14073
919.604	14305
919.715	14084
919.826	13963
919.936	14054
920.047	14229
920.157	14100
920.267	14332
920.378	14126
920.488	14020
920.598	14317
920.708	14374
920.818	14183
920.928	14210
921.038	14377
921.148	14271
921.258	14046
921.368	13986
921.477	13845
921.587	13856
921.697	13696
921.806	13868
921.916	13674
922.025	13506
922.134	13514
922.244	13464
922.353	13559
922.462	13358
922.571	13320
922.68	13209
922.789	13076
922.898	13114
923.007	13042
923.116	13152
923.224	13133
923.333	13012
923.442	12958
923.55	13061
923.659	13023
923.767	13103
923.876	12901
923.984	12905
924.092	12882
924.201	12943
924.309	12871
924.417	12875
924.525	12848
924.633	12810
924.741	13765
924.849	12646
924.956	12722
925.064	12616
925.172	12429
925.279	12669
925.387	12612
925.494	12589
925.602	12597
925.709	12654
925.816	12513
925.924	12506
926.031	12616
926.138	12555
926.245	12483
926.352	12471
926.459	12525
926.566	12593
926.673	12448
926.779	12273
926.886	12376
926.993	12209
927.099	12114
927.206	12159
927.312	12060
927.419	12197
927.525	12213
927.631	12152
927.737	12076
927.843	11988
927.95	11984
928.056	12041
928.162	11961
928.267	12095
928.373	12506
928.479	12038
928.585	11828
928.69	11950
928.796	11988
928.901	11836
929.007	11665
929.112	11958
929.218	11828
929.323	11802
929.428	11596
929.533	11805
929.638	11653
929.743	11680
929.848	11688
929.953	11615
930.058	11410
930.163	11334
930.267	11490
930.372	11528
930.477	11353
930.581	11589
930.685	11387
930.79	11284
930.894	11334
930.998	11318
931.103	11421
931.207	11010
931.311	11033
931.415	10915
931.519	10759
931.623	10664
