Data from test_V78500241_866.txt Node
Date: Fri Mar 25 15:15:53 CST 2022
User: usil
Spectrometer: V785-0024
Trigger mode: 0
Integration Time (sec): 4.000000E-1
Scans to average: 1
Nonlinearity correction enabled: false
Boxcar width: 0
Storing dark spectrum: false
XAxis mode: Wavelengths
Number of Pixels in Spectrum: 1024
>>>>>Begin Spectral Data<<<<<
801.071	28158
801.214	28268
801.356	28002
801.499	27914
801.641	27698
801.783	27656
801.926	27895
802.068	27819
802.211	27629
802.353	27625
802.496	27561
802.638	27412
802.78	27431
802.923	27355
803.065	27450
803.208	27424
803.35	27393
803.492	27511
803.635	27549
803.777	27557
803.919	27648
804.061	27937
804.204	27595
804.346	27553
804.488	27625
804.63	27622
804.773	27519
804.915	27679
805.057	27705
805.199	27614
805.341	27751
805.483	27838
805.626	27819
805.768	27652
805.91	27709
806.052	27739
806.194	27732
806.336	27945
806.478	27854
806.62	27812
806.762	28025
806.904	28036
807.046	28261
807.188	28246
807.33	28188
807.472	28230
807.614	28010
807.756	28139
807.898	28128
808.04	27869
808.182	28131
808.324	28181
808.465	28097
808.607	28215
808.749	28481
808.891	28519
809.033	28626
809.174	28451
809.316	28409
809.458	28462
809.6	28432
809.741	28706
809.883	28596
810.025	28729
810.166	28885
810.308	28668
810.45	28687
810.591	28664
810.733	28580
810.875	28367
811.016	28257
811.158	28363
811.299	28500
811.441	28672
811.582	28550
811.724	28382
811.865	28485
812.007	28478
812.148	28409
812.29	28554
812.431	28599
812.573	28820
812.714	28900
812.855	29113
812.997	29117
813.138	29162
813.279	29261
813.421	29033
813.562	28984
813.703	28755
813.845	28812
813.986	28459
814.127	28215
814.268	28162
814.41	28116
814.551	28166
814.692	28291
814.833	28162
814.974	28044
815.115	28295
815.256	28147
815.397	28029
815.539	28036
815.68	27937
815.821	27732
815.962	28048
816.103	28082
816.244	27888
816.385	27747
816.526	27686
816.666	27519
816.807	27405
816.948	27561
817.089	27549
817.23	27469
817.371	27485
817.512	27591
817.653	27408
817.793	27485
817.934	27515
818.075	27469
818.216	27625
818.356	27485
818.497	27367
818.638	27226
818.778	27188
818.919	27256
819.06	27344
819.2	27439
819.341	27561
819.481	27519
819.622	27625
819.762	27838
819.903	27816
820.043	27652
820.184	27492
820.324	27717
820.465	27720
820.605	27633
820.746	27679
820.886	27477
821.026	27526
821.167	27671
821.307	27542
821.447	27496
821.588	27325
821.728	27176
821.868	27173
822.008	26975
822.149	26990
822.289	27112
822.429	26754
822.569	26632
822.709	26773
822.849	26545
822.99	26446
823.13	26427
823.27	26465
823.41	26385
823.55	26050
823.69	26313
823.83	26256
823.97	26149
824.11	25978
824.25	25966
824.389	26088
824.529	26221
824.669	26229
824.809	26218
824.949	26024
825.089	26180
825.228	26122
825.368	26081
825.508	26005
825.648	26012
825.787	25993
825.927	26119
826.067	26024
826.206	26065
826.346	26046
826.485	25997
826.625	26027
826.765	26035
826.904	26138
827.044	25803
827.183	25738
827.323	25795
827.462	25708
827.601	25852
827.741	25578
827.88	25765
828.02	25540
828.159	25719
828.298	25757
828.437	25814
828.577	25731
828.716	25765
828.855	25601
828.994	25506
829.134	25381
829.273	25343
829.412	25449
829.551	25392
829.69	25358
829.829	25476
829.968	25460
830.107	25597
830.246	25434
830.385	25384
830.524	25346
830.663	25282
830.802	25209
830.941	24920
831.08	24928
831.219	25145
831.357	25145
831.496	25270
831.635	25091
831.774	24935
831.913	24947
832.051	24913
832.19	24852
832.329	24943
832.467	24608
832.606	24677
832.744	24715
832.883	24669
833.022	24620
833.16	24810
833.299	24753
833.437	24825
833.576	24810
833.714	24817
833.852	24882
833.991	24825
834.129	24985
834.267	24859
834.406	24829
834.544	24886
834.682	24753
834.821	24642
834.959	25000
835.097	24768
835.235	24840
835.373	24825
835.511	24821
835.65	24547
835.788	24639
835.926	24437
836.064	24418
836.202	24338
836.34	24597
836.478	24696
836.615	24585
836.753	24642
836.891	24654
837.029	24673
837.167	24654
837.305	24544
837.443	24403
837.58	24380
837.718	24566
837.856	24429
837.993	24422
838.131	24308
838.269	24292
838.406	24376
838.544	24330
838.681	24133
838.819	24102
838.956	23984
839.094	23786
839.231	23920
839.369	24182
839.506	24251
839.643	24213
839.781	23866
839.918	23859
840.055	23847
840.193	23737
840.33	23737
840.467	23710
840.604	23786
840.742	24129
840.879	23634
841.016	23775
841.153	23623
841.29	23828
841.427	23851
841.564	23771
841.701	23916
841.838	23672
841.975	23779
842.112	23680
842.249	23589
842.385	23501
842.522	23802
842.659	23657
842.796	23554
842.933	23486
843.069	23512
843.206	23471
843.343	23592
843.479	23570
843.616	23520
843.752	23254
843.889	23364
844.025	23474
844.162	23223
844.298	23410
844.435	23277
844.571	23178
844.708	23337
844.844	23493
844.98	23478
845.117	23482
845.253	23242
845.389	23140
845.525	23178
845.661	23277
845.798	23143
845.934	23044
846.07	23067
846.206	23079
846.342	23037
846.478	23003
846.614	22904
846.75	22740
846.886	22771
847.022	22908
847.158	22862
847.294	22710
847.429	22843
847.565	22797
847.701	23052
847.837	22489
847.972	22557
848.108	22618
848.244	22596
848.379	22333
848.515	22356
848.65	22356
848.786	22356
848.921	22223
849.057	22546
849.192	22462
849.328	22440
849.463	22333
849.598	22280
849.734	22177
849.869	22249
850.004	22109
850.14	22196
850.275	22150
850.41	22124
850.545	22067
850.68	22204
850.815	22215
850.95	22131
851.085	22299
851.22	22329
851.355	22120
851.49	21949
851.625	22150
851.76	22105
851.895	22063
852.03	21972
852.165	22074
852.299	22070
852.434	22230
852.569	22181
852.703	22207
852.838	22181
852.973	22284
853.107	22223
853.242	22147
853.376	21979
853.511	21892
853.645	21975
853.78	22006
853.914	21945
854.048	21823
854.183	22032
854.317	21949
854.451	22116
854.585	22013
854.72	21888
854.854	21892
854.988	21873
855.122	21907
855.256	21793
855.39	21964
855.524	22010
855.658	21953
855.792	21979
855.926	22078
856.06	22040
856.194	21907
856.327	21960
856.461	22021
856.595	21956
856.729	21823
856.862	22029
856.996	22006
857.13	22200
857.263	22044
857.397	22109
857.53	21934
857.664	21991
857.797	21991
857.931	22116
858.064	22002
858.197	22051
858.331	21968
858.464	21861
858.597	21926
858.731	21930
858.864	21918
858.997	21987
859.13	22040
859.263	21972
859.396	22029
859.529	21941
859.662	21949
859.795	21892
859.928	21892
860.061	22131
860.194	22204
860.327	21892
860.46	21983
860.592	22139
860.725	22082
860.858	22040
860.99	21816
861.123	21751
861.256	21717
861.388	22002
861.521	22771
861.653	21812
861.786	21816
861.918	21766
862.05	21892
862.183	21827
862.315	21774
862.447	21934
862.58	21762
862.712	21698
862.844	21679
862.976	21728
863.108	21789
863.24	22059
863.372	21568
863.504	21663
863.636	21595
863.768	21686
863.9	21641
864.032	21671
864.164	21576
864.296	21739
864.428	21717
864.559	21709
864.691	21591
864.823	21629
864.954	21515
865.086	21507
865.217	21599
865.349	21485
865.48	21466
865.612	21553
865.743	21644
865.875	21485
866.006	21500
866.137	21561
866.269	21416
866.4	21644
866.531	21481
866.662	21325
866.793	21553
866.924	21447
867.055	21622
867.186	21454
867.317	21450
867.448	21416
867.579	21443
867.71	21428
867.841	21386
867.972	21511
868.103	21401
868.233	21275
868.364	21447
868.495	21599
868.625	21675
868.756	21671
868.886	21564
869.017	21751
869.147	21781
869.278	21922
869.408	21637
869.539	21614
869.669	21724
869.799	21728
869.929	21759
870.06	21709
870.19	22013
870.32	22021
870.45	22177
870.58	22105
870.71	22147
870.84	22048
870.97	22116
871.1	22086
871.23	22253
871.36	22280
871.489	22188
871.619	22238
871.749	22341
871.879	22223
872.008	22485
872.138	22360
872.267	22295
872.397	22097
872.526	22101
872.656	22139
872.785	22265
872.915	22299
873.044	22367
873.173	22337
873.303	22367
873.432	22417
873.561	22428
873.69	22424
873.819	22299
873.948	22318
874.077	22405
874.206	22276
874.335	22299
874.464	22481
874.593	22523
874.722	22550
874.851	22626
874.979	22542
875.108	22634
875.237	22421
875.365	22432
875.494	22508
875.623	22618
875.751	22516
875.88	22637
876.008	22660
876.136	22702
876.265	23010
876.393	23010
876.521	22957
876.65	22961
876.778	22915
876.906	22949
877.034	22850
877.162	22957
877.29	22839
877.418	22854
877.546	22927
877.674	22835
877.802	22968
877.93	22885
878.058	22706
878.185	22759
878.313	22679
878.441	22839
878.568	22687
878.696	22778
878.824	23006
878.951	23010
879.079	23102
879.206	23216
879.333	23075
879.461	22927
879.588	22892
879.715	22980
879.842	23124
879.97	22927
880.097	22767
880.224	22691
880.351	22801
880.478	22557
880.605	22603
880.732	22675
880.859	22847
880.986	22702
881.112	22717
881.239	22641
881.366	22390
881.493	22409
881.619	22188
881.746	22360
881.872	22162
881.999	22192
882.125	22223
882.252	22249
882.378	22139
882.505	22318
882.631	22135
882.757	22036
882.883	22013
883.01	21842
883.136	21934
883.262	21800
883.388	21713
883.514	21888
883.64	21960
883.766	21838
883.892	21800
884.018	21808
884.143	21983
884.269	22025
884.395	21732
884.52	21553
884.646	21625
884.772	21633
884.897	21412
885.023	21526
885.148	21561
885.274	21583
885.399	21720
885.524	21507
885.65	21595
885.775	21667
885.9	21629
886.025	21724
886.15	21648
886.275	21637
886.4	21561
886.525	21545
886.65	21511
886.775	21625
886.9	21644
887.025	21823
887.149	21447
887.274	21542
887.399	21488
887.523	21344
887.648	21332
887.773	21348
887.897	21249
888.021	21313
888.146	21313
888.27	21542
888.395	21313
888.519	21454
888.643	21466
888.767	21283
888.891	21195
889.015	21116
889.139	21336
889.263	21135
889.387	21336
889.511	21340
889.635	21268
889.759	21116
889.883	21055
890.006	21176
890.13	21207
890.254	21127
890.377	21077
890.501	20914
890.624	20899
890.748	20891
890.871	20781
890.995	20636
891.118	20549
891.241	20686
891.364	20762
891.488	20853
891.611	20750
891.734	20629
891.857	20705
891.98	20746
892.103	20701
892.226	20609
892.349	20693
892.471	20522
892.594	20621
892.717	20594
892.839	20625
892.962	20621
893.085	20705
893.207	20644
893.33	20324
893.452	20465
893.575	20590
893.697	20560
893.819	20788
893.941	20777
894.064	20552
894.186	20621
894.308	20587
894.43	20640
894.552	20781
894.674	20552
894.796	20522
894.918	20590
895.04	20495
895.161	20564
895.283	20556
895.405	20419
895.526	20606
895.648	20568
895.769	20598
895.891	20579
896.012	20659
896.134	20663
896.255	20533
896.376	20503
896.498	20564
896.619	20678
896.74	20632
896.861	20598
896.982	20925
897.103	21013
897.224	20765
897.345	20773
897.466	20705
897.587	20849
897.708	20929
897.828	20777
897.949	20861
898.07	20621
898.19	20777
898.311	20845
898.431	20625
898.552	20648
898.672	20845
898.792	20857
898.913	20750
899.033	20731
899.153	20648
899.273	20621
899.393	20583
899.513	20621
899.633	20594
899.753	20598
899.873	20495
899.993	20575
900.113	20518
900.232	20533
900.352	20415
900.472	20336
900.591	20317
900.711	20259
900.83	20294
900.95	20305
901.069	20339
901.189	20100
901.308	19978
901.427	19822
901.546	19849
901.665	19871
901.784	19902
901.904	19677
902.023	19655
902.141	19518
902.26	19339
902.379	19320
902.498	19400
902.617	19297
902.735	19510
902.854	19369
902.973	19289
903.091	19050
903.21	19034
903.328	18939
903.446	18935
903.565	18859
903.683	18943
903.801	18848
903.919	18768
904.038	18783
904.156	18642
904.274	18692
904.392	18612
904.51	18661
904.627	18490
904.745	18612
904.863	18726
904.981	18502
905.098	18330
905.216	18220
905.334	18251
905.451	18273
905.569	18342
905.686	18338
905.803	18235
905.921	18114
906.038	18190
906.155	18068
906.272	17992
906.389	17980
906.506	17870
906.623	17786
906.74	17897
906.857	17646
906.974	17729
907.091	17874
907.208	17851
907.324	17885
907.441	17851
907.557	17558
907.674	17543
907.79	17501
907.907	17505
908.023	17505
908.139	17604
908.256	17490
908.372	17486
908.488	17402
908.604	17250
908.72	17170
908.836	17216
908.952	17273
909.068	17288
909.184	17376
909.3	17239
909.415	17212
909.531	17200
909.647	17006
909.762	16965
909.878	16900
909.993	16869
910.108	16889
910.224	16892
910.339	16965
910.454	16755
910.57	16679
910.685	16634
910.8	16968
910.915	16839
911.03	16778
911.145	16550
911.259	16535
911.374	16573
911.489	16538
911.604	16363
911.718	16276
911.833	16322
911.947	16226
912.062	16109
912.176	16234
912.291	16238
912.405	16242
912.519	16360
912.633	16462
912.748	16363
912.862	16265
912.976	16135
913.09	16059
913.204	15998
913.318	16090
913.431	16109
913.545	16188
913.659	16143
913.772	16093
913.886	15903
914	15835
914.113	15960
914.226	15979
914.34	15888
914.453	15732
914.566	15873
914.68	15698
914.793	15671
914.906	15500
915.019	15538
915.132	15488
915.245	15511
915.358	15351
915.47	15519
915.583	15443
915.696	15526
915.809	15603
915.921	15606
916.034	15431
916.146	15344
916.259	15367
916.371	15408
916.483	15447
916.595	15420
916.708	15306
916.82	15382
916.932	15249
917.044	15195
917.156	15256
917.268	15142
917.38	15127
917.491	15070
917.603	15097
917.715	15142
917.826	15249
917.938	15112
918.049	14921
918.161	15142
918.272	15184
918.384	15146
918.495	15005
918.606	14899
918.717	14807
918.828	14952
918.939	14868
919.05	14762
919.161	14899
919.272	14750
919.383	14727
919.494	14963
919.604	15116
919.715	14849
919.826	14686
919.936	14804
920.047	14906
920.157	14807
920.267	14986
920.378	14876
920.488	14826
920.598	14967
920.708	15089
920.818	14819
920.928	14921
921.038	15077
921.148	15013
921.258	14739
921.368	14731
921.477	14632
921.587	14465
921.697	14480
921.806	14587
921.916	14499
922.025	14221
922.134	14187
922.244	14081
922.353	14218
922.462	14054
922.571	14054
922.68	13807
922.789	13818
922.898	13814
923.007	13765
923.116	13928
923.224	13753
923.333	13849
923.442	13655
923.55	13693
923.659	13609
923.767	13655
923.876	13666
923.984	13681
924.092	13578
924.201	13525
924.309	13628
924.417	13674
924.525	13540
924.633	13487
924.741	14301
924.849	13362
924.956	13362
925.064	13358
925.172	13240
925.279	13213
925.387	13255
925.494	13228
925.602	13411
925.709	13346
925.816	13110
925.924	13194
926.031	13206
926.138	13179
926.245	13217
926.352	13053
926.459	13206
926.566	13225
926.673	13084
926.779	12958
926.886	12977
926.993	12760
927.099	12817
927.206	12776
927.312	12730
927.419	12871
927.525	12791
927.631	12867
927.737	12646
927.843	12665
927.95	12410
928.056	12563
928.162	12570
928.267	12559
928.373	13152
928.479	12673
928.585	12448
928.69	12547
928.796	12498
928.901	12429
929.007	12311
929.112	12441
929.218	12372
929.323	12353
929.428	12289
929.533	12460
929.638	12247
929.743	12262
929.848	12262
929.953	12304
930.058	12182
930.163	11961
930.267	11965
930.372	12148
930.477	11958
930.581	12251
930.685	12110
930.79	11874
930.894	11904
930.998	11901
931.103	12117
931.207	11688
931.311	11539
931.415	11486
931.519	11288
931.623	11223
