Data from test_V78500241_1621.txt Node
Date: Fri Mar 25 15:21:08 CST 2022
User: usil
Spectrometer: V785-0024
Trigger mode: 0
Integration Time (sec): 4.000000E-1
Scans to average: 1
Nonlinearity correction enabled: false
Boxcar width: 0
Storing dark spectrum: false
XAxis mode: Wavelengths
Number of Pixels in Spectrum: 1024
>>>>>Begin Spectral Data<<<<<
801.071	27861
801.214	27736
801.356	27610
801.499	27519
801.641	27443
801.783	27416
801.926	27485
802.068	27408
802.211	27310
802.353	27332
802.496	27268
802.638	27066
802.78	27058
802.923	26948
803.065	27009
803.208	27077
803.35	27024
803.492	27195
803.635	27264
803.777	27252
803.919	27310
804.061	27603
804.204	27302
804.346	27321
804.488	27252
804.63	27389
804.773	27207
804.915	27272
805.057	27427
805.199	27370
805.341	27454
805.483	27511
805.626	27431
805.768	27344
805.91	27370
806.052	27462
806.194	27435
806.336	27572
806.478	27473
806.62	27523
806.762	27701
806.904	27762
807.046	27934
807.188	27994
807.33	27793
807.472	27766
807.614	27789
807.756	27785
807.898	27644
808.04	27629
808.182	27618
808.324	27720
808.465	27736
808.607	27964
808.749	28006
808.891	28135
809.033	28188
809.174	28025
809.316	27956
809.458	28017
809.6	28139
809.741	28169
809.883	28154
810.025	28291
810.166	28356
810.308	28386
810.45	28314
810.591	28097
810.733	28139
810.875	28059
811.016	27941
811.158	27964
811.299	28048
811.441	28162
811.582	28215
811.724	27991
811.865	28093
812.007	28017
812.148	28109
812.29	28166
812.431	28291
812.573	28413
812.714	28489
812.855	28675
812.997	28752
813.138	28881
813.279	28717
813.421	28596
813.562	28538
813.703	28386
813.845	28390
813.986	27937
814.127	27861
814.268	27812
814.41	27793
814.551	27736
814.692	27766
814.833	27717
814.974	27743
815.115	27770
815.256	27629
815.397	27530
815.539	27625
815.68	27473
815.821	27458
815.962	27622
816.103	27488
816.244	27542
816.385	27325
816.526	27192
816.666	27081
816.807	27131
816.948	27020
817.089	27146
817.23	27199
817.371	26899
817.512	27047
817.653	27104
817.793	27047
817.934	27017
818.075	26990
818.216	27013
818.356	27043
818.497	26994
818.638	26811
818.778	26746
818.919	26765
819.06	26876
819.2	26952
819.341	26963
819.481	27001
819.622	27214
819.762	27427
819.903	27245
820.043	27188
820.184	27138
820.324	27222
820.465	27192
820.605	27150
820.746	27192
820.886	26956
821.026	27188
821.167	27100
821.307	27237
821.447	27020
821.588	26986
821.728	26819
821.868	26674
822.008	26541
822.149	26522
822.289	26511
822.429	26214
822.569	26298
822.709	26282
822.849	26043
822.99	26100
823.13	26058
823.27	25978
823.41	25788
823.55	25791
823.69	25860
823.83	25845
823.97	25852
824.11	25635
824.25	25552
824.389	25643
824.529	25788
824.669	25708
824.809	25753
824.949	25837
825.089	25696
825.228	25693
825.368	25613
825.508	25457
825.648	25582
825.787	25502
825.927	25563
826.067	25438
826.206	25415
826.346	25597
826.485	25635
826.625	25487
826.765	25696
826.904	25529
827.044	25346
827.183	25270
827.323	25327
827.462	25278
827.601	25316
827.741	25156
827.88	25266
828.02	25171
828.159	25187
828.298	25278
828.437	25266
828.577	25244
828.716	25312
828.855	25171
828.994	24981
829.134	25050
829.273	24924
829.412	24848
829.551	24913
829.69	25110
829.829	25034
829.968	25103
830.107	25076
830.246	24973
830.385	24924
830.524	24871
830.663	24802
830.802	24703
830.941	24475
831.08	24475
831.219	24665
831.357	24532
831.496	24837
831.635	24570
831.774	24623
831.913	24490
832.051	24399
832.19	24517
832.329	24281
832.467	24273
832.606	24311
832.744	24136
832.883	24209
833.022	24194
833.16	24300
833.299	24334
833.437	24353
833.576	24350
833.714	24194
833.852	24346
833.991	24296
834.129	24494
834.267	24300
834.406	24270
834.544	24296
834.682	24289
834.821	24372
834.959	24498
835.097	24194
835.235	24327
835.373	24353
835.511	24296
835.65	24171
835.788	24125
835.926	24117
836.064	23923
836.202	24057
836.34	24136
836.478	24350
836.615	24083
836.753	24232
836.891	24224
837.029	24167
837.167	23988
837.305	24087
837.443	24072
837.58	23882
837.718	23912
837.856	23954
837.993	23828
838.131	23847
838.269	23836
838.406	23851
838.544	23729
838.681	23767
838.819	23707
838.956	23433
839.094	23402
839.231	23448
839.369	23707
839.506	23729
839.643	23661
839.781	23406
839.918	23322
840.055	23391
840.193	23455
840.33	23417
840.467	23452
840.604	23478
840.742	23653
840.879	23162
841.016	23349
841.153	23296
841.29	23558
841.427	23296
841.564	23395
841.701	23429
841.838	23318
841.975	23239
842.112	23216
842.249	23242
842.385	23090
842.522	23223
842.659	23147
842.796	23056
842.933	23124
843.069	23029
843.206	23090
843.343	23178
843.479	23121
843.616	23109
843.752	22927
843.889	22957
844.025	23014
844.162	22824
844.298	23098
844.435	22812
844.571	22873
844.708	22873
844.844	23018
844.98	23006
845.117	22968
845.253	22889
845.389	22812
845.525	22831
845.661	22687
845.798	22683
845.934	22622
846.07	22523
846.206	22535
846.342	22721
846.478	22736
846.614	22363
846.75	22367
846.886	22371
847.022	22329
847.158	22291
847.294	22367
847.429	22493
847.565	22318
847.701	22596
847.837	22044
847.972	21994
848.108	22097
848.244	22185
848.379	21994
848.515	21865
848.65	21842
848.786	21842
848.921	21892
849.057	21979
849.192	22036
849.328	21918
849.463	21903
849.598	21854
849.734	21918
849.869	21770
850.004	21663
850.14	21755
850.275	21614
850.41	21770
850.545	21610
850.68	21698
850.815	21778
850.95	21720
851.085	21937
851.22	21797
851.355	21759
851.49	21671
851.625	21732
851.76	21705
851.895	21572
852.03	21580
852.165	21679
852.299	21701
852.434	21698
852.569	21739
852.703	21675
852.838	21747
852.973	21854
853.107	21869
853.242	21641
853.376	21526
853.511	21545
853.645	21526
853.78	21629
853.914	21625
854.048	21523
854.183	21492
854.317	21462
854.451	21667
854.585	21504
854.72	21580
854.854	21656
854.988	21496
855.122	21542
855.256	21435
855.39	21386
855.524	21648
855.658	21553
855.792	21557
855.926	21545
856.06	21523
856.194	21576
856.327	21443
856.461	21519
856.595	21580
856.729	21405
856.862	21545
856.996	21675
857.13	21603
857.263	21629
857.397	21698
857.53	21447
857.664	21504
857.797	21530
857.931	21652
858.064	21610
858.197	21660
858.331	21416
858.464	21405
858.597	21291
858.731	21370
858.864	21496
858.997	21526
859.13	21519
859.263	21454
859.396	21633
859.529	21473
859.662	21496
859.795	21515
859.928	21450
860.061	21667
860.194	21694
860.327	21587
860.46	21587
860.592	21625
860.725	21705
860.858	21679
860.99	21523
861.123	21336
861.256	21424
861.388	21523
861.521	22200
861.653	21272
861.786	21230
861.918	21306
862.05	21447
862.183	21523
862.315	21523
862.447	21534
862.58	21279
862.712	21260
862.844	21279
862.976	21382
863.108	21325
863.24	21587
863.372	21245
863.504	21329
863.636	21249
863.768	21169
863.9	21241
864.032	21138
864.164	21138
864.296	21260
864.428	21291
864.559	21287
864.691	21192
864.823	21302
864.954	21150
865.086	21184
865.217	21119
865.349	20982
865.48	21256
865.612	21192
865.743	21226
865.875	21169
866.006	21142
866.137	21116
866.269	21039
866.4	21028
866.531	21131
866.662	21112
866.793	20963
866.924	21070
867.055	21184
867.186	21077
867.317	21055
867.448	21024
867.579	20998
867.71	20956
867.841	20921
867.972	21028
868.103	20994
868.233	21093
868.364	20933
868.495	21100
868.625	21291
868.756	21393
868.886	21329
869.017	21348
869.147	21397
869.278	21473
869.408	21306
869.539	21306
869.669	21386
869.799	21416
869.929	21317
870.06	21481
870.19	21599
870.32	21648
870.45	21523
870.58	21701
870.71	21720
870.84	21797
870.97	21827
871.1	21686
871.23	21808
871.36	21865
871.489	21785
871.619	21857
871.749	21884
871.879	21861
872.008	21991
872.138	21994
872.267	21945
872.397	21812
872.526	21747
872.656	21846
872.785	21705
872.915	21873
873.044	21991
873.173	21926
873.303	21945
873.432	21922
873.561	21953
873.69	21888
873.819	21922
873.948	21903
874.077	21823
874.206	21835
874.335	21956
874.464	21998
874.593	22169
874.722	22036
874.851	22143
874.979	22139
875.108	22276
875.237	22188
875.365	22002
875.494	22070
875.623	22150
875.751	22196
875.88	22105
876.008	22150
876.136	22268
876.265	22516
876.393	22660
876.521	22577
876.65	22584
876.778	22527
876.906	22489
877.034	22519
877.162	22462
877.29	22447
877.418	22489
877.546	22554
877.674	22459
877.802	22428
877.93	22470
878.058	22337
878.185	22299
878.313	22402
878.441	22470
878.568	22344
878.696	22451
878.824	22500
878.951	22569
879.079	22596
879.206	22687
879.333	22580
879.461	22516
879.588	22592
879.715	22611
879.842	22683
879.97	22519
880.097	22337
880.224	22287
880.351	22291
880.478	22173
880.605	22276
880.732	22204
880.859	22398
880.986	22329
881.112	22409
881.239	22093
881.366	22090
881.493	21994
881.619	21895
881.746	21823
881.872	21819
881.999	21774
882.125	21770
882.252	21876
882.378	21759
882.505	21979
882.631	21618
882.757	21625
882.883	21625
883.01	21675
883.136	21564
883.262	21443
883.388	21519
883.514	21526
883.64	21572
883.766	21481
883.892	21370
884.018	21325
884.143	21447
884.269	21511
884.395	21310
884.52	21165
884.646	21260
884.772	21264
884.897	21039
885.023	21138
885.148	21233
885.274	21363
885.399	21188
885.524	21161
885.65	21268
885.775	21226
885.9	21249
886.025	21317
886.15	21173
886.275	21096
886.4	21100
886.525	21214
886.65	21214
886.775	21249
886.9	21256
887.025	21321
887.149	21142
887.274	20857
887.399	20948
887.523	20876
887.648	20971
887.773	20864
887.897	21009
888.021	21024
888.146	20960
888.27	21081
888.395	21104
888.519	20982
888.643	20956
888.767	21062
888.891	20853
889.015	20788
889.139	20868
889.263	20769
889.387	20731
889.511	20960
889.635	20910
889.759	20758
889.883	20701
890.006	20842
890.13	20849
890.254	20678
890.377	20648
890.501	20606
890.624	20480
890.748	20632
890.871	20408
890.995	20313
891.118	20317
891.241	20336
891.364	20366
891.488	20393
891.611	20244
891.734	20218
891.857	20396
891.98	20385
892.103	20408
892.226	20259
892.349	20271
892.471	20046
892.594	20157
892.717	20275
892.839	20294
892.962	20168
893.085	20180
893.207	20195
893.33	20084
893.452	20153
893.575	20263
893.697	20122
893.819	20366
893.941	20419
894.064	20347
894.186	20149
894.308	20115
894.43	20263
894.552	20434
894.674	20301
894.796	20111
894.918	20210
895.04	20126
895.161	20298
895.283	20168
895.405	20142
895.526	20267
895.648	20298
895.769	20214
895.891	20240
896.012	20233
896.134	20237
896.255	20206
896.376	20111
896.498	20187
896.619	20298
896.74	20244
896.861	20187
896.982	20568
897.103	20617
897.224	20423
897.345	20434
897.466	20374
897.587	20415
897.708	20526
897.828	20351
897.949	20492
898.07	20358
898.19	20385
898.311	20450
898.431	20343
898.552	20446
898.672	20473
898.792	20560
898.913	20355
899.033	20282
899.153	20214
899.273	20107
899.393	20248
899.513	20229
899.633	20282
899.753	20191
899.873	19989
899.993	20275
900.113	20206
900.232	20233
900.352	20111
900.472	19944
900.591	19951
900.711	19993
900.83	19818
900.95	20058
901.069	19974
901.189	19753
901.308	19750
901.427	19624
901.546	19480
901.665	19552
901.784	19567
901.904	19369
902.023	19316
902.141	19133
902.26	19091
902.379	19194
902.498	18981
902.617	19034
902.735	19046
902.854	19027
902.973	19034
903.091	18795
903.21	18745
903.328	18749
903.446	18688
903.565	18555
903.683	18407
903.801	18452
903.919	18460
904.038	18483
904.156	18403
904.274	18338
904.392	18334
904.51	18247
904.627	18334
904.745	18437
904.863	18338
904.981	18079
905.098	17965
905.216	17958
905.334	17992
905.451	18019
905.569	18003
905.686	17973
905.803	17946
905.921	17847
906.038	17859
906.155	17821
906.272	17680
906.389	17661
906.506	17455
906.623	17532
906.74	17455
906.857	17387
906.974	17296
907.091	17630
907.208	17589
907.324	17516
907.441	17421
907.557	17197
907.674	17155
907.79	17128
907.907	17162
908.023	17102
908.139	17273
908.256	17075
908.372	17079
908.488	17132
908.604	16961
908.72	17003
908.836	16908
908.952	17006
909.068	16885
909.184	16976
909.3	16904
909.415	16930
909.531	16927
909.647	16698
909.762	16550
909.878	16531
909.993	16634
910.108	16573
910.224	16645
910.339	16577
910.454	16451
910.57	16352
910.685	16367
910.8	16637
910.915	16577
911.03	16318
911.145	16333
911.259	16211
911.374	16238
911.489	16147
911.604	16029
911.718	15991
911.833	16074
911.947	15793
912.062	15816
912.176	15945
912.291	16040
912.405	15991
912.519	16158
912.633	16147
912.748	16051
912.862	15956
912.976	15759
913.09	15606
913.204	15728
913.318	15778
913.431	15899
913.545	15861
913.659	15991
913.772	15736
913.886	15568
914	15530
914.113	15587
914.226	15789
914.34	15564
914.453	15389
914.566	15656
914.68	15454
914.793	15538
914.906	15306
915.019	15245
915.132	15131
915.245	15249
915.358	15249
915.47	15150
915.583	15127
915.696	15199
915.809	15302
915.921	15321
916.034	15116
916.146	15097
916.259	15028
916.371	15188
916.483	15135
916.595	14902
916.708	14963
916.82	15062
916.932	14925
917.044	14986
917.156	14994
917.268	14918
917.38	14979
917.491	14754
917.603	14762
917.715	14902
917.826	14963
917.938	14792
918.049	14636
918.161	14743
918.272	14918
918.384	14880
918.495	14762
918.606	14610
918.717	14613
918.828	14541
918.939	14507
919.05	14571
919.161	14606
919.272	14347
919.383	14514
919.494	14522
919.604	14811
919.715	14495
919.826	14488
919.936	14590
920.047	14606
920.157	14575
920.267	14857
920.378	14587
920.488	14530
920.598	14788
920.708	14823
920.818	14636
920.928	14644
921.038	14842
921.148	14762
921.258	14446
921.368	14347
921.477	14351
921.587	14317
921.697	14168
921.806	14305
921.916	14161
922.025	13997
922.134	13871
922.244	13852
922.353	13898
922.462	13833
922.571	13788
922.68	13514
922.789	13727
922.898	13578
923.007	13533
923.116	13521
923.224	13613
923.333	13514
923.442	13392
923.55	13327
923.659	13415
923.767	13388
923.876	13301
923.984	13441
924.092	13282
924.201	13350
924.309	13217
924.417	13270
924.525	13183
924.633	13270
924.741	14138
924.849	13057
924.956	13209
925.064	12985
925.172	12890
925.279	12943
925.387	13034
925.494	13038
925.602	13126
925.709	13015
925.816	12916
925.924	12920
926.031	13027
926.138	12875
926.245	12928
926.352	12738
926.459	13000
926.566	13023
926.673	12875
926.779	12806
926.886	12677
926.993	12604
927.099	12486
927.206	12551
927.312	12483
927.419	12585
927.525	12555
927.631	12601
927.737	12376
927.843	12464
927.95	12296
928.056	12403
928.162	12426
928.267	12429
928.373	12966
928.479	12460
928.585	12247
928.69	12330
928.796	12292
928.901	12239
929.007	12125
929.112	12235
929.218	12167
929.323	12129
929.428	12091
929.533	12175
929.638	11996
929.743	12140
929.848	12041
929.953	12095
930.058	11920
930.163	11775
930.267	11779
930.372	11920
930.477	11775
930.581	11980
930.685	11828
930.79	11710
930.894	11688
930.998	11611
931.103	11783
931.207	11410
931.311	11242
931.415	11265
931.519	11151
931.623	11041
