Data from test_V78500241_2221.txt Node
Date: Fri Mar 25 15:25:19 CST 2022
User: usil
Spectrometer: V785-0024
Trigger mode: 0
Integration Time (sec): 4.000000E-1
Scans to average: 1
Nonlinearity correction enabled: false
Boxcar width: 0
Storing dark spectrum: false
XAxis mode: Wavelengths
Number of Pixels in Spectrum: 1024
>>>>>Begin Spectral Data<<<<<
801.071	27983
801.214	27724
801.356	27496
801.499	27507
801.641	27374
801.783	27382
801.926	27370
802.068	27317
802.211	27173
802.353	27252
802.496	27070
802.638	26940
802.78	27032
802.923	26895
803.065	26861
803.208	27017
803.35	26979
803.492	27036
803.635	27165
803.777	27135
803.919	27325
804.061	27504
804.204	27233
804.346	27043
804.488	26979
804.63	27222
804.773	27024
804.915	27310
805.057	27287
805.199	27184
805.341	27233
805.483	27332
805.626	27386
805.768	27180
805.91	27336
806.052	27298
806.194	27294
806.336	27473
806.478	27294
806.62	27313
806.762	27348
806.904	27534
807.046	27831
807.188	27774
807.33	27785
807.472	27778
807.614	27766
807.756	27785
807.898	27561
808.04	27367
808.182	27557
808.324	27580
808.465	27686
808.607	28010
808.749	27850
808.891	28086
809.033	27972
809.174	27964
809.316	27869
809.458	27842
809.6	27911
809.741	28017
809.883	28109
810.025	28295
810.166	28116
810.308	28337
810.45	28101
810.591	28059
810.733	28010
810.875	27838
811.016	27819
811.158	27876
811.299	27994
811.441	28082
811.582	27998
811.724	28010
811.865	27892
812.007	27880
812.148	27945
812.29	27926
812.431	28150
812.573	28207
812.714	28333
812.855	28459
812.997	28637
813.138	28459
813.279	28565
813.421	28436
813.562	28409
813.703	28211
813.845	28166
813.986	27876
814.127	27709
814.268	27580
814.41	27622
814.551	27660
814.692	27637
814.833	27648
814.974	27625
815.115	27732
815.256	27458
815.397	27511
815.539	27561
815.68	27443
815.821	27382
815.962	27542
816.103	27344
816.244	27218
816.385	27325
816.526	27146
816.666	26971
816.807	26891
816.948	26899
817.089	27142
817.23	26864
817.371	27020
817.512	26857
817.653	26933
817.793	26773
817.934	26845
818.075	26940
818.216	26891
818.356	26876
818.497	26712
818.638	26571
818.778	26724
818.919	26598
819.06	26762
819.2	26826
819.341	26777
819.481	26975
819.622	27241
819.762	27382
819.903	27131
820.043	27116
820.184	27005
820.324	26979
820.465	27001
820.605	27077
820.746	26906
820.886	26842
821.026	26845
821.167	26986
821.307	26960
821.447	26864
821.588	26777
821.728	26804
821.868	26655
822.008	26495
822.149	26343
822.289	26385
822.429	26058
822.569	25970
822.709	26153
822.849	26058
822.99	25883
823.13	25799
823.27	25761
823.41	25753
823.55	25753
823.69	25681
823.83	25609
823.97	25715
824.11	25460
824.25	25457
824.389	25502
824.529	25651
824.669	25487
824.809	25681
824.949	25624
825.089	25609
825.228	25457
825.368	25327
825.508	25434
825.648	25312
825.787	25453
825.927	25453
826.067	25350
826.206	25202
826.346	25251
826.485	25415
826.625	25388
826.765	25464
826.904	25487
827.044	25160
827.183	25148
827.323	25114
827.462	25274
827.601	25031
827.741	25034
827.88	25114
828.02	25042
828.159	25000
828.298	25084
828.437	25259
828.577	25000
828.716	25137
828.855	25015
828.994	24821
829.134	24738
829.273	24844
829.412	24795
829.551	24901
829.69	24844
829.829	24909
829.968	24738
830.107	24928
830.246	24783
830.385	24601
830.524	24688
830.663	24540
830.802	24433
830.941	24407
831.08	24353
831.219	24414
831.357	24528
831.496	24700
831.635	24384
831.774	24330
831.913	24311
832.051	24129
832.19	24121
832.329	24186
832.467	24136
832.606	24011
832.744	24026
832.883	24015
833.022	24098
833.16	24083
833.299	24064
833.437	24015
833.576	24102
833.714	24087
833.852	24258
833.991	24117
834.129	24114
834.267	24125
834.406	24026
834.544	24182
834.682	24087
834.821	24209
834.959	24285
835.097	24053
835.235	24041
835.373	24140
835.511	24007
835.65	24007
835.788	23992
835.926	23779
836.064	23661
836.202	23760
836.34	23870
836.478	23935
836.615	23866
836.753	23954
836.891	23958
837.029	23920
837.167	23855
837.305	23851
837.443	23897
837.58	23832
837.718	23859
837.856	23809
837.993	23699
838.131	23745
838.269	23733
838.406	23809
838.544	23585
838.681	23512
838.819	23444
838.956	23311
839.094	23261
839.231	23197
839.369	23406
839.506	23566
839.643	23551
839.781	23250
839.918	23242
840.055	23212
840.193	23151
840.33	23105
840.467	23193
840.604	23185
840.742	23356
840.879	23060
841.016	23098
841.153	23071
841.29	23307
841.427	23147
841.564	23197
841.701	23128
841.838	23064
841.975	23086
842.112	23083
842.249	23056
842.385	22812
842.522	23212
842.659	22881
842.796	22892
842.933	22980
843.069	22881
843.206	22896
843.343	22961
843.479	22881
843.616	22873
843.752	22790
843.889	22812
844.025	22736
844.162	22706
844.298	22748
844.435	22554
844.571	22691
844.708	22683
844.844	22862
844.98	22839
845.117	22778
845.253	22687
845.389	22603
845.525	22500
845.661	22645
845.798	22504
845.934	22531
846.07	22447
846.206	22451
846.342	22592
846.478	22280
846.614	22211
846.75	22150
846.886	22162
847.022	22246
847.158	22093
847.294	22192
847.429	22131
847.565	22150
847.701	22375
847.837	21808
847.972	21857
848.108	21972
848.244	21945
848.379	21778
848.515	21766
848.65	21823
848.786	21778
848.921	21755
849.057	21755
849.192	21774
849.328	21781
849.463	21766
849.598	21770
849.734	21603
849.869	21485
850.004	21583
850.14	21595
850.275	21553
850.41	21439
850.545	21408
850.68	21462
850.815	21625
850.95	21591
851.085	21576
851.22	21603
851.355	21576
851.49	21530
851.625	21447
851.76	21492
851.895	21340
852.03	21416
852.165	21504
852.299	21469
852.434	21507
852.569	21485
852.703	21462
852.838	21629
852.973	21606
853.107	21587
853.242	21515
853.376	21382
853.511	21180
853.645	21256
853.78	21523
853.914	21351
854.048	21294
854.183	21386
854.317	21230
854.451	21530
854.585	21283
854.72	21237
854.854	21374
854.988	21218
855.122	21287
855.256	21230
855.39	21294
855.524	21428
855.658	21462
855.792	21336
855.926	21329
856.06	21332
856.194	21408
856.327	21313
856.461	21195
856.595	21298
856.729	21241
856.862	21405
856.996	21332
857.13	21496
857.263	21374
857.397	21386
857.53	21291
857.664	21359
857.797	21332
857.931	21397
858.064	21351
858.197	21534
858.331	21241
858.464	21386
858.597	21188
858.731	21272
858.864	21283
858.997	21332
859.13	21279
859.263	21355
859.396	21355
859.529	21302
859.662	21279
859.795	21294
859.928	21378
860.061	21389
860.194	21488
860.327	21359
860.46	21332
860.592	21386
860.725	21462
860.858	21420
860.99	21294
861.123	21192
861.256	21252
861.388	21367
861.521	22044
861.653	21131
861.786	21093
861.918	21199
862.05	21150
862.183	21389
862.315	21340
862.447	21306
862.58	21245
862.712	21127
862.844	20975
862.976	21081
863.108	21154
863.24	21481
863.372	20902
863.504	20960
863.636	21024
863.768	21020
863.9	21047
864.032	20819
864.164	20998
864.296	20975
864.428	21272
864.559	21089
864.691	21039
864.823	21001
864.954	21142
865.086	20845
865.217	20918
865.349	20902
865.48	20842
865.612	20990
865.743	21047
865.875	20880
866.006	20853
866.137	20925
866.269	20891
866.4	20849
866.531	20910
866.662	20941
866.793	20876
866.924	20963
867.055	20971
867.186	20819
867.317	20853
867.448	20811
867.579	20781
867.71	20708
867.841	20754
867.972	20838
868.103	20830
868.233	20800
868.364	20861
868.495	21051
868.625	21058
868.756	21256
868.886	21058
869.017	21199
869.147	21176
869.278	21249
869.408	21081
869.539	21013
869.669	21260
869.799	21161
869.929	21203
870.06	21192
870.19	21382
870.32	21408
870.45	21435
870.58	21519
870.71	21660
870.84	21675
870.97	21458
871.1	21500
871.23	21625
871.36	21660
871.489	21583
871.619	21686
871.749	21762
871.879	21694
872.008	21720
872.138	21603
872.267	21679
872.397	21530
872.526	21504
872.656	21500
872.785	21568
872.915	21679
873.044	21831
873.173	21698
873.303	21705
873.432	21816
873.561	21937
873.69	21789
873.819	21682
873.948	21747
874.077	21736
874.206	21724
874.335	21759
874.464	21835
874.593	21926
874.722	21918
874.851	22002
874.979	22010
875.108	22067
875.237	21987
875.365	21899
875.494	21987
875.623	21975
875.751	21987
875.88	21960
876.008	22040
876.136	22120
876.265	22367
876.393	22462
876.521	22325
876.65	22451
876.778	22287
876.906	22242
877.034	22242
877.162	22284
877.29	22162
877.418	22322
877.546	22325
877.674	22379
877.802	22253
877.93	22253
878.058	22200
878.185	22230
878.313	22230
878.441	22284
878.568	22128
878.696	22226
878.824	22367
878.951	22375
879.079	22523
879.206	22603
879.333	22398
879.461	22287
879.588	22234
879.715	22440
879.842	22478
879.97	22306
880.097	22166
880.224	22025
880.351	22078
880.478	22063
880.605	22082
880.732	22097
880.859	22280
880.986	22063
881.112	22120
881.239	21903
881.366	21876
881.493	21781
881.619	21736
881.746	21759
881.872	21732
881.999	21641
882.125	21728
882.252	21747
882.378	21720
882.505	21778
882.631	21416
882.757	21568
882.883	21412
883.01	21359
883.136	21336
883.262	21279
883.388	21123
883.514	21374
883.64	21450
883.766	21256
883.892	21161
884.018	21142
884.143	21378
884.269	21416
884.395	21047
884.52	21093
884.646	21032
884.772	20887
884.897	20857
885.023	21058
885.148	21100
885.274	21112
885.399	21096
885.524	21085
885.65	21058
885.775	21066
885.9	20960
886.025	21211
886.15	21062
886.275	21005
886.4	21036
886.525	21085
886.65	20925
886.775	20891
886.9	21100
887.025	21123
887.149	20979
887.274	20918
887.399	20788
887.523	20861
887.648	20670
887.773	20773
887.897	20861
888.021	20815
888.146	20807
888.27	20921
888.395	20830
888.519	20785
888.643	20952
888.767	20807
888.891	20845
889.015	20549
889.139	20701
889.263	20530
889.387	20781
889.511	20800
889.635	20716
889.759	20537
889.883	20617
890.006	20461
890.13	20667
890.254	20465
890.377	20598
890.501	20389
890.624	20328
890.748	20396
890.871	20214
890.995	20077
891.118	20050
891.241	20286
891.364	20073
891.488	20244
891.611	20149
891.734	20259
891.857	20244
891.98	20248
892.103	20126
892.226	20103
892.349	20115
892.471	19967
892.594	20107
892.717	20134
892.839	20050
892.962	20122
893.085	20088
893.207	20058
893.33	19879
893.452	19974
893.575	20088
893.697	20054
893.819	20214
893.941	20351
894.064	20195
894.186	20039
894.308	20176
894.43	20111
894.552	20248
894.674	20107
894.796	19951
894.918	19917
895.04	19883
895.161	20077
895.283	20088
895.405	19967
895.526	20107
895.648	19967
895.769	20062
895.891	20005
896.012	20237
896.134	20119
896.255	20149
896.376	19982
896.498	19989
896.619	20172
896.74	19982
896.861	20153
896.982	20492
897.103	20564
897.224	20419
897.345	20183
897.466	20168
897.587	20286
897.708	20457
897.828	20358
897.949	20248
898.07	20153
898.19	20221
898.311	20282
898.431	20259
898.552	20328
898.672	20408
898.792	20370
898.913	20396
899.033	20214
899.153	19997
899.273	20024
899.393	19906
899.513	20126
899.633	20031
899.753	20145
899.873	19978
899.993	20115
900.113	19982
900.232	19967
900.352	19936
900.472	19982
900.591	19784
900.711	19826
900.83	19845
900.95	19955
901.069	19925
901.189	19647
901.308	19480
901.427	19453
901.546	19514
901.665	19403
901.784	19327
901.904	19217
902.023	19232
902.141	18966
902.26	18943
902.379	18958
902.498	18981
902.617	18852
902.735	18985
902.854	18954
902.973	18848
903.091	18597
903.21	18509
903.328	18646
903.446	18414
903.565	18437
903.683	18456
903.801	18403
903.919	18296
904.038	18365
904.156	18178
904.274	18258
904.392	18201
904.51	18022
904.627	18110
904.745	18319
904.863	18140
904.981	18034
905.098	17931
905.216	17855
905.334	17878
905.451	17847
905.569	17840
905.686	17802
905.803	17828
905.921	17687
906.038	17794
906.155	17630
906.272	17505
906.389	17558
906.506	17406
906.623	17417
906.74	17322
906.857	17220
906.974	17277
907.091	17493
907.208	17436
907.324	17402
907.441	17273
907.557	17064
907.674	17109
907.79	17025
907.907	17117
908.023	17090
908.139	17124
908.256	17037
908.372	16965
908.488	17060
908.604	16748
908.72	16767
908.836	16790
908.952	16759
909.068	16713
909.184	16896
909.3	16809
909.415	16816
909.531	16683
909.647	16554
909.762	16580
909.878	16504
909.993	16474
910.108	16402
910.224	16466
910.339	16508
910.454	16337
910.57	16363
910.685	16246
910.8	16516
910.915	16466
911.03	16284
911.145	16131
911.259	16105
911.374	16067
911.489	16025
911.604	15983
911.718	15869
911.833	15926
911.947	15717
912.062	15682
912.176	15755
912.291	15835
912.405	15816
912.519	15949
912.633	15934
912.748	15850
912.862	15869
912.976	15679
913.09	15538
913.204	15572
913.318	15713
913.431	15861
913.545	15778
913.659	15766
913.772	15641
913.886	15469
914	15450
914.113	15561
914.226	15561
914.34	15477
914.453	15310
914.566	15542
914.68	15310
914.793	15340
914.906	15146
915.019	15051
915.132	15039
915.245	15058
915.358	15077
915.47	15146
915.583	15066
915.696	15112
915.809	15176
915.921	15165
916.034	14967
916.146	14979
916.259	15001
916.371	15093
916.483	15093
916.595	14937
916.708	14880
916.82	14838
916.932	14792
917.044	14937
917.156	14845
917.268	14788
917.38	14697
917.491	14644
917.603	14739
917.715	14826
917.826	14838
917.938	14598
918.049	14442
918.161	14678
918.272	14807
918.384	14792
918.495	14788
918.606	14606
918.717	14465
918.828	14465
918.939	14571
919.05	14434
919.161	14381
919.272	14282
919.383	14362
919.494	14518
919.604	14686
919.715	14571
919.826	14347
919.936	14347
920.047	14533
920.157	14450
920.267	14545
920.378	14423
920.488	14374
920.598	14495
920.708	14659
920.818	14590
920.928	14556
921.038	14644
921.148	14610
921.258	14355
921.368	14256
921.477	14187
921.587	14149
921.697	14103
921.806	14187
921.916	14081
922.025	13845
922.134	13807
922.244	13780
922.353	13826
922.462	13655
922.571	13571
922.68	13506
922.789	13377
922.898	13464
923.007	13464
923.116	13616
923.224	13480
923.333	13377
923.442	13312
923.55	13217
923.659	13362
923.767	13441
923.876	13270
923.984	13350
924.092	13202
924.201	13213
924.309	13259
924.417	13217
924.525	13126
924.633	13213
924.741	13906
924.849	12913
924.956	12996
925.064	12897
925.172	12890
925.279	12878
925.387	12939
925.494	12909
925.602	13034
925.709	12916
925.816	12924
925.924	12859
926.031	12920
926.138	12798
926.245	12890
926.352	12703
926.459	12970
926.566	12840
926.673	12856
926.779	12635
926.886	12738
926.993	12521
927.099	12372
927.206	12369
927.312	12479
927.419	12559
927.525	12429
927.631	12486
927.737	12437
927.843	12361
927.95	12247
928.056	12262
928.162	12213
928.267	12296
928.373	12913
928.479	12384
928.585	12079
928.69	12209
928.796	12247
928.901	12140
929.007	12049
929.112	12117
929.218	12098
929.323	12114
929.428	11954
929.533	12163
929.638	11904
929.743	11901
929.848	11973
929.953	11999
930.058	11790
930.163	11733
930.267	11745
930.372	11920
930.477	11729
930.581	11824
930.685	11634
930.79	11577
930.894	11592
930.998	11474
931.103	11672
931.207	11235
931.311	11284
931.415	11216
931.519	10972
931.623	11006
