Data from test_V78500241_436.txt Node
Date: Fri Mar 25 15:12:53 CST 2022
User: usil
Spectrometer: V785-0024
Trigger mode: 0
Integration Time (sec): 4.000000E-1
Scans to average: 1
Nonlinearity correction enabled: false
Boxcar width: 0
Storing dark spectrum: false
XAxis mode: Wavelengths
Number of Pixels in Spectrum: 1024
>>>>>Begin Spectral Data<<<<<
801.071	27169
801.214	27138
801.356	27024
801.499	26845
801.641	26731
801.783	26712
801.926	26800
802.068	26758
802.211	26617
802.353	26514
802.496	26438
802.638	26408
802.78	26256
802.923	26423
803.065	26434
803.208	26408
803.35	26377
803.492	26400
803.635	26446
803.777	26438
803.919	26495
804.061	26788
804.204	26552
804.346	26332
804.488	26442
804.63	26480
804.773	26427
804.915	26530
805.057	26834
805.199	26552
805.341	26590
805.483	26712
805.626	26629
805.768	26541
805.91	26537
806.052	26777
806.194	26617
806.336	26883
806.478	26674
806.62	26568
806.762	26811
806.904	26918
807.046	27036
807.188	27036
807.33	27081
807.472	27077
807.614	27028
807.756	26895
807.898	26929
808.04	26940
808.182	26933
808.324	26982
808.465	26902
808.607	27039
808.749	27096
808.891	27291
809.033	27332
809.174	27325
809.316	27306
809.458	27260
809.6	27150
809.741	27302
809.883	27313
810.025	27644
810.166	27420
810.308	27610
810.45	27477
810.591	27519
810.733	27367
810.875	27283
811.016	27157
811.158	26910
811.299	27203
811.441	27351
811.582	27382
811.724	27176
811.865	27112
812.007	27104
812.148	27207
812.29	27222
812.431	27291
812.573	27458
812.714	27686
812.855	27679
812.997	27876
813.138	27987
813.279	27854
813.421	27804
813.562	27751
813.703	27561
813.845	27424
813.986	27024
814.127	26990
814.268	26781
814.41	27043
814.551	26880
814.692	26918
814.833	26674
814.974	26880
815.115	26868
815.256	26629
815.397	26872
815.539	26807
815.68	26689
815.821	26564
815.962	26609
816.103	26621
816.244	26590
816.385	26499
816.526	26275
816.666	26278
816.807	26020
816.948	26122
817.089	26275
817.23	26126
817.371	26263
817.512	26221
817.653	26149
817.793	26172
817.934	26096
818.075	26157
818.216	26145
818.356	26069
818.497	26088
818.638	25902
818.778	25811
818.919	25811
819.06	25997
819.2	26031
819.341	26130
819.481	26142
819.622	26339
819.762	26408
819.903	26415
820.043	26233
820.184	26206
820.324	26256
820.465	26370
820.605	26336
820.746	26229
820.886	26210
821.026	26225
821.167	26119
821.307	26298
821.447	26138
821.588	26088
821.728	26027
821.868	25750
822.008	25685
822.149	25620
822.289	25693
822.429	25202
822.569	25221
822.709	25274
822.849	25190
822.99	25099
823.13	25148
823.27	25038
823.41	25000
823.55	24856
823.69	24939
823.83	24951
823.97	24875
824.11	24730
824.25	24703
824.389	24635
824.529	24844
824.669	24734
824.809	24795
824.949	24814
825.089	24776
825.228	24951
825.368	24791
825.508	24661
825.648	24631
825.787	24661
825.927	24635
826.067	24601
826.206	24589
826.346	24639
826.485	24623
826.625	24715
826.765	24612
826.904	24753
827.044	24304
827.183	24399
827.323	24292
827.462	24380
827.601	24403
827.741	24391
827.88	24372
828.02	24254
828.159	24311
828.298	24357
828.437	24376
828.577	24281
828.716	24475
828.855	24289
828.994	24110
829.134	23965
829.273	24072
829.412	24083
829.551	23980
829.69	24034
829.829	24057
829.968	24197
830.107	24114
830.246	24068
830.385	24057
830.524	23901
830.663	23904
830.802	23821
830.941	23737
831.08	23676
831.219	23707
831.357	23821
831.496	23908
831.635	23630
831.774	23627
831.913	23478
832.051	23547
832.19	23630
832.329	23604
832.467	23402
832.606	23311
832.744	23410
832.883	23349
833.022	23414
833.16	23379
833.299	23448
833.437	23471
833.576	23474
833.714	23410
833.852	23330
833.991	23474
834.129	23551
834.267	23539
834.406	23482
834.544	23436
834.682	23440
834.821	23368
834.959	23608
835.097	23463
835.235	23452
835.373	23459
835.511	23326
835.65	23326
835.788	23254
835.926	23151
836.064	23083
836.202	23147
836.34	23296
836.478	23387
836.615	23231
836.753	23433
836.891	23387
837.029	23277
837.167	23174
837.305	23273
837.443	23345
837.58	23075
837.718	23231
837.856	23132
837.993	23109
838.131	23208
838.269	22927
838.406	23083
838.544	22919
838.681	22915
838.819	22752
838.956	22542
839.094	22622
839.231	22675
839.369	22706
839.506	22999
839.643	22854
839.781	22653
839.918	22599
840.055	22611
840.193	22519
840.33	22481
840.467	22683
840.604	22561
840.742	22786
840.879	22508
841.016	22500
841.153	22428
841.29	22634
841.427	22371
841.564	22489
841.701	22485
841.838	22497
841.975	22443
842.112	22333
842.249	22314
842.385	22287
842.522	22512
842.659	22440
842.796	22295
842.933	22265
843.069	22261
843.206	22284
843.343	22341
843.479	22306
843.616	22226
843.752	21918
843.889	22105
844.025	22230
844.162	22070
844.298	22070
844.435	21884
844.571	21991
844.708	22090
844.844	22265
844.98	22257
845.117	22226
845.253	21983
845.389	21888
845.525	21956
845.661	21915
845.798	21842
845.934	21876
846.07	21720
846.206	21770
846.342	21918
846.478	21663
846.614	21644
846.75	21580
846.886	21568
847.022	21603
847.158	21679
847.294	21625
847.429	21637
847.565	21397
847.701	21751
847.837	21313
847.972	21397
848.108	21439
848.244	21450
848.379	21192
848.515	21268
848.65	21116
848.786	21093
848.921	21188
849.057	21180
849.192	21211
849.328	21207
849.463	21043
849.598	21157
849.734	21089
849.869	20990
850.004	20857
850.14	20948
850.275	20963
850.41	20705
850.545	20842
850.68	20815
850.815	20921
850.95	20979
851.085	21058
851.22	21051
851.355	20902
851.49	20963
851.625	20918
851.76	20891
851.895	20796
852.03	20735
852.165	20861
852.299	20868
852.434	20986
852.569	20937
852.703	20826
852.838	20895
852.973	21077
853.107	21028
853.242	20849
853.376	20735
853.511	20746
853.645	20712
853.78	20906
853.914	20762
854.048	20617
854.183	20629
854.317	20758
854.451	20834
854.585	20648
854.72	20632
854.854	20785
854.988	20648
855.122	20720
855.256	20609
855.39	20686
855.524	20853
855.658	20743
855.792	20823
855.926	20750
856.06	20765
856.194	20887
856.327	20674
856.461	20670
856.595	20819
856.729	20632
856.862	20842
856.996	20762
857.13	20765
857.263	20891
857.397	20834
857.53	20708
857.664	20750
857.797	20701
857.931	20731
858.064	20762
858.197	20872
858.331	20697
858.464	20727
858.597	20609
858.731	20659
858.864	20758
858.997	20689
859.13	20792
859.263	20625
859.396	20724
859.529	20648
859.662	20674
859.795	20625
859.928	20651
860.061	20815
860.194	20868
860.327	20773
860.46	20746
860.592	20796
860.725	20857
860.858	20788
860.99	20746
861.123	20583
861.256	20686
861.388	20701
861.521	21454
861.653	20625
861.786	20556
861.918	20617
862.05	20743
862.183	20621
862.315	20583
862.447	20773
862.58	20590
862.712	20442
862.844	20355
862.976	20541
863.108	20606
863.24	20941
863.372	20461
863.504	20393
863.636	20492
863.768	20549
863.9	20400
864.032	20336
864.164	20393
864.296	20446
864.428	20503
864.559	20427
864.691	20526
864.823	20476
864.954	20396
865.086	20423
865.217	20400
865.349	20275
865.48	20275
865.612	20317
865.743	20507
865.875	20374
866.006	20400
866.137	20233
866.269	20370
866.4	20301
866.531	20305
866.662	20275
866.793	20168
866.924	20317
867.055	20206
867.186	20358
867.317	20275
867.448	20107
867.579	20301
867.71	20240
867.841	20138
867.972	20511
868.103	20191
868.233	20256
868.364	20301
868.495	20434
868.625	20450
868.756	20613
868.886	20484
869.017	20499
869.147	20689
869.278	20682
869.408	20545
869.539	20602
869.669	20590
869.799	20450
869.929	20701
870.06	20617
870.19	20914
870.32	20864
870.45	20899
870.58	20918
870.71	20956
870.84	20990
870.97	20899
871.1	20918
871.23	21066
871.36	21104
871.489	21062
871.619	21047
871.749	21161
871.879	21188
872.008	21264
872.138	21211
872.267	21085
872.397	20902
872.526	20902
872.656	20918
872.785	20895
872.915	21188
873.044	21207
873.173	21135
873.303	21207
873.432	21237
873.561	21214
873.69	21195
873.819	21074
873.948	21150
874.077	21100
874.206	21184
874.335	21245
874.464	21302
874.593	21344
874.722	21340
874.851	21462
874.979	21447
875.108	21424
875.237	21249
875.365	21336
875.494	21310
875.623	21393
875.751	21241
875.88	21317
876.008	21526
876.136	21466
876.265	21816
876.393	21892
876.521	21770
876.65	21854
876.778	21797
876.906	21759
877.034	21732
877.162	21755
877.29	21644
877.418	21732
877.546	21675
877.674	21663
877.802	21804
877.93	21785
878.058	21698
878.185	21595
878.313	21663
878.441	21701
878.568	21500
878.696	21804
878.824	21690
878.951	21838
879.079	21930
879.206	21949
879.333	21945
879.461	21739
879.588	21857
879.715	21861
879.842	21987
879.97	21720
880.097	21637
880.224	21637
880.351	21625
880.478	21519
880.605	21587
880.732	21473
880.859	21884
880.986	21580
881.112	21610
881.239	21477
881.366	21310
881.493	21184
881.619	21116
881.746	21150
881.872	21081
881.999	21157
882.125	21077
882.252	21146
882.378	21077
882.505	21344
882.631	21077
882.757	20880
882.883	20872
883.01	20838
883.136	20872
883.262	20693
883.388	20651
883.514	20849
883.64	20937
883.766	20731
883.892	20552
884.018	20648
884.143	20743
884.269	20967
884.395	20446
884.52	20530
884.646	20571
884.772	20415
884.897	20339
885.023	20476
885.148	20571
885.274	20590
885.399	20564
885.524	20541
885.65	20503
885.775	20564
885.9	20393
886.025	20568
886.15	20651
886.275	20465
886.4	20332
886.525	20431
886.65	20499
886.775	20381
886.9	20594
887.025	20788
887.149	20480
887.274	20362
887.399	20221
887.523	20389
887.648	20191
887.773	20195
887.897	20434
888.021	20343
888.146	20290
888.27	20339
888.395	20362
888.519	20324
888.643	20248
888.767	20286
888.891	20301
889.015	20077
889.139	20176
889.263	20050
889.387	20111
889.511	20183
889.635	20221
889.759	20050
889.883	20050
890.006	20229
890.13	20130
890.254	19944
890.377	19986
890.501	19868
890.624	19799
890.748	19845
890.871	19849
890.995	19624
891.118	19567
891.241	19681
891.364	19742
891.488	19738
891.611	19647
891.734	19662
891.857	19689
891.98	19647
892.103	19696
892.226	19632
892.349	19620
892.471	19510
892.594	19616
892.717	19567
892.839	19537
892.962	19647
893.085	19651
893.207	19506
893.33	19388
893.452	19483
893.575	19601
893.697	19502
893.819	19708
893.941	19803
894.064	19761
894.186	19476
894.308	19556
894.43	19582
894.552	19719
894.674	19708
894.796	19571
894.918	19571
895.04	19655
895.161	19499
895.283	19708
895.405	19445
895.526	19590
895.648	19670
895.769	19597
895.891	19704
896.012	19685
896.134	19537
896.255	19571
896.376	19510
896.498	19582
896.619	19521
896.74	19647
896.861	19662
896.982	19868
897.103	20008
897.224	19932
897.345	19837
897.466	19727
897.587	19803
897.708	19932
897.828	19856
897.949	19803
898.07	19537
898.19	19761
898.311	19860
898.431	19723
898.552	19769
898.672	19928
898.792	19811
898.913	19898
899.033	19693
899.153	19635
899.273	19605
899.393	19495
899.513	19620
899.633	19540
899.753	19655
899.873	19396
899.993	19548
900.113	19635
900.232	19575
900.352	19480
900.472	19407
900.591	19400
900.711	19282
900.83	19331
900.95	19487
901.069	19495
901.189	19225
901.308	19088
901.427	18905
901.546	18932
901.665	18993
901.784	18833
901.904	18901
902.023	18700
902.141	18521
902.26	18490
902.379	18467
902.498	18525
902.617	18395
902.735	18483
902.854	18502
902.973	18426
903.091	18125
903.21	18022
903.328	18140
903.446	18041
903.565	17912
903.683	17931
903.801	17878
903.919	18011
904.038	17798
904.156	17756
904.274	17748
904.392	17726
904.51	17684
904.627	17687
904.745	17726
904.863	17756
904.981	17547
905.098	17433
905.216	17391
905.334	17387
905.451	17429
905.569	17261
905.686	17322
905.803	17292
905.921	17299
906.038	17334
906.155	17151
906.272	17045
906.389	17025
906.506	16999
906.623	17041
906.74	16873
906.857	16896
906.974	16862
907.091	16999
907.208	16968
907.324	16847
907.441	16748
907.557	16752
907.674	16561
907.79	16561
907.907	16630
908.023	16706
908.139	16801
908.256	16660
908.372	16546
908.488	16569
908.604	16462
908.72	16356
908.836	16341
908.952	16257
909.068	16398
909.184	16329
909.3	16341
909.415	16272
909.531	16382
909.647	16120
909.762	16109
909.878	16086
909.993	15998
910.108	16006
910.224	15960
910.339	16048
910.454	16051
910.57	15869
910.685	15789
910.8	16101
910.915	16086
911.03	15937
911.145	15793
911.259	15793
911.374	15667
911.489	15595
911.604	15538
911.718	15412
911.833	15469
911.947	15428
912.062	15252
912.176	15424
912.291	15424
912.405	15412
912.519	15682
912.633	15538
912.748	15428
912.862	15412
912.976	15275
913.09	15192
913.204	15237
913.318	15298
913.431	15363
913.545	15374
913.659	15481
913.772	15180
913.886	15070
914	15047
914.113	15112
914.226	15184
914.34	15131
914.453	15066
914.566	15013
914.68	15024
914.793	14998
914.906	14697
915.019	14629
915.132	14701
915.245	14811
915.358	14765
915.47	14670
915.583	14701
915.696	14636
915.809	14807
915.921	14804
916.034	14651
916.146	14625
916.259	14617
916.371	14670
916.483	14560
916.595	14549
916.708	14511
916.82	14446
916.932	14492
917.044	14461
917.156	14370
917.268	14358
917.38	14377
917.491	14355
917.603	14370
917.715	14396
917.826	14492
917.938	14355
918.049	14202
918.161	14248
918.272	14377
918.384	14412
918.495	14294
918.606	14187
918.717	14027
918.828	14195
918.939	14180
919.05	14084
919.161	14183
919.272	13993
919.383	13932
919.494	14176
919.604	14320
919.715	14031
919.826	14050
919.936	14062
920.047	14145
920.157	14134
920.267	14313
920.378	14145
920.488	14123
920.598	14218
920.708	14412
920.818	14271
920.928	14221
921.038	14366
921.148	14362
921.258	14092
921.368	14024
921.477	13875
921.587	13814
921.697	13712
921.806	13864
921.916	13647
922.025	13552
922.134	13533
922.244	13441
922.353	13533
922.462	13407
922.571	13266
922.68	13263
922.789	13107
922.898	13118
923.007	13000
923.116	13133
923.224	13069
923.333	13034
923.442	13008
923.55	12954
923.659	12970
923.767	13129
923.876	12985
923.984	13023
924.092	12817
924.201	12970
924.309	12867
924.417	12856
924.525	12795
924.633	12901
924.741	13776
924.849	12574
924.956	12810
925.064	12620
925.172	12414
925.279	12445
925.387	12551
925.494	12612
925.602	12730
925.709	12669
925.816	12525
925.924	12536
926.031	12563
926.138	12498
926.245	12574
926.352	12452
926.459	12544
926.566	12570
926.673	12467
926.779	12338
926.886	12300
926.993	12228
927.099	12216
927.206	12045
927.312	12076
927.419	12190
927.525	12148
927.631	12182
927.737	12038
927.843	12087
927.95	11927
928.056	11912
928.162	12068
928.267	12026
928.373	12669
928.479	12045
928.585	11870
928.69	11870
928.796	11965
928.901	11840
929.007	11672
929.112	11855
929.218	11851
929.323	11775
929.428	11676
929.533	11889
929.638	11691
929.743	11676
929.848	11733
929.953	11699
930.058	11532
930.163	11383
930.267	11360
930.372	11577
930.477	11398
930.581	11714
930.685	11364
930.79	11269
930.894	11311
930.998	11277
931.103	11322
931.207	11090
931.311	10976
931.415	10919
931.519	10645
931.623	10698
