Data from test_V78500241_2899.txt Node
Date: Fri Mar 25 15:30:02 CST 2022
User: usil
Spectrometer: V785-0024
Trigger mode: 0
Integration Time (sec): 4.000000E-1
Scans to average: 1
Nonlinearity correction enabled: false
Boxcar width: 0
Storing dark spectrum: false
XAxis mode: Wavelengths
Number of Pixels in Spectrum: 1024
>>>>>Begin Spectral Data<<<<<
801.071	27226
801.214	27222
801.356	26979
801.499	26864
801.641	26720
801.783	26800
801.926	26933
802.068	26811
802.211	26773
802.353	26693
802.496	26564
802.638	26507
802.78	26385
802.923	26431
803.065	26385
803.208	26286
803.35	26480
803.492	26469
803.635	26762
803.777	26492
803.919	26716
804.061	26933
804.204	26655
804.346	26568
804.488	26476
804.63	26552
804.773	26480
804.915	26670
805.057	26845
805.199	26530
805.341	26651
805.483	26731
805.626	26792
805.768	26659
805.91	26785
806.052	26651
806.194	26659
806.336	26781
806.478	26598
806.62	26788
806.762	26937
806.904	26937
807.046	27211
807.188	27214
807.33	27116
807.472	27135
807.614	27112
807.756	26967
807.898	27013
808.04	27028
808.182	26910
808.324	27005
808.465	27013
808.607	27226
808.749	27439
808.891	27500
809.033	27530
809.174	27393
809.316	27424
809.458	27321
809.6	27245
809.741	27329
809.883	27481
810.025	27595
810.166	27557
810.308	27557
810.45	27568
810.591	27561
810.733	27306
810.875	27348
811.016	27154
811.158	27207
811.299	27427
811.441	27443
811.582	27485
811.724	27245
811.865	27275
812.007	27260
812.148	27146
812.29	27317
812.431	27488
812.573	27633
812.714	27686
812.855	27812
812.997	27876
813.138	27975
813.279	27949
813.421	27774
813.562	27713
813.703	27622
813.845	27557
813.986	27424
814.127	27256
814.268	26960
814.41	27131
814.551	26990
814.692	26979
814.833	26800
814.974	26929
815.115	26933
815.256	26830
815.397	26929
815.539	26895
815.68	26861
815.821	26743
815.962	26830
816.103	26792
816.244	26583
816.385	26537
816.526	26412
816.666	26412
816.807	26256
816.948	26248
817.089	26393
817.23	26256
817.371	26191
817.512	26214
817.653	26317
817.793	26187
817.934	26149
818.075	26317
818.216	26225
818.356	26187
818.497	26183
818.638	25989
818.778	26035
818.919	25902
819.06	26084
819.2	26092
819.341	26305
819.481	26317
819.622	26336
819.762	26469
819.903	26518
820.043	26423
820.184	26191
820.324	26355
820.465	26298
820.605	26400
820.746	26313
820.886	26065
821.026	26301
821.167	26282
821.307	26195
821.447	26168
821.588	26172
821.728	25970
821.868	25814
822.008	25799
822.149	25635
822.289	25708
822.429	25403
822.569	25407
822.709	25411
822.849	25240
822.99	25156
823.13	25152
823.27	25122
823.41	24989
823.55	24840
823.69	25065
823.83	25015
823.97	24928
824.11	24783
824.25	24772
824.389	24882
824.529	24947
824.669	24711
824.809	24909
824.949	24840
825.089	24875
825.228	24859
825.368	24578
825.508	24722
825.648	24677
825.787	24715
825.927	24852
826.067	24620
826.206	24665
826.346	24772
826.485	24760
826.625	24757
826.765	24764
826.904	24612
827.044	24521
827.183	24330
827.323	24388
827.462	24525
827.601	24475
827.741	24395
827.88	24319
828.02	24232
828.159	24292
828.298	24448
828.437	24437
828.577	24266
828.716	24486
828.855	24410
828.994	24144
829.134	24060
829.273	24121
829.412	24076
829.551	24011
829.69	24095
829.829	24018
829.968	24121
830.107	24167
830.246	24178
830.385	23996
830.524	24011
830.663	23935
830.802	23809
830.941	23627
831.08	23684
831.219	23847
831.357	23817
831.496	23908
831.635	23737
831.774	23581
831.913	23512
832.051	23573
832.19	23463
832.329	23448
832.467	23318
832.606	23402
832.744	23277
832.883	23345
833.022	23425
833.16	23330
833.299	23265
833.437	23254
833.576	23353
833.714	23284
833.852	23417
833.991	23501
834.129	23497
834.267	23478
834.406	23406
834.544	23497
834.682	23379
834.821	23455
834.959	23573
835.097	23376
835.235	23398
835.373	23356
835.511	23490
835.65	23318
835.788	23315
835.926	23041
836.064	23128
836.202	23117
836.34	23303
836.478	23395
836.615	23136
836.753	23140
836.891	23261
837.029	23326
837.167	23147
837.305	23094
837.443	23124
837.58	23083
837.718	23170
837.856	23029
837.993	23033
838.131	23033
838.269	22900
838.406	23044
838.544	22911
838.681	22774
838.819	22713
838.956	22573
839.094	22561
839.231	22656
839.369	22767
839.506	22946
839.643	22793
839.781	22546
839.918	22577
840.055	22546
840.193	22561
840.33	22519
840.467	22660
840.604	22615
840.742	22660
840.879	22481
841.016	22466
841.153	22455
841.29	22645
841.427	22413
841.564	22508
841.701	22516
841.838	22455
841.975	22474
842.112	22478
842.249	22409
842.385	22428
842.522	22592
842.659	22432
842.796	22192
842.933	22284
843.069	22280
843.206	22226
843.343	22249
843.479	22135
843.616	22295
843.752	22017
843.889	22017
844.025	22158
844.162	22025
844.298	22261
844.435	22025
844.571	21972
844.708	22029
844.844	22086
844.98	22147
845.117	22147
845.253	22029
845.389	21964
845.525	21911
845.661	21934
845.798	21781
845.934	21827
846.07	21648
846.206	21854
846.342	21911
846.478	21701
846.614	21507
846.75	21496
846.886	21534
847.022	21576
847.158	21504
847.294	21534
847.429	21557
847.565	21492
847.701	21736
847.837	21260
847.972	21218
848.108	21325
848.244	21272
848.379	21165
848.515	21150
848.65	21070
848.786	21070
848.921	21077
849.057	21249
849.192	21146
849.328	21070
849.463	21089
849.598	21024
849.734	20998
849.869	20982
850.004	20853
850.14	20815
850.275	20815
850.41	20864
850.545	20906
850.68	20933
850.815	20914
850.95	20906
851.085	20967
851.22	20902
851.355	20883
851.49	20906
851.625	20918
851.76	20864
851.895	20762
852.03	20785
852.165	20880
852.299	20891
852.434	20868
852.569	20994
852.703	20864
852.838	20918
852.973	21047
853.107	20975
853.242	20937
853.376	20724
853.511	20629
853.645	20629
853.78	20765
853.914	20617
854.048	20629
854.183	20667
854.317	20716
854.451	20815
854.585	20758
854.72	20674
854.854	20872
854.988	20629
855.122	20659
855.256	20541
855.39	20682
855.524	20861
855.658	20735
855.792	20678
855.926	20568
856.06	20796
856.194	20785
856.327	20659
856.461	20693
856.595	20632
856.729	20640
856.862	20800
856.996	20712
857.13	20686
857.263	20781
857.397	20830
857.53	20640
857.664	20697
857.797	20727
857.931	20750
858.064	20731
858.197	20769
858.331	20575
858.464	20644
858.597	20492
858.731	20697
858.864	20636
858.997	20716
859.13	20549
859.263	20686
859.396	20796
859.529	20568
859.662	20621
859.795	20705
859.928	20678
860.061	20876
860.194	20902
860.327	20743
860.46	20731
860.592	20842
860.725	20849
860.858	20811
860.99	20705
861.123	20609
861.256	20655
861.388	20655
861.521	21397
861.653	20579
861.786	20492
861.918	20533
862.05	20583
862.183	20670
862.315	20678
862.447	20689
862.58	20587
862.712	20366
862.844	20408
862.976	20480
863.108	20533
863.24	20880
863.372	20259
863.504	20389
863.636	20336
863.768	20427
863.9	20294
864.032	20404
864.164	20317
864.296	20374
864.428	20469
864.559	20488
864.691	20537
864.823	20431
864.954	20423
865.086	20450
865.217	20309
865.349	20115
865.48	20259
865.612	20389
865.743	20389
865.875	20366
866.006	20298
866.137	20218
866.269	20324
866.4	20313
866.531	20221
866.662	20240
866.793	20271
866.924	20168
867.055	20233
867.186	20339
867.317	20210
867.448	20164
867.579	20157
867.71	20221
867.841	20183
867.972	20355
868.103	20221
868.233	20290
868.364	20252
868.495	20396
868.625	20446
868.756	20526
868.886	20511
869.017	20541
869.147	20564
869.278	20625
869.408	20560
869.539	20362
869.669	20590
869.799	20560
869.929	20701
870.06	20549
870.19	20739
870.32	20838
870.45	20785
870.58	20853
870.71	20918
870.84	21032
870.97	20785
871.1	20895
871.23	21039
871.36	21043
871.489	20937
871.619	20963
871.749	21135
871.879	21161
872.008	21169
872.138	21096
872.267	21157
872.397	21081
872.526	20941
872.656	20960
872.785	20876
872.915	21005
873.044	21108
873.173	21154
873.303	21176
873.432	21184
873.561	21260
873.69	21173
873.819	21226
873.948	21100
874.077	21157
874.206	21055
874.335	21081
874.464	21211
874.593	21298
874.722	21283
874.851	21230
874.979	21340
875.108	21412
875.237	21340
875.365	21188
875.494	21355
875.623	21424
875.751	21222
875.88	21370
876.008	21660
876.136	21580
876.265	21804
876.393	21956
876.521	21797
876.65	21755
876.778	21743
876.906	21694
877.034	21778
877.162	21797
877.29	21599
877.418	21762
877.546	21743
877.674	21759
877.802	21633
877.93	21876
878.058	21606
878.185	21542
878.313	21671
878.441	21633
878.568	21530
878.696	21599
878.824	21770
878.951	21804
879.079	21903
879.206	21941
879.333	21816
879.461	21637
879.588	21739
879.715	21857
879.842	21953
879.97	21759
880.097	21572
880.224	21534
880.351	21511
880.478	21599
880.605	21485
880.732	21625
880.859	21698
880.986	21519
881.112	21644
881.239	21485
881.366	21382
881.493	21214
881.619	20986
881.746	21096
881.872	21070
881.999	21047
882.125	20948
882.252	21085
882.378	21089
882.505	21184
882.631	21100
882.757	20838
882.883	20956
883.01	20758
883.136	20796
883.262	20697
883.388	20743
883.514	20891
883.64	20868
883.766	20845
883.892	20663
884.018	20617
884.143	20781
884.269	20944
884.395	20518
884.52	20514
884.646	20522
884.772	20351
884.897	20336
885.023	20530
885.148	20613
885.274	20629
885.399	20556
885.524	20484
885.65	20507
885.775	20495
885.9	20263
886.025	20465
886.15	20545
886.275	20537
886.4	20488
886.525	20389
886.65	20385
886.775	20351
886.9	20530
887.025	20640
887.149	20412
887.274	20286
887.399	20214
887.523	20157
887.648	20305
887.773	20229
887.897	20305
888.021	20259
888.146	20172
888.27	20370
888.395	20237
888.519	20370
888.643	20233
888.767	20256
888.891	20180
889.015	20035
889.139	20142
889.263	20020
889.387	20134
889.511	20248
889.635	20111
889.759	20062
889.883	20084
890.006	20107
890.13	20119
890.254	19833
890.377	19887
890.501	19799
890.624	19727
890.748	19776
890.871	19731
890.995	19578
891.118	19548
891.241	19597
891.364	19712
891.488	19670
891.611	19643
891.734	19594
891.857	19666
891.98	19605
892.103	19689
892.226	19613
892.349	19510
892.471	19411
892.594	19594
892.717	19609
892.839	19586
892.962	19575
893.085	19632
893.207	19529
893.33	19533
893.452	19480
893.575	19700
893.697	19563
893.819	19624
893.941	19734
894.064	19780
894.186	19449
894.308	19388
894.43	19662
894.552	19639
894.674	19601
894.796	19518
894.918	19525
895.04	19438
895.161	19586
895.283	19651
895.405	19419
895.526	19544
895.648	19552
895.769	19643
895.891	19620
896.012	19674
896.134	19525
896.255	19487
896.376	19449
896.498	19632
896.619	19601
896.74	19464
896.861	19712
896.982	19875
897.103	19909
897.224	19841
897.345	19814
897.466	19704
897.587	19784
897.708	19852
897.828	19795
897.949	19685
898.07	19537
898.19	19727
898.311	19837
898.431	19772
898.552	19856
898.672	19879
898.792	19883
898.913	19814
899.033	19696
899.153	19639
899.273	19453
899.393	19529
899.513	19575
899.633	19521
899.753	19594
899.873	19388
899.993	19628
900.113	19476
900.232	19480
900.352	19499
900.472	19491
900.591	19308
900.711	19369
900.83	19266
900.95	19422
901.069	19373
901.189	19335
901.308	19114
901.427	18924
901.546	18985
901.665	18947
901.784	18924
901.904	18764
902.023	18719
902.141	18616
902.26	18429
902.379	18544
902.498	18452
902.617	18460
902.735	18513
902.854	18323
902.973	18456
903.091	18182
903.21	18129
903.328	18155
903.446	17958
903.565	17992
903.683	17878
903.801	17832
903.919	17999
904.038	17824
904.156	17680
904.274	17703
904.392	17729
904.51	17733
904.627	17657
904.745	17752
904.863	17748
904.981	17619
905.098	17379
905.216	17402
905.334	17395
905.451	17463
905.569	17334
905.686	17337
905.803	17345
905.921	17083
906.038	17322
906.155	17185
906.272	17029
906.389	16953
906.506	16949
906.623	16923
906.74	16980
906.857	16801
906.974	16866
907.091	16987
907.208	17014
907.324	16995
907.441	16774
907.557	16660
907.674	16641
907.79	16599
907.907	16558
908.023	16672
908.139	16656
908.256	16774
908.372	16561
908.488	16580
908.604	16356
908.72	16394
908.836	16341
908.952	16367
909.068	16314
909.184	16390
909.3	16280
909.415	16432
909.531	16314
909.647	16116
909.762	15998
909.878	16055
909.993	16109
910.108	15979
910.224	16044
910.339	16010
910.454	15926
910.57	15770
910.685	15846
910.8	16025
910.915	16055
911.03	15922
911.145	15739
911.259	15701
911.374	15690
911.489	15526
911.604	15587
911.718	15405
911.833	15447
911.947	15439
912.062	15325
912.176	15511
912.291	15507
912.405	15431
912.519	15629
912.633	15561
912.748	15386
912.862	15447
912.976	15325
913.09	15241
913.204	15256
913.318	15275
913.431	15226
913.545	15351
913.659	15283
913.772	15287
913.886	15024
914	15036
914.113	15097
914.226	15104
914.34	14994
914.453	14891
914.566	15131
914.68	14956
914.793	14906
914.906	14735
915.019	14644
915.132	14594
915.245	14678
915.358	14727
915.47	14610
915.583	14705
915.696	14686
915.809	14754
915.921	14724
916.034	14636
916.146	14442
916.259	14636
916.371	14648
916.483	14541
916.595	14492
916.708	14442
916.82	14511
916.932	14450
917.044	14476
917.156	14484
917.268	14286
917.38	14339
917.491	14286
917.603	14400
917.715	14389
917.826	14400
917.938	14229
918.049	14237
918.161	14221
918.272	14336
918.384	14400
918.495	14233
918.606	14069
918.717	14039
918.828	14092
918.939	14214
919.05	14039
919.161	14111
919.272	13906
919.383	13883
919.494	14130
919.604	14324
919.715	14176
919.826	14031
919.936	14050
920.047	14065
920.157	14092
920.267	14176
920.378	14043
920.488	14043
920.598	14199
920.708	14309
920.818	14221
920.928	14153
921.038	14404
921.148	14339
921.258	14035
921.368	13959
921.477	13845
921.587	13898
921.697	13677
921.806	13849
921.916	13647
922.025	13601
922.134	13476
922.244	13419
922.353	13400
922.462	13320
922.571	13335
922.68	13183
922.789	13164
922.898	13088
923.007	13023
923.116	13194
923.224	13168
923.333	13099
923.442	13023
923.55	12848
923.659	12943
923.767	13015
923.876	13061
923.984	12958
924.092	12848
924.201	12932
924.309	12886
924.417	12837
924.525	12772
924.633	12837
924.741	13636
924.849	12627
924.956	12810
925.064	12563
925.172	12490
925.279	12551
925.387	12578
925.494	12608
925.602	12719
925.709	12585
925.816	12471
925.924	12433
926.031	12711
926.138	12555
926.245	12532
926.352	12429
926.459	12445
926.566	12631
926.673	12471
926.779	12262
926.886	12308
926.993	12136
927.099	12117
927.206	12106
927.312	12045
927.419	12190
927.525	12144
927.631	12228
927.737	12045
927.843	11958
927.95	11863
928.056	12034
928.162	12041
928.267	12053
928.373	12620
928.479	11961
928.585	11832
928.69	11916
928.796	11980
928.901	11813
929.007	11756
929.112	11942
929.218	11767
929.323	11733
929.428	11668
929.533	11882
929.638	11657
929.743	11566
929.848	11710
929.953	11630
930.058	11661
930.163	11493
930.267	11383
930.372	11585
930.477	11280
930.581	11592
930.685	11448
930.79	11318
930.894	11296
930.998	11246
931.103	11417
931.207	11128
931.311	11003
931.415	10919
931.519	10736
931.623	10618
