Data from test_V78500241_3365.txt Node
Date: Fri Mar 25 15:33:17 CST 2022
User: usil
Spectrometer: V785-0024
Trigger mode: 0
Integration Time (sec): 4.000000E-1
Scans to average: 1
Nonlinearity correction enabled: false
Boxcar width: 0
Storing dark spectrum: false
XAxis mode: Wavelengths
Number of Pixels in Spectrum: 1024
>>>>>Begin Spectral Data<<<<<
801.071	27009
801.214	27142
801.356	26849
801.499	26693
801.641	26670
801.783	26590
801.926	26838
802.068	26682
802.211	26613
802.353	26579
802.496	26366
802.638	26415
802.78	26381
802.923	26252
803.065	26271
803.208	26244
803.35	26221
803.492	26370
803.635	26541
803.777	26419
803.919	26339
804.061	26864
804.204	26480
804.346	26404
804.488	26286
804.63	26393
804.773	26324
804.915	26473
805.057	26537
805.199	26484
805.341	26499
805.483	26537
805.626	26613
805.768	26450
805.91	26457
806.052	26408
806.194	26408
806.336	26716
806.478	26545
806.62	26552
806.762	26613
806.904	26845
807.046	27142
807.188	26960
807.33	26990
807.472	27032
807.614	26883
807.756	26899
807.898	26807
808.04	26720
808.182	26716
808.324	26731
808.465	26853
808.607	27032
808.749	27062
808.891	27150
809.033	27313
809.174	27108
809.316	27085
809.458	27074
809.6	27157
809.741	27211
809.883	27443
810.025	27351
810.166	27447
810.308	27439
810.45	27397
810.591	27370
810.733	27043
810.875	27249
811.016	27017
811.158	27047
811.299	27157
811.441	27268
811.582	27325
811.724	27123
811.865	27001
812.007	27146
812.148	27043
812.29	27195
812.431	27298
812.573	27359
812.714	27374
812.855	27713
812.997	27690
813.138	27876
813.279	27838
813.421	27553
813.562	27504
813.703	27603
813.845	27355
813.986	27062
814.127	26876
814.268	26804
814.41	26906
814.551	26735
814.692	26914
814.833	26712
814.974	26678
815.115	26838
815.256	26587
815.397	26754
815.539	26404
815.68	26625
815.821	26480
815.962	26632
816.103	26686
816.244	26396
816.385	26355
816.526	26286
816.666	26180
816.807	26062
816.948	26020
817.089	26142
817.23	25963
817.371	25966
817.512	25970
817.653	26084
817.793	25921
817.934	25947
818.075	26119
818.216	26084
818.356	25925
818.497	25791
818.638	25715
818.778	25811
818.919	25776
819.06	25727
819.2	26058
819.341	25913
819.481	26005
819.622	26183
819.762	26389
819.903	26240
820.043	26244
820.184	26065
820.324	26027
820.465	26282
820.605	26210
820.746	26111
820.886	25879
821.026	26020
821.167	26065
821.307	26221
821.447	25974
821.588	25951
821.728	25852
821.868	25620
822.008	25472
822.149	25438
822.289	25457
822.429	25232
822.569	25217
822.709	25221
822.849	24985
822.99	24973
823.13	25034
823.27	25004
823.41	24764
823.55	24833
823.69	24901
823.83	24928
823.97	24795
824.11	24631
824.25	24597
824.389	24559
824.529	24707
824.669	24703
824.809	24741
824.949	24703
825.089	24631
825.228	24639
825.368	24502
825.508	24471
825.648	24407
825.787	24414
825.927	24650
826.067	24475
826.206	24490
826.346	24490
826.485	24604
826.625	24475
826.765	24574
826.904	24494
827.044	24327
827.183	24350
827.323	24209
827.462	24258
827.601	24235
827.741	24182
827.88	24251
828.02	24064
828.159	24224
828.298	24262
828.437	24171
828.577	24121
828.716	24262
828.855	24026
828.994	23980
829.134	23988
829.273	24034
829.412	23878
829.551	23836
829.69	23923
829.829	23901
829.968	23927
830.107	24045
830.246	23965
830.385	23794
830.524	23874
830.663	23866
830.802	23676
830.941	23596
831.08	23433
831.219	23512
831.357	23573
831.496	23794
831.635	23482
831.774	23429
831.913	23436
832.051	23383
832.19	23322
832.329	23398
832.467	23265
832.606	23170
832.744	23181
832.883	23250
833.022	23124
833.16	23315
833.299	23379
833.437	23307
833.576	23383
833.714	23299
833.852	23296
833.991	23383
834.129	23406
834.267	23463
834.406	23269
834.544	23497
834.682	23349
834.821	23292
834.959	23440
835.097	23162
835.235	23463
835.373	23303
835.511	23235
835.65	23193
835.788	23147
835.926	22999
836.064	23060
836.202	23010
836.34	23117
836.478	23197
836.615	23086
836.753	23189
836.891	23220
837.029	23250
837.167	23162
837.305	23029
837.443	23033
837.58	23010
837.718	23121
837.856	23067
837.993	22885
838.131	23029
838.269	22801
838.406	23014
838.544	23006
838.681	22748
838.819	22649
838.956	22508
839.094	22390
839.231	22580
839.369	22675
839.506	22850
839.643	22733
839.781	22504
839.918	22409
840.055	22436
840.193	22527
840.33	22470
840.467	22440
840.604	22424
840.742	22702
840.879	22371
841.016	22329
841.153	22284
841.29	22580
841.427	22333
841.564	22523
841.701	22451
841.838	22303
841.975	22318
842.112	22295
842.249	22299
842.385	22188
842.522	22527
842.659	22303
842.796	22215
842.933	22181
843.069	22158
843.206	22246
843.343	22379
843.479	22314
843.616	22249
843.752	22002
843.889	21918
844.025	22067
844.162	22036
844.298	22120
844.435	21926
844.571	21960
844.708	21956
844.844	22173
844.98	22154
845.117	22051
845.253	21930
845.389	21964
845.525	21945
845.661	21781
845.798	21652
845.934	21884
846.07	21583
846.206	21781
846.342	21937
846.478	21709
846.614	21583
846.75	21230
846.886	21473
847.022	21511
847.158	21587
847.294	21507
847.429	21469
847.565	21310
847.701	21595
847.837	21195
847.972	21104
848.108	21249
848.244	21283
848.379	21127
848.515	21028
848.65	20963
848.786	21077
848.921	21020
849.057	21055
849.192	21047
849.328	21116
849.463	21081
849.598	20941
849.734	21020
849.869	20845
850.004	20754
850.14	20902
850.275	20876
850.41	20777
850.545	20830
850.68	20765
850.815	20750
850.95	20754
851.085	21024
851.22	20842
851.355	20682
851.49	20853
851.625	20796
851.76	20777
851.895	20758
852.03	20796
852.165	20705
852.299	20887
852.434	20845
852.569	20773
852.703	20838
852.838	20804
852.973	21055
853.107	20948
853.242	20727
853.376	20724
853.511	20552
853.645	20552
853.78	20674
853.914	20636
854.048	20617
854.183	20522
854.317	20670
854.451	20762
854.585	20613
854.72	20686
854.854	20762
854.988	20526
855.122	20530
855.256	20457
855.39	20560
855.524	20765
855.658	20769
855.792	20769
855.926	20686
856.06	20640
856.194	20762
856.327	20640
856.461	20568
856.595	20590
856.729	20674
856.862	20716
856.996	20514
857.13	20701
857.263	20769
857.397	20830
857.53	20533
857.664	20705
857.797	20769
857.931	20777
858.064	20640
858.197	20861
858.331	20705
858.464	20655
858.597	20701
858.731	20488
858.864	20613
858.997	20632
859.13	20636
859.263	20667
859.396	20739
859.529	20533
859.662	20625
859.795	20651
859.928	20488
860.061	20739
860.194	20811
860.327	20689
860.46	20522
860.592	20735
860.725	20876
860.858	20750
860.99	20674
861.123	20552
861.256	20575
861.388	20648
861.521	21344
861.653	20442
861.786	20473
861.918	20556
862.05	20545
862.183	20533
862.315	20575
862.447	20625
862.58	20484
862.712	20511
862.844	20309
862.976	20423
863.108	20415
863.24	20644
863.372	20278
863.504	20347
863.636	20313
863.768	20476
863.9	20461
864.032	20282
864.164	20221
864.296	20305
864.428	20343
864.559	20457
864.691	20560
864.823	20347
864.954	20404
865.086	20271
865.217	20286
865.349	20218
865.48	20240
865.612	20301
865.743	20434
865.875	20336
866.006	20263
866.137	20259
866.269	20237
866.4	20199
866.531	20172
866.662	20195
866.793	20199
866.924	20115
867.055	20309
867.186	20199
867.317	20168
867.448	20065
867.579	20168
867.71	20043
867.841	20084
867.972	20309
868.103	20111
868.233	20221
868.364	20183
868.495	20214
868.625	20450
868.756	20488
868.886	20423
869.017	20484
869.147	20609
869.278	20446
869.408	20419
869.539	20362
869.669	20545
869.799	20552
869.929	20651
870.06	20552
870.19	20697
870.32	20743
870.45	20830
870.58	20727
870.71	21001
870.84	20925
870.97	20838
871.1	20815
871.23	21104
871.36	21017
871.489	21032
871.619	20826
871.749	21043
871.879	21093
872.008	21214
872.138	21131
872.267	21055
872.397	20948
872.526	20929
872.656	20781
872.785	20872
872.915	21173
873.044	21184
873.173	21058
873.303	21013
873.432	21203
873.561	21252
873.69	21157
873.819	21131
873.948	21051
874.077	21226
874.206	21051
874.335	21116
874.464	21211
874.593	21363
874.722	21287
874.851	21294
874.979	21214
875.108	21378
875.237	21180
875.365	21218
875.494	21306
875.623	21405
875.751	21291
875.88	21245
876.008	21405
876.136	21614
876.265	21800
876.393	21918
876.521	21884
876.65	21800
876.778	21686
876.906	21865
877.034	21637
877.162	21622
877.29	21656
877.418	21637
877.546	21682
877.674	21686
877.802	21717
877.93	21641
878.058	21580
878.185	21580
878.313	21599
878.441	21572
878.568	21523
878.696	21526
878.824	21835
878.951	21785
879.079	21739
879.206	21949
879.333	21869
879.461	21587
879.588	21717
879.715	21789
879.842	21956
879.97	21717
880.097	21450
880.224	21443
880.351	21428
880.478	21443
880.605	21408
880.732	21519
880.859	21835
880.986	21572
881.112	21523
881.239	21313
881.366	21252
881.493	21074
881.619	21096
881.746	20952
881.872	21142
881.999	20982
882.125	21005
882.252	21096
882.378	21085
882.505	21195
882.631	20891
882.757	20792
882.883	20845
883.01	20807
883.136	20800
883.262	20644
883.388	20552
883.514	20842
883.64	20743
883.766	20651
883.892	20613
884.018	20552
884.143	20689
884.269	20777
884.395	20564
884.52	20400
884.646	20522
884.772	20366
884.897	20473
885.023	20488
885.148	20533
885.274	20613
885.399	20511
885.524	20492
885.65	20465
885.775	20332
885.9	20549
886.025	20503
886.15	20415
886.275	20404
886.4	20355
886.525	20370
886.65	20282
886.775	20278
886.9	20503
887.025	20640
887.149	20336
887.274	20240
887.399	20225
887.523	20229
887.648	20218
887.773	20130
887.897	20328
888.021	20286
888.146	20065
888.27	20233
888.395	20263
888.519	20229
888.643	20145
888.767	20237
888.891	20172
889.015	20031
889.139	20016
889.263	19909
889.387	20092
889.511	20206
889.635	20119
889.759	19989
889.883	19906
890.006	19944
890.13	20122
890.254	19967
890.377	19811
890.501	19647
890.624	19753
890.748	19693
890.871	19628
890.995	19620
891.118	19472
891.241	19514
891.364	19635
891.488	19715
891.611	19616
891.734	19613
891.857	19674
891.98	19639
892.103	19628
892.226	19655
892.349	19453
892.471	19430
892.594	19495
892.717	19605
892.839	19514
892.962	19533
893.085	19548
893.207	19571
893.33	19415
893.452	19358
893.575	19582
893.697	19537
893.819	19533
893.941	19769
894.064	19597
894.186	19537
894.308	19453
894.43	19597
894.552	19666
894.674	19601
894.796	19464
894.918	19445
895.04	19563
895.161	19594
895.283	19464
895.405	19464
895.526	19491
895.648	19559
895.769	19430
895.891	19563
896.012	19537
896.134	19578
896.255	19533
896.376	19426
896.498	19510
896.619	19483
896.74	19544
896.861	19590
896.982	19871
897.103	19902
897.224	19906
897.345	19856
897.466	19708
897.587	19757
897.708	19989
897.828	19681
897.949	19753
898.07	19472
898.19	19670
898.311	19788
898.431	19601
898.552	19818
898.672	19906
898.792	19803
898.913	19769
899.033	19734
899.153	19616
899.273	19472
899.393	19464
899.513	19575
899.633	19411
899.753	19575
899.873	19388
899.993	19514
900.113	19358
900.232	19457
900.352	19407
900.472	19343
900.591	19270
900.711	19324
900.83	19187
900.95	19426
901.069	19365
901.189	19141
901.308	18993
901.427	18772
901.546	18859
901.665	18848
901.784	18833
901.904	18642
902.023	18650
902.141	18456
902.26	18483
902.379	18521
902.498	18429
902.617	18380
902.735	18498
902.854	18388
902.973	18342
903.091	18045
903.21	18079
903.328	17992
903.446	17916
903.565	17992
903.683	17920
903.801	17882
903.919	17752
904.038	17817
904.156	17619
904.274	17802
904.392	17547
904.51	17554
904.627	17676
904.745	17680
904.863	17729
904.981	17455
905.098	17455
905.216	17315
905.334	17376
905.451	17296
905.569	17239
905.686	17436
905.803	17322
905.921	17109
906.038	17242
906.155	17197
906.272	17117
906.389	17060
906.506	16976
906.623	16942
906.74	16934
906.857	16744
906.974	16835
907.091	16889
907.208	17018
907.324	16923
907.441	16782
907.557	16618
907.674	16447
907.79	16478
907.907	16683
908.023	16611
908.139	16622
908.256	16489
908.372	16390
908.488	16474
908.604	16337
908.72	16249
908.836	16352
908.952	16265
909.068	16261
909.184	16390
909.3	16284
909.415	16390
909.531	16238
909.647	16109
909.762	16078
909.878	16059
909.993	16078
910.108	16036
910.224	15956
910.339	15968
910.454	15956
910.57	15861
910.685	15793
910.8	16006
910.915	15937
911.03	15865
911.145	15644
911.259	15644
911.374	15561
911.489	15530
911.604	15492
911.718	15325
911.833	15488
911.947	15256
912.062	15272
912.176	15382
912.291	15511
912.405	15424
912.519	15485
912.633	15595
912.748	15481
912.862	15321
912.976	15199
913.09	15138
913.204	15116
913.318	15165
913.431	15298
913.545	15302
913.659	15321
913.772	15112
913.886	15161
914	15085
914.113	15066
914.226	15146
914.34	15028
914.453	14914
914.566	15028
914.68	14883
914.793	14906
914.906	14762
915.019	14625
915.132	14655
915.245	14556
915.358	14640
915.47	14625
915.583	14663
915.696	14659
915.809	14826
915.921	14800
916.034	14556
916.146	14568
916.259	14587
916.371	14617
916.483	14579
916.595	14427
916.708	14537
916.82	14404
916.932	14438
917.044	14377
917.156	14442
917.268	14259
917.38	14358
917.491	14309
917.603	14271
917.715	14358
917.826	14389
917.938	14263
918.049	14225
918.161	14355
918.272	14343
918.384	14313
918.495	14214
918.606	14134
918.717	14016
918.828	14145
918.939	14081
919.05	14039
919.161	14050
919.272	13776
919.383	13928
919.494	14115
919.604	14256
919.715	14050
919.826	13947
919.936	14054
920.047	14081
920.157	14031
920.267	14221
920.378	14054
920.488	14035
920.598	14187
920.708	14298
920.818	14126
920.928	14187
921.038	14294
921.148	14286
921.258	14031
921.368	13982
921.477	13849
921.587	13807
921.697	13658
921.806	13830
921.916	13693
922.025	13518
922.134	13434
922.244	13358
922.353	13544
922.462	13316
922.571	13190
922.68	13156
922.789	13107
922.898	13072
923.007	12996
923.116	13149
923.224	13137
923.333	13012
923.442	12901
923.55	12924
923.659	12928
923.767	13012
923.876	12844
923.984	12916
924.092	12837
924.201	12928
924.309	12776
924.417	12825
924.525	12753
924.633	12707
924.741	13689
924.849	12601
924.956	12642
925.064	12551
925.172	12525
925.279	12464
925.387	12483
925.494	12616
925.602	12627
925.709	12544
925.816	12399
925.924	12517
926.031	12612
926.138	12460
926.245	12532
926.352	12414
926.459	12525
926.566	12513
926.673	12361
926.779	12254
926.886	12235
926.993	12117
927.099	12117
927.206	12068
927.312	12098
927.419	12186
927.525	12152
927.631	12114
927.737	12079
927.843	12011
927.95	11809
928.056	11863
928.162	11961
928.267	12011
928.373	12475
928.479	12076
928.585	11851
928.69	11942
928.796	11916
928.901	11752
929.007	11661
929.112	11741
929.218	11775
929.323	11745
929.428	11657
929.533	11836
929.638	11623
929.743	11589
929.848	11608
929.953	11676
930.058	11528
930.163	11452
930.267	11387
930.372	11520
930.477	11288
930.581	11589
930.685	11421
930.79	11261
930.894	11223
930.998	11250
931.103	11356
931.207	11071
931.311	10900
931.415	10809
931.519	10694
931.623	10664
