Data from test_V78500241_1675.txt Node
Date: Fri Mar 25 15:21:31 CST 2022
User: usil
Spectrometer: V785-0024
Trigger mode: 0
Integration Time (sec): 4.000000E-1
Scans to average: 1
Nonlinearity correction enabled: false
Boxcar width: 0
Storing dark spectrum: false
XAxis mode: Wavelengths
Number of Pixels in Spectrum: 1024
>>>>>Begin Spectral Data<<<<<
801.071	28002
801.214	27937
801.356	27660
801.499	27656
801.641	27500
801.783	27431
801.926	27515
802.068	27488
802.211	27511
802.353	27549
802.496	27157
802.638	27249
802.78	27245
802.923	27184
803.065	27032
803.208	27165
803.35	27089
803.492	27310
803.635	27435
803.777	27112
803.919	27279
804.061	27675
804.204	27519
804.346	27363
804.488	27302
804.63	27515
804.773	27306
804.915	27458
805.057	27466
805.199	27344
805.341	27443
805.483	27538
805.626	27530
805.768	27427
805.91	27568
806.052	27466
806.194	27401
806.336	27838
806.478	27557
806.62	27534
806.762	27701
806.904	27701
807.046	27979
807.188	28013
807.33	27888
807.472	27991
807.614	27751
807.756	27956
807.898	27705
808.04	27694
808.182	27941
808.324	27838
808.465	28017
808.607	28063
808.749	28116
808.891	28169
809.033	28219
809.174	28246
809.316	28162
809.458	28211
809.6	28067
809.741	28295
809.883	28394
810.025	28333
810.166	28436
810.308	28462
810.45	28405
810.591	28329
810.733	28120
810.875	28185
811.016	27987
811.158	28017
811.299	28211
811.441	28226
811.582	28268
811.724	28196
811.865	28067
812.007	28211
812.148	28124
812.29	28135
812.431	28348
812.573	28447
812.714	28565
812.855	28675
812.997	28850
813.138	28908
813.279	28801
813.421	28611
813.562	28683
813.703	28462
813.845	28478
813.986	28082
814.127	27956
814.268	27914
814.41	27991
814.551	27789
814.692	27892
814.833	27888
814.974	27816
815.115	27838
815.256	27705
815.397	27778
815.539	27751
815.68	27511
815.821	27545
815.962	27755
816.103	27561
816.244	27534
816.385	27389
816.526	27374
816.666	27245
816.807	27131
816.948	27222
817.089	27241
817.23	27116
817.371	26925
817.512	27055
817.653	27131
817.793	27096
817.934	27116
818.075	27032
818.216	27100
818.356	27100
818.497	27089
818.638	26960
818.778	26777
818.919	26861
819.06	26849
819.2	26990
819.341	27287
819.481	27237
819.622	27291
819.762	27515
819.903	27306
820.043	27329
820.184	27184
820.324	27249
820.465	27412
820.605	27169
820.746	27138
820.886	27203
821.026	27268
821.167	27138
821.307	27359
821.447	27135
821.588	27047
821.728	26929
821.868	26678
822.008	26678
822.149	26625
822.289	26492
822.429	26404
822.569	26210
822.709	26206
822.849	26054
822.99	26134
823.13	26263
823.27	26005
823.41	25894
823.55	25864
823.69	26024
823.83	25769
823.97	25906
824.11	25723
824.25	25620
824.389	25738
824.529	25852
824.669	25681
824.809	25837
824.949	25803
825.089	25856
825.228	25788
825.368	25761
825.508	25540
825.648	25727
825.787	25685
825.927	25677
826.067	25563
826.206	25647
826.346	25765
826.485	25811
826.625	25620
826.765	25712
826.904	25757
827.044	25476
827.183	25495
827.323	25358
827.462	25411
827.601	25362
827.741	25331
827.88	25529
828.02	25213
828.159	25365
828.298	25365
828.437	25529
828.577	25358
828.716	25381
828.855	25285
828.994	25122
829.134	25148
829.273	25141
829.412	25110
829.551	24962
829.69	25084
829.829	25148
829.968	25164
830.107	25148
830.246	25110
830.385	25137
830.524	25148
830.663	24947
830.802	24787
830.941	24665
831.08	24627
831.219	24810
831.357	24772
831.496	24825
831.635	24715
831.774	24635
831.913	24570
832.051	24448
832.19	24426
832.329	24563
832.467	24285
832.606	24281
832.744	24285
832.883	24281
833.022	24163
833.16	24399
833.299	24422
833.437	24483
833.576	24555
833.714	24445
833.852	24384
833.991	24418
834.129	24513
834.267	24509
834.406	24566
834.544	24448
834.682	24418
834.821	24437
834.959	24673
835.097	24270
835.235	24445
835.373	24330
835.511	24418
835.65	24285
835.788	24258
835.926	24224
836.064	24110
836.202	24129
836.34	24243
836.478	24289
836.615	24079
836.753	24285
836.891	24262
837.029	24311
837.167	24205
837.305	24102
837.443	24106
837.58	24079
837.718	24148
837.856	24060
837.993	24079
838.131	24167
838.269	23885
838.406	24030
838.544	23847
838.681	23756
838.819	23718
838.956	23581
839.094	23524
839.231	23608
839.369	23726
839.506	23908
839.643	23916
839.781	23535
839.918	23573
840.055	23661
840.193	23539
840.33	23539
840.467	23296
840.604	23486
840.742	23745
840.879	23223
841.016	23516
841.153	23299
841.29	23558
841.427	23646
841.564	23573
841.701	23528
841.838	23474
841.975	23337
842.112	23406
842.249	23147
842.385	23193
842.522	23395
842.659	23284
842.796	23235
842.933	23170
843.069	23098
843.206	23124
843.343	23288
843.479	23254
843.616	23170
843.752	23025
843.889	23052
844.025	22953
844.162	22866
844.298	23071
844.435	23041
844.571	23098
844.708	23044
844.844	23056
844.98	23166
845.117	23102
845.253	23029
845.389	22919
845.525	22938
845.661	22847
845.798	22664
845.934	22748
846.07	22607
846.206	22824
846.342	22812
846.478	22740
846.614	22580
846.75	22352
846.886	22436
847.022	22481
847.158	22508
847.294	22470
847.429	22542
847.565	22459
847.701	22592
847.837	22234
847.972	22257
848.108	22329
848.244	22234
848.379	22131
848.515	22188
848.65	21998
848.786	22105
848.921	22139
849.057	22200
849.192	22055
849.328	22025
849.463	21937
849.598	21941
849.734	21907
849.869	21880
850.004	21831
850.14	21831
850.275	21816
850.41	21739
850.545	21819
850.68	21743
850.815	21842
850.95	21789
851.085	21926
851.22	21930
851.355	21793
851.49	21785
851.625	21667
851.76	21667
851.895	21705
852.03	21709
852.165	21778
852.299	21751
852.434	21960
852.569	21854
852.703	21823
852.838	21793
852.973	21922
853.107	22013
853.242	21789
853.376	21656
853.511	21454
853.645	21564
853.78	21759
853.914	21656
854.048	21568
854.183	21656
854.317	21717
854.451	21880
854.585	21724
854.72	21720
854.854	21743
854.988	21622
855.122	21724
855.256	21614
855.39	21644
855.524	21625
855.658	21656
855.792	21587
855.926	21507
856.06	21633
856.194	21762
856.327	21576
856.461	21606
856.595	21572
856.729	21614
856.862	21717
856.996	21728
857.13	21663
857.263	21671
857.397	21610
857.53	21675
857.664	21629
857.797	21732
857.931	21641
858.064	21705
858.197	21679
858.331	21667
858.464	21519
858.597	21561
858.731	21561
858.864	21606
858.997	21606
859.13	21591
859.263	21572
859.396	21701
859.529	21564
859.662	21526
859.795	21637
859.928	21671
860.061	21671
860.194	21800
860.327	21644
860.46	21595
860.592	21789
860.725	21728
860.858	21804
860.99	21717
861.123	21671
861.256	21595
861.388	21587
861.521	22238
861.653	21454
861.786	21359
861.918	21424
862.05	21523
862.183	21549
862.315	21504
862.447	21698
862.58	21542
862.712	21310
862.844	21367
862.976	21412
863.108	21488
863.24	21861
863.372	21173
863.504	21412
863.636	21283
863.768	21283
863.9	21264
864.032	21226
864.164	21180
864.296	21283
864.428	21370
864.559	21329
864.691	21397
864.823	21439
864.954	21359
865.086	21332
865.217	21230
865.349	21112
865.48	21146
865.612	21119
865.743	21382
865.875	21222
866.006	21146
866.137	21222
866.269	21252
866.4	21203
866.531	21089
866.662	21199
866.793	21226
866.924	21108
867.055	21214
867.186	21199
867.317	21150
867.448	21131
867.579	21157
867.71	20929
867.841	21142
867.972	21116
868.103	21176
868.233	21127
868.364	21157
868.495	21135
868.625	21355
868.756	21618
868.886	21386
869.017	21332
869.147	21595
869.278	21420
869.408	21359
869.539	21557
869.669	21500
869.799	21386
869.929	21488
870.06	21511
870.19	21698
870.32	21660
870.45	21755
870.58	21766
870.71	21873
870.84	21907
870.97	21762
871.1	21682
871.23	22051
871.36	21960
871.489	21835
871.619	22006
871.749	21960
871.879	22048
872.008	21953
872.138	21987
872.267	22101
872.397	21854
872.526	21895
872.656	21797
872.785	21789
872.915	22036
873.044	22040
873.173	22078
873.303	22147
873.432	22051
873.561	22116
873.69	22090
873.819	22051
873.948	22017
874.077	22128
874.206	21918
874.335	22013
874.464	22128
874.593	22249
874.722	22124
874.851	22223
874.979	22276
875.108	22318
875.237	22299
875.365	22059
875.494	22158
875.623	22329
875.751	22211
875.88	22276
876.008	22421
876.136	22363
876.265	22615
876.393	22850
876.521	22573
876.65	22584
876.778	22527
876.906	22653
877.034	22428
877.162	22535
877.29	22550
877.418	22611
877.546	22630
877.674	22615
877.802	22538
877.93	22603
878.058	22527
878.185	22440
878.313	22508
878.441	22584
878.568	22436
878.696	22489
878.824	22523
878.951	22698
879.079	22759
879.206	22854
879.333	22679
879.461	22508
879.588	22679
879.715	22679
879.842	22790
879.97	22672
880.097	22493
880.224	22360
880.351	22557
880.478	22375
880.605	22280
880.732	22497
880.859	22584
880.986	22325
881.112	22367
881.239	22154
881.366	22177
881.493	22135
881.619	22010
881.746	22078
881.872	21854
881.999	21964
882.125	21785
882.252	21899
882.378	21918
882.505	22143
882.631	21781
882.757	21701
882.883	21766
883.01	21667
883.136	21561
883.262	21500
883.388	21420
883.514	21690
883.64	21739
883.766	21606
883.892	21530
884.018	21443
884.143	21705
884.269	21633
884.395	21405
884.52	21317
884.646	21340
884.772	21298
884.897	21275
885.023	21249
885.148	21424
885.274	21488
885.399	21416
885.524	21298
885.65	21317
885.775	21378
885.9	21268
886.025	21412
886.15	21370
886.275	21332
886.4	21154
886.525	21359
886.65	21180
886.775	21359
886.9	21416
887.025	21545
887.149	21241
887.274	21077
887.399	21005
887.523	20982
887.648	20963
887.773	21039
887.897	21203
888.021	21096
888.146	20948
888.27	21001
888.395	21138
888.519	21100
888.643	21131
888.767	21157
888.891	20925
889.015	20842
889.139	20887
889.263	20868
889.387	21093
889.511	21013
889.635	21005
889.759	20792
889.883	20853
890.006	20868
890.13	20990
890.254	20838
890.377	20781
890.501	20609
890.624	20613
890.748	20530
890.871	20701
890.995	20351
891.118	20374
891.241	20385
891.364	20393
891.488	20484
891.611	20309
891.734	20412
891.857	20469
891.98	20393
892.103	20568
892.226	20461
892.349	20320
892.471	20164
892.594	20476
892.717	20328
892.839	20294
892.962	20355
893.085	20358
893.207	20176
893.33	20191
893.452	20317
893.575	20431
893.697	20324
893.819	20522
893.941	20556
894.064	20446
894.186	20309
894.308	20347
894.43	20328
894.552	20461
894.674	20332
894.796	20218
894.918	20225
895.04	20313
895.161	20317
895.283	20438
895.405	20248
895.526	20290
895.648	20389
895.769	20408
895.891	20259
896.012	20389
896.134	20290
896.255	20275
896.376	20206
896.498	20313
896.619	20476
896.74	20301
896.861	20320
896.982	20625
897.103	20621
897.224	20571
897.345	20530
897.466	20400
897.587	20617
897.708	20617
897.828	20503
897.949	20396
898.07	20343
898.19	20457
898.311	20598
898.431	20518
898.552	20415
898.672	20575
898.792	20655
898.913	20594
899.033	20427
899.153	20393
899.273	20218
899.393	20362
899.513	20313
899.633	20206
899.753	20233
899.873	20389
899.993	20176
900.113	20305
900.232	20111
900.352	20153
900.472	20050
900.591	20103
900.711	20084
900.83	20161
900.95	20119
901.069	20062
901.189	19947
901.308	19685
901.427	19658
901.546	19693
901.665	19750
901.784	19575
901.904	19537
902.023	19483
902.141	19289
902.26	19076
902.379	19221
902.498	19194
902.617	19023
902.735	19228
902.854	19080
902.973	19004
903.091	18859
903.21	18738
903.328	18882
903.446	18658
903.565	18631
903.683	18582
903.801	18471
903.919	18490
904.038	18547
904.156	18327
904.274	18441
904.392	18384
904.51	18334
904.627	18369
904.745	18464
904.863	18281
904.981	18064
905.098	18030
905.216	18102
905.334	18026
905.451	18171
905.569	17942
905.686	17999
905.803	18041
905.921	17828
906.038	17866
906.155	17882
906.272	17794
906.389	17676
906.506	17543
906.623	17577
906.74	17642
906.857	17452
906.974	17444
907.091	17638
907.208	17729
907.324	17566
907.441	17436
907.557	17337
907.674	17261
907.79	17246
907.907	17254
908.023	17387
908.139	17376
908.256	17379
908.372	17166
908.488	17204
908.604	17056
908.72	16972
908.836	17041
908.952	16900
909.068	16999
909.184	17067
909.3	17037
909.415	17048
909.531	16972
909.647	16771
909.762	16687
909.878	16698
909.993	16664
910.108	16790
910.224	16710
910.339	16694
910.454	16546
910.57	16523
910.685	16333
910.8	16725
910.915	16736
911.03	16519
911.145	16299
911.259	16287
911.374	16375
911.489	16280
911.604	16078
911.718	16013
911.833	16086
911.947	16051
912.062	15808
912.176	16051
912.291	16055
912.405	16067
912.519	16181
912.633	16246
912.748	16101
912.862	15941
912.976	15918
913.09	15785
913.204	15793
913.318	15797
913.431	15998
913.545	15941
913.659	15960
913.772	15846
913.886	15713
914	15705
914.113	15667
914.226	15781
914.34	15759
914.453	15545
914.566	15648
914.68	15610
914.793	15534
914.906	15272
915.019	15260
915.132	15233
915.245	15306
915.358	15374
915.47	15211
915.583	15260
915.696	15245
915.809	15310
915.921	15485
916.034	15256
916.146	15203
916.259	15097
916.371	15256
916.483	15146
916.595	15089
916.708	15077
916.82	15097
916.932	15047
917.044	14982
917.156	15055
917.268	14918
917.38	14937
917.491	14925
917.603	14906
917.715	14967
917.826	15013
917.938	14853
918.049	14743
918.161	15009
918.272	14956
918.384	14880
918.495	14876
918.606	14667
918.717	14613
918.828	14693
918.939	14598
919.05	14617
919.161	14640
919.272	14400
919.383	14518
919.494	14754
919.604	14777
919.715	14617
919.826	14488
919.936	14602
920.047	14693
920.157	14640
920.267	14823
920.378	14655
920.488	14632
920.598	14708
920.708	14902
920.818	14678
920.928	14826
921.038	14929
921.148	14781
921.258	14617
921.368	14488
921.477	14332
921.587	14347
921.697	14237
921.806	14317
921.916	14267
922.025	14092
922.134	14020
922.244	13875
922.353	14126
922.462	13799
922.571	13757
922.68	13719
922.789	13746
922.898	13647
923.007	13616
923.116	13636
923.224	13632
923.333	13502
923.442	13540
923.55	13468
923.659	13453
923.767	13510
923.876	13457
923.984	13518
924.092	13400
924.201	13327
924.309	13445
924.417	13362
924.525	13293
924.633	13301
924.741	14062
924.849	13118
924.956	13358
925.064	13152
925.172	12966
925.279	13076
925.387	13095
925.494	12989
925.602	13156
925.709	13065
925.816	12989
925.924	12939
926.031	12962
926.138	12954
926.245	13088
926.352	12920
926.459	13050
926.566	13019
926.673	12875
926.779	12829
926.886	12821
926.993	12665
927.099	12623
927.206	12544
927.312	12585
927.419	12658
927.525	12597
927.631	12650
927.737	12429
927.843	12361
927.95	12399
928.056	12391
928.162	12437
928.267	12525
928.373	12966
928.479	12582
928.585	12266
928.69	12323
928.796	12426
928.901	12304
929.007	12148
929.112	12292
929.218	12285
929.323	12194
929.428	12167
929.533	12243
929.638	12110
929.743	12114
929.848	12152
929.953	12041
930.058	11996
930.163	11805
930.267	11923
930.372	11977
930.477	11779
930.581	12019
930.685	11893
930.79	11680
930.894	11760
930.998	11722
931.103	11878
931.207	11463
931.311	11425
931.415	11299
931.519	11109
931.623	11071
