Data from test_V78500241_1738.txt Node
Date: Fri Mar 25 15:21:57 CST 2022
User: usil
Spectrometer: V785-0024
Trigger mode: 0
Integration Time (sec): 4.000000E-1
Scans to average: 1
Nonlinearity correction enabled: false
Boxcar width: 0
Storing dark spectrum: false
XAxis mode: Wavelengths
Number of Pixels in Spectrum: 1024
>>>>>Begin Spectral Data<<<<<
801.071	27781
801.214	27857
801.356	27625
801.499	27545
801.641	27519
801.783	27348
801.926	27435
802.068	27397
802.211	27321
802.353	27287
802.496	27093
802.638	27028
802.78	27116
802.923	27013
803.065	27005
803.208	27017
803.35	27001
803.492	27260
803.635	27199
803.777	27123
803.919	27096
804.061	27519
804.204	27203
804.346	27207
804.488	27013
804.63	27313
804.773	27218
804.915	27249
805.057	27450
805.199	27131
805.341	27405
805.483	27416
805.626	27412
805.768	27355
805.91	27256
806.052	27313
806.194	27408
806.336	27412
806.478	27462
806.62	27340
806.762	27511
806.904	27526
807.046	27812
807.188	27732
807.33	27785
807.472	27770
807.614	27812
807.756	27804
807.898	27637
808.04	27466
808.182	27629
808.324	27728
808.465	27606
808.607	27953
808.749	28063
808.891	28013
809.033	28040
809.174	28078
809.316	28002
809.458	28082
809.6	28124
809.741	28067
809.883	28154
810.025	28310
810.166	28219
810.308	28352
810.45	28333
810.591	28017
810.733	28067
810.875	28067
811.016	27960
811.158	27888
811.299	28124
811.441	27983
811.582	28158
811.724	28109
811.865	28013
812.007	27956
812.148	28025
812.29	28166
812.431	28188
812.573	28344
812.714	28478
812.855	28478
812.997	28512
813.138	28721
813.279	28733
813.421	28519
813.562	28500
813.703	28409
813.845	28120
813.986	27953
814.127	27717
814.268	27720
814.41	27816
814.551	27656
814.692	27823
814.833	27766
814.974	27724
815.115	27774
815.256	27637
815.397	27492
815.539	27538
815.68	27603
815.821	27389
815.962	27473
816.103	27507
816.244	27355
816.385	27256
816.526	27329
816.666	27173
816.807	26982
816.948	27039
817.089	27169
817.23	27020
817.371	26845
817.512	27009
817.653	26902
817.793	26769
817.934	27036
818.075	26883
818.216	27001
818.356	27028
818.497	26842
818.638	26716
818.778	26716
818.919	26727
819.06	26853
819.2	26868
819.341	27047
819.481	27032
819.622	27161
819.762	27378
819.903	27237
820.043	27203
820.184	27131
820.324	27077
820.465	27214
820.605	27192
820.746	27047
820.886	26708
821.026	27032
821.167	27211
821.307	27127
821.447	26967
821.588	26940
821.728	26735
821.868	26625
822.008	26492
822.149	26446
822.289	26434
822.429	26100
822.569	26199
822.709	26126
822.849	26073
822.99	25849
823.13	25947
823.27	25856
823.41	25833
823.55	25670
823.69	25788
823.83	25830
823.97	25689
824.11	25552
824.25	25556
824.389	25807
824.529	25750
824.669	25613
824.809	25715
824.949	25731
825.089	25746
825.228	25624
825.368	25426
825.508	25483
825.648	25457
825.787	25525
825.927	25495
826.067	25521
826.206	25430
826.346	25567
826.485	25479
826.625	25464
826.765	25548
826.904	25445
827.044	25316
827.183	25236
827.323	25244
827.462	25312
827.601	25297
827.741	25187
827.88	25282
828.02	25160
828.159	25331
828.298	25217
828.437	25282
828.577	24966
828.716	25381
828.855	25061
828.994	24894
829.134	24924
829.273	24958
829.412	24852
829.551	24840
829.69	25050
829.829	24958
829.968	24947
830.107	24992
830.246	24932
830.385	24787
830.524	24837
830.663	24768
830.802	24597
830.941	24521
831.08	24448
831.219	24677
831.357	24517
831.496	24802
831.635	24509
831.774	24509
831.913	24350
832.051	24247
832.19	24186
832.329	24342
832.467	24224
832.606	24125
832.744	23961
832.883	24235
833.022	24152
833.16	24194
833.299	24330
833.437	24190
833.576	24323
833.714	24270
833.852	24334
833.991	24319
834.129	24429
834.267	24350
834.406	24262
834.544	24178
834.682	24228
834.821	24273
834.959	24376
835.097	24117
835.235	24201
835.373	24235
835.511	24235
835.65	24140
835.788	24205
835.926	23969
836.064	23851
836.202	23969
836.34	24049
836.478	24102
836.615	23992
836.753	24076
836.891	24186
837.029	24129
837.167	24083
837.305	24049
837.443	23920
837.58	23916
837.718	24015
837.856	24018
837.993	23901
838.131	23950
838.269	23771
838.406	23897
838.544	23851
838.681	23570
838.819	23551
838.956	23440
839.094	23383
839.231	23558
839.369	23592
839.506	23847
839.643	23680
839.781	23478
839.918	23372
840.055	23402
840.193	23448
840.33	23383
840.467	23231
840.604	23440
840.742	23623
840.879	23227
841.016	23311
841.153	22999
841.29	23410
841.427	23337
841.564	23349
841.701	23318
841.838	23261
841.975	23307
842.112	23299
842.249	23258
842.385	22987
842.522	23330
842.659	23079
842.796	23060
842.933	23113
843.069	22972
843.206	23079
843.343	23159
843.479	23041
843.616	23083
843.752	22942
843.889	22869
844.025	23010
844.162	22847
844.298	23064
844.435	22873
844.571	22831
844.708	22889
844.844	23010
844.98	22892
845.117	22904
845.253	23022
845.389	22713
845.525	22801
845.661	22790
845.798	22516
845.934	22618
846.07	22535
846.206	22512
846.342	22694
846.478	22577
846.614	22497
846.75	22226
846.886	22455
847.022	22348
847.158	22344
847.294	22405
847.429	22329
847.565	22124
847.701	22474
847.837	22074
847.972	22013
848.108	22177
848.244	22150
848.379	21926
848.515	21899
848.65	21857
848.786	21850
848.921	21907
849.057	21941
849.192	22021
849.328	21953
849.463	21930
849.598	21930
849.734	21884
849.869	21827
850.004	21603
850.14	21709
850.275	21656
850.41	21583
850.545	21652
850.68	21660
850.815	21755
850.95	21762
851.085	21812
851.22	21724
851.355	21743
851.49	21679
851.625	21720
851.76	21652
851.895	21614
852.03	21492
852.165	21747
852.299	21705
852.434	21648
852.569	21705
852.703	21610
852.838	21701
852.973	21854
853.107	21819
853.242	21545
853.376	21568
853.511	21344
853.645	21374
853.78	21671
853.914	21587
854.048	21511
854.183	21428
854.317	21595
854.451	21743
854.585	21420
854.72	21469
854.854	21488
854.988	21408
855.122	21568
855.256	21412
855.39	21469
855.524	21492
855.658	21603
855.792	21496
855.926	21450
856.06	21507
856.194	21644
856.327	21416
856.461	21667
856.595	21496
856.729	21420
856.862	21542
856.996	21534
857.13	21545
857.263	21614
857.397	21545
857.53	21435
857.664	21492
857.797	21538
857.931	21568
858.064	21466
858.197	21500
858.331	21462
858.464	21424
858.597	21454
858.731	21492
858.864	21485
858.997	21435
859.13	21408
859.263	21648
859.396	21538
859.529	21420
859.662	21583
859.795	21504
859.928	21462
860.061	21568
860.194	21656
860.327	21504
860.46	21652
860.592	21603
860.725	21736
860.858	21671
860.99	21481
861.123	21408
861.256	21405
861.388	21530
861.521	22116
861.653	21443
861.786	21321
861.918	21313
862.05	21279
862.183	21454
862.315	21610
862.447	21454
862.58	21367
862.712	21233
862.844	21207
862.976	21272
863.108	21203
863.24	21580
863.372	21176
863.504	21085
863.636	21218
863.768	21211
863.9	21245
864.032	21131
864.164	21230
864.296	21268
864.428	21405
864.559	21245
864.691	21317
864.823	21169
864.954	21207
865.086	21127
865.217	21218
865.349	20975
865.48	21123
865.612	21093
865.743	21252
865.875	21093
866.006	20998
866.137	20971
866.269	21154
866.4	21039
866.531	21039
866.662	20986
866.793	20925
866.924	20921
867.055	20994
867.186	21005
867.317	21100
867.448	20872
867.579	21017
867.71	20861
867.841	20906
867.972	21058
868.103	20967
868.233	21066
868.364	21123
868.495	21127
868.625	21340
868.756	21302
868.886	21142
869.017	21233
869.147	21378
869.278	21389
869.408	21336
869.539	21237
869.669	21313
869.799	21340
869.929	21428
870.06	21351
870.19	21538
870.32	21656
870.45	21583
870.58	21671
870.71	21698
870.84	21671
870.97	21679
871.1	21732
871.23	21838
871.36	21770
871.489	21732
871.619	21793
871.749	21759
871.879	21968
872.008	21918
872.138	21827
872.267	21838
872.397	21660
872.526	21648
872.656	21682
872.785	21614
872.915	21876
873.044	21926
873.173	21911
873.303	21949
873.432	21956
873.561	22036
873.69	21865
873.819	21911
873.948	21956
874.077	21979
874.206	21819
874.335	21781
874.464	22048
874.593	22055
874.722	22086
874.851	22158
874.979	22272
875.108	22185
875.237	22017
875.365	22105
875.494	22013
875.623	22185
875.751	22078
875.88	22169
876.008	22280
876.136	22280
876.265	22626
876.393	22611
876.521	22603
876.65	22675
876.778	22523
876.906	22462
877.034	22405
877.162	22390
877.29	22424
877.418	22455
877.546	22386
877.674	22504
877.802	22497
877.93	22382
878.058	22402
878.185	22322
878.313	22413
878.441	22436
878.568	22329
878.696	22322
878.824	22478
878.951	22725
879.079	22820
879.206	22733
879.333	22660
879.461	22527
879.588	22580
879.715	22649
879.842	22763
879.97	22561
880.097	22360
880.224	22268
880.351	22386
880.478	22257
880.605	22242
880.732	22265
880.859	22432
880.986	22348
881.112	22443
881.239	22143
881.366	22086
881.493	21869
881.619	21907
881.746	21781
881.872	21915
881.999	21728
882.125	21823
882.252	21816
882.378	21892
882.505	21987
882.631	21694
882.757	21564
882.883	21561
883.01	21534
883.136	21534
883.262	21389
883.388	21348
883.514	21637
883.64	21587
883.766	21359
883.892	21359
884.018	21382
884.143	21591
884.269	21629
884.395	21389
884.52	21142
884.646	21283
884.772	21100
884.897	21062
885.023	21245
885.148	21317
885.274	21298
885.399	21363
885.524	21150
885.65	21150
885.775	21203
885.9	21233
886.025	21370
886.15	21195
886.275	21157
886.4	21154
886.525	21195
886.65	21077
886.775	21138
886.9	21260
887.025	21351
887.149	21089
887.274	21123
887.399	20921
887.523	20891
887.648	20994
887.773	20731
887.897	21096
888.021	20941
888.146	20845
888.27	20948
888.395	20971
888.519	21055
888.643	21001
888.767	20948
888.891	20758
889.015	20781
889.139	20868
889.263	20781
889.387	20845
889.511	20864
889.635	20895
889.759	20720
889.883	20674
890.006	20872
890.13	20762
890.254	20678
890.377	20621
890.501	20469
890.624	20427
890.748	20541
890.871	20427
890.995	20377
891.118	20183
891.241	20328
891.364	20438
891.488	20400
891.611	20195
891.734	20263
891.857	20412
891.98	20271
892.103	20431
892.226	20332
892.349	20282
892.471	20259
892.594	20275
892.717	20248
892.839	20119
892.962	20191
893.085	20233
893.207	20225
893.33	20138
893.452	20187
893.575	20134
893.697	20077
893.819	20446
893.941	20579
894.064	20271
894.186	20202
894.308	20180
894.43	20377
894.552	20282
894.674	20225
894.796	20244
894.918	20168
895.04	20248
895.161	20336
895.283	20298
895.405	20058
895.526	20199
895.648	20252
895.769	20195
895.891	20172
896.012	20309
896.134	20206
896.255	20218
896.376	20229
896.498	20195
896.619	20176
896.74	20328
896.861	20199
896.982	20537
897.103	20564
897.224	20450
897.345	20530
897.466	20320
897.587	20324
897.708	20552
897.828	20431
897.949	20332
898.07	20305
898.19	20343
898.311	20381
898.431	20282
898.552	20423
898.672	20537
898.792	20541
898.913	20526
899.033	20313
899.153	20267
899.273	20035
899.393	20142
899.513	20282
899.633	20191
899.753	20225
899.873	20092
899.993	20218
900.113	19997
900.232	20134
900.352	20142
900.472	20054
900.591	19959
900.711	19963
900.83	19837
900.95	20126
901.069	20046
901.189	19849
901.308	19613
901.427	19521
901.546	19480
901.665	19464
901.784	19476
901.904	19301
902.023	19278
902.141	19133
902.26	19099
902.379	19072
902.498	19027
902.617	18951
902.735	19012
902.854	19065
902.973	18878
903.091	18738
903.21	18688
903.328	18764
903.446	18479
903.565	18544
903.683	18506
903.801	18388
903.919	18509
904.038	18441
904.156	18346
904.274	18410
904.392	18197
904.51	18178
904.627	18292
904.745	18327
904.863	18369
904.981	18030
905.098	17901
905.216	17889
905.334	17923
905.451	17889
905.569	17889
905.686	18041
905.803	18041
905.921	17790
906.038	17821
906.155	17748
906.272	17703
906.389	17570
906.506	17535
906.623	17539
906.74	17414
906.857	17391
906.974	17368
907.091	17448
907.208	17532
907.324	17592
907.441	17395
907.557	17284
907.674	17292
907.79	17185
907.907	17128
908.023	17136
908.139	17155
908.256	17189
908.372	17098
908.488	17117
908.604	16972
908.72	16881
908.836	16965
908.952	16809
909.068	16980
909.184	16991
909.3	16934
909.415	16911
909.531	16908
909.647	16641
909.762	16577
909.878	16668
909.993	16596
910.108	16535
910.224	16573
910.339	16634
910.454	16478
910.57	16436
910.685	16287
910.8	16565
910.915	16599
911.03	16466
911.145	16314
911.259	16204
911.374	16272
911.489	16135
911.604	16101
911.718	15987
911.833	15876
911.947	15846
912.062	15724
912.176	15915
912.291	15880
912.405	15892
912.519	16010
912.633	16124
912.748	15987
912.862	16002
912.976	15690
913.09	15610
913.204	15789
913.318	15861
913.431	15869
913.545	15857
913.659	15888
913.772	15816
913.886	15576
914	15633
914.113	15614
914.226	15736
914.34	15637
914.453	15420
914.566	15652
914.68	15431
914.793	15393
914.906	15272
915.019	15188
915.132	15218
915.245	15230
915.358	15237
915.47	15237
915.583	15131
915.696	15287
915.809	15249
915.921	15310
916.034	15146
916.146	15081
916.259	15108
916.371	15093
916.483	15154
916.595	15070
916.708	15017
916.82	15009
916.932	14925
917.044	15032
917.156	14914
917.268	14857
917.38	14906
917.491	14823
917.603	14792
917.715	14948
917.826	14960
917.938	14807
918.049	14724
918.161	14765
918.272	14910
918.384	14918
918.495	14811
918.606	14617
918.717	14625
918.828	14648
918.939	14655
919.05	14514
919.161	14545
919.272	14446
919.383	14469
919.494	14594
919.604	14788
919.715	14579
919.826	14545
919.936	14514
920.047	14617
920.157	14606
920.267	14815
920.378	14568
920.488	14511
920.598	14773
920.708	14861
920.818	14727
920.928	14625
921.038	14864
921.148	14823
921.258	14560
921.368	14434
921.477	14412
921.587	14313
921.697	14202
921.806	14358
921.916	14237
922.025	13955
922.134	13967
922.244	13875
922.353	14100
922.462	13890
922.571	13780
922.68	13685
922.789	13639
922.898	13666
923.007	13575
923.116	13655
923.224	13628
923.333	13537
923.442	13464
923.55	13430
923.659	13464
923.767	13548
923.876	13388
923.984	13491
924.092	13304
924.201	13400
924.309	13316
924.417	13324
924.525	13263
924.633	13324
924.741	14035
924.849	13145
924.956	13183
925.064	13137
925.172	12966
925.279	12973
925.387	13103
925.494	13076
925.602	13107
925.709	13046
925.816	12932
925.924	12932
926.031	13091
926.138	12954
926.245	12996
926.352	12844
926.459	13053
926.566	13053
926.673	12802
926.779	12719
926.886	12810
926.993	12642
927.099	12555
927.206	12513
927.312	12540
927.419	12722
927.525	12506
927.631	12627
927.737	12521
927.843	12441
927.95	12319
928.056	12429
928.162	12448
928.267	12365
928.373	13061
928.479	12483
928.585	12239
928.69	12300
928.796	12429
928.901	12247
929.007	12102
929.112	12251
929.218	12213
929.323	12129
929.428	12155
929.533	12243
929.638	12072
929.743	12114
929.848	12102
929.953	12026
930.058	11969
930.163	11741
930.267	11916
930.372	11863
930.477	11775
930.581	11958
930.685	11882
930.79	11703
930.894	11726
930.998	11729
931.103	11748
931.207	11539
931.311	11337
931.415	11330
931.519	11109
931.623	11056
