Data from test_V78500241_527.txt Node
Date: Fri Mar 25 15:13:31 CST 2022
User: usil
Spectrometer: V785-0024
Trigger mode: 0
Integration Time (sec): 4.000000E-1
Scans to average: 1
Nonlinearity correction enabled: false
Boxcar width: 0
Storing dark spectrum: false
XAxis mode: Wavelengths
Number of Pixels in Spectrum: 1024
>>>>>Begin Spectral Data<<<<<
801.071	27367
801.214	27325
801.356	27032
801.499	26952
801.641	26952
801.783	26937
801.926	27001
802.068	26902
802.211	26765
802.353	26674
802.496	26564
802.638	26526
802.78	26712
802.923	26613
803.065	26453
803.208	26564
803.35	26503
803.492	26724
803.635	26621
803.777	26556
803.919	26857
804.061	26914
804.204	26682
804.346	26522
804.488	26781
804.63	26609
804.773	26549
804.915	26705
805.057	26918
805.199	26674
805.341	26724
805.483	26819
805.626	26712
805.768	26682
805.91	26800
806.052	26811
806.194	26708
806.336	26902
806.478	26868
806.62	26807
806.762	26899
806.904	27013
807.046	27469
807.188	27325
807.33	27302
807.472	27355
807.614	27066
807.756	27093
807.898	27074
808.04	26948
808.182	26925
808.324	27188
808.465	26956
808.607	27230
808.749	27336
808.891	27580
809.033	27542
809.174	27553
809.316	27363
809.458	27412
809.6	27477
809.741	27504
809.883	27572
810.025	27812
810.166	27698
810.308	27739
810.45	27644
810.591	27648
810.733	27504
810.875	27386
811.016	27291
811.158	27287
811.299	27526
811.441	27439
811.582	27648
811.724	27469
811.865	27431
812.007	27374
812.148	27268
812.29	27363
812.431	27656
812.573	27587
812.714	27797
812.855	27972
812.997	27994
813.138	28375
813.279	28048
813.421	28025
813.562	27892
813.703	27873
813.845	27641
813.986	27321
814.127	27195
814.268	27165
814.41	27096
814.551	26990
814.692	27184
814.833	27081
814.974	27100
815.115	27184
815.256	27055
815.397	26807
815.539	27032
815.68	26940
815.821	26746
815.962	26826
816.103	26899
816.244	26735
816.385	26678
816.526	26533
816.666	26617
816.807	26324
816.948	26301
817.089	26503
817.23	26511
817.371	26431
817.512	26469
817.653	26210
817.793	26271
817.934	26355
818.075	26408
818.216	26309
818.356	26362
818.497	26301
818.638	26149
818.778	26225
818.919	26092
819.06	26130
819.2	26187
819.341	26275
819.481	26320
819.622	26404
819.762	26777
819.903	26667
820.043	26473
820.184	26549
820.324	26473
820.465	26560
820.605	26530
820.746	26575
820.886	26313
821.026	26465
821.167	26278
821.307	26545
821.447	26541
821.588	26313
821.728	26199
821.868	26073
822.008	25894
822.149	25689
822.289	25814
822.429	25529
822.569	25457
822.709	25544
822.849	25415
822.99	25384
823.13	25282
823.27	25308
823.41	25160
823.55	25004
823.69	25084
823.83	25148
823.97	25069
824.11	25072
824.25	24932
824.389	24913
824.529	25027
824.669	25069
824.809	25046
824.949	25095
825.089	25012
825.228	25027
825.368	24798
825.508	24776
825.648	24852
825.787	24886
825.927	24890
826.067	24810
826.206	24734
826.346	24947
826.485	24932
826.625	24886
826.765	24996
826.904	24992
827.044	24620
827.183	24601
827.323	24410
827.462	24654
827.601	24544
827.741	24528
827.88	24749
828.02	24380
828.159	24502
828.298	24547
828.437	24604
828.577	24570
828.716	24669
828.855	24456
828.994	24152
829.134	24167
829.273	24437
829.412	24167
829.551	24216
829.69	24289
829.829	24281
829.968	24426
830.107	24251
830.246	24353
830.385	24213
830.524	24076
830.663	24098
830.802	23984
830.941	23977
831.08	23912
831.219	23958
831.357	23935
831.496	24205
831.635	23950
831.774	23836
831.913	23840
832.051	23627
832.19	23668
832.329	23904
832.467	23676
832.606	23619
832.744	23558
832.883	23570
833.022	23528
833.16	23646
833.299	23604
833.437	23581
833.576	23554
833.714	23695
833.852	23760
833.991	23718
834.129	23741
834.267	23722
834.406	23707
834.544	23630
834.682	23665
834.821	23596
834.959	23783
835.097	23516
835.235	23680
835.373	23543
835.511	23615
835.65	23349
835.788	23471
835.926	23425
836.064	23360
836.202	23341
836.34	23619
836.478	23505
836.615	23505
836.753	23471
836.891	23672
837.029	23642
837.167	23520
837.305	23326
837.443	23368
837.58	23387
837.718	23493
837.856	23391
837.993	23254
838.131	23353
838.269	23197
838.406	23296
838.544	23113
838.681	23037
838.819	23098
838.956	22824
839.094	22710
839.231	22934
839.369	22984
839.506	23273
839.643	23052
839.781	22828
839.918	22877
840.055	22831
840.193	22839
840.33	22801
840.467	22889
840.604	22801
840.742	22911
840.879	22618
841.016	22546
841.153	22596
841.29	22847
841.427	22649
841.564	22710
841.701	22675
841.838	22767
841.975	22634
842.112	22675
842.249	22577
842.385	22500
842.522	22607
842.659	22683
842.796	22527
842.933	22481
843.069	22599
843.206	22455
843.343	22546
843.479	22440
843.616	22390
843.752	22284
843.889	22337
844.025	22455
844.162	22185
844.298	22329
844.435	22196
844.571	22299
844.708	22242
844.844	22470
844.98	22306
845.117	22306
845.253	22204
845.389	22215
845.525	22101
845.661	22219
845.798	22013
845.934	22017
846.07	22002
846.206	22059
846.342	22139
846.478	21880
846.614	21880
846.75	21709
846.886	21694
847.022	21778
847.158	21861
847.294	21831
847.429	21793
847.565	21663
847.701	22040
847.837	21454
847.972	21580
848.108	21644
848.244	21595
848.379	21313
848.515	21363
848.65	21222
848.786	21329
848.921	21363
849.057	21469
849.192	21545
849.328	21313
849.463	21340
849.598	21329
849.734	21241
849.869	21214
850.004	21146
850.14	21039
850.275	21039
850.41	21047
850.545	21096
850.68	21112
850.815	21165
850.95	21001
851.085	21344
851.22	21237
851.355	21013
851.49	21207
851.625	21024
851.76	21116
851.895	20986
852.03	21089
852.165	21017
852.299	21135
852.434	21230
852.569	21127
852.703	21039
852.838	21020
852.973	21272
853.107	21272
853.242	21055
853.376	20998
853.511	20765
853.645	20963
853.78	21009
853.914	20956
854.048	20975
854.183	20857
854.317	21081
854.451	21032
854.585	20933
854.72	20963
854.854	20982
854.988	20906
855.122	20880
855.256	20834
855.39	20857
855.524	21005
855.658	21013
855.792	20990
855.926	20948
856.06	20952
856.194	20979
856.327	20902
856.461	20842
856.595	20925
856.729	20933
856.862	21058
856.996	20994
857.13	21017
857.263	20982
857.397	21051
857.53	21009
857.664	20921
857.797	20982
857.931	21176
858.064	20994
858.197	21066
858.331	20845
858.464	20872
858.597	20739
858.731	20826
858.864	20971
858.997	20933
859.13	20994
859.263	20880
859.396	20910
859.529	20933
859.662	20925
859.795	20727
859.928	21009
860.061	21051
860.194	21062
860.327	20960
860.46	20941
860.592	21119
860.725	21058
860.858	21077
860.99	20937
861.123	20845
861.256	20845
861.388	20956
861.521	21713
861.653	20788
861.786	20758
861.918	20731
862.05	20857
862.183	20769
862.315	20876
862.447	20963
862.58	20765
862.712	20590
862.844	20648
862.976	20811
863.108	20750
863.24	20944
863.372	20518
863.504	20682
863.636	20697
863.768	20602
863.9	20621
864.032	20530
864.164	20648
864.296	20590
864.428	20705
864.559	20693
864.691	20655
864.823	20556
864.954	20503
865.086	20651
865.217	20457
865.349	20484
865.48	20549
865.612	20511
865.743	20632
865.875	20606
866.006	20594
866.137	20488
866.269	20499
866.4	20473
866.531	20488
866.662	20454
866.793	20495
866.924	20495
867.055	20473
867.186	20606
867.317	20503
867.448	20355
867.579	20381
867.71	20473
867.841	20442
867.972	20389
868.103	20545
868.233	20377
868.364	20568
868.495	20438
868.625	20674
868.756	20861
868.886	20701
869.017	20689
869.147	20750
869.278	20899
869.408	20887
869.539	20708
869.669	20990
869.799	20758
869.929	20830
870.06	20792
870.19	21116
870.32	21024
870.45	21138
870.58	21017
870.71	21222
870.84	21226
870.97	21222
871.1	21043
871.23	21340
871.36	21332
871.489	21180
871.619	21252
871.749	21264
871.879	21386
872.008	21370
872.138	21351
872.267	21363
872.397	21203
872.526	20994
872.656	21108
872.785	21123
872.915	21264
873.044	21530
873.173	21393
873.303	21370
873.432	21359
873.561	21450
873.69	21401
873.819	21245
873.948	21454
874.077	21325
874.206	21367
874.335	21332
874.464	21458
874.593	21523
874.722	21561
874.851	21583
874.979	21622
875.108	21625
875.237	21473
875.365	21641
875.494	21557
875.623	21496
875.751	21519
875.88	21652
876.008	21660
876.136	21774
876.265	21926
876.393	22090
876.521	22124
876.65	22124
876.778	21983
876.906	21918
877.034	21842
877.162	21876
877.29	21816
877.418	21930
877.546	21945
877.674	21937
877.802	21960
877.93	21892
878.058	21797
878.185	21743
878.313	21831
878.441	21838
878.568	21808
878.696	21800
878.824	21979
878.951	21918
879.079	22029
879.206	22226
879.333	22112
879.461	21956
879.588	22029
879.715	22097
879.842	22234
879.97	21991
880.097	21694
880.224	21728
880.351	21713
880.478	21816
880.605	21747
880.732	21865
880.859	21983
880.986	21797
881.112	21743
881.239	21587
881.366	21477
881.493	21473
881.619	21355
881.746	21313
881.872	21336
881.999	21313
882.125	21256
882.252	21389
882.378	21230
882.505	21454
882.631	21180
882.757	21055
882.883	21100
883.01	20994
883.136	21104
883.262	20899
883.388	20895
883.514	20963
883.64	21039
883.766	21077
883.892	20804
884.018	20883
884.143	21009
884.269	20956
884.395	20617
884.52	20629
884.646	20769
884.772	20629
884.897	20621
885.023	20663
885.148	20804
885.274	20967
885.399	20712
885.524	20568
885.65	20678
885.775	20686
885.9	20659
886.025	20750
886.15	20796
886.275	20629
886.4	20587
886.525	20613
886.65	20545
886.775	20514
886.9	20788
887.025	20811
887.149	20602
887.274	20473
887.399	20347
887.523	20431
887.648	20351
887.773	20324
887.897	20450
888.021	20492
888.146	20343
888.27	20549
888.395	20495
888.519	20511
888.643	20457
888.767	20454
888.891	20278
889.015	20301
889.139	20301
889.263	20210
889.387	20415
889.511	20552
889.635	20370
889.759	20320
889.883	20248
890.006	20221
890.13	20290
890.254	20111
890.377	20084
890.501	20062
890.624	20043
890.748	20031
890.871	19894
890.995	19814
891.118	19662
891.241	19932
891.364	19799
891.488	19986
891.611	19868
891.734	19989
891.857	19925
891.98	19852
892.103	19944
892.226	19951
892.349	19719
892.471	19605
892.594	19753
892.717	19734
892.839	19696
892.962	19769
893.085	19814
893.207	19761
893.33	19635
893.452	19643
893.575	19674
893.697	19677
893.819	19753
893.941	19849
894.064	19913
894.186	19651
894.308	19674
894.43	19845
894.552	19841
894.674	19818
894.796	19662
894.918	19719
895.04	19746
895.161	19818
895.283	19765
895.405	19575
895.526	19750
895.648	19696
895.769	19712
895.891	19727
896.012	19811
896.134	19624
896.255	19769
896.376	19731
896.498	19727
896.619	19757
896.74	19704
896.861	19833
896.982	19932
897.103	20176
897.224	19963
897.345	20008
897.466	19970
897.587	19894
897.708	20012
897.828	19936
897.949	19856
898.07	19784
898.19	19868
898.311	19970
898.431	19852
898.552	19955
898.672	20096
898.792	19989
898.913	20065
899.033	19871
899.153	19799
899.273	19651
899.393	19658
899.513	19837
899.633	19666
899.753	19689
899.873	19662
899.993	19715
900.113	19632
900.232	19590
900.352	19552
900.472	19525
900.591	19407
900.711	19529
900.83	19472
900.95	19540
901.069	19533
901.189	19316
901.308	19183
901.427	19084
901.546	19179
901.665	19118
901.784	19023
901.904	19008
902.023	18897
902.141	18635
902.26	18734
902.379	18795
902.498	18730
902.617	18509
902.735	18741
902.854	18502
902.973	18471
903.091	18273
903.21	18262
903.328	18277
903.446	18228
903.565	18171
903.683	18003
903.801	17977
903.919	17996
904.038	17946
904.156	17767
904.274	17931
904.392	17775
904.51	17870
904.627	17790
904.745	17935
904.863	17927
904.981	17752
905.098	17486
905.216	17562
905.334	17509
905.451	17589
905.569	17509
905.686	17592
905.803	17524
905.921	17349
906.038	17467
906.155	17417
906.272	17326
906.389	17254
906.506	17143
906.623	17140
906.74	17067
906.857	17006
906.974	17003
907.091	17185
907.208	17166
907.324	17071
907.441	17045
907.557	16854
907.674	16771
907.79	16679
907.907	16729
908.023	16835
908.139	16908
908.256	16748
908.372	16668
908.488	16577
908.604	16588
908.72	16360
908.836	16519
908.952	16371
909.068	16550
909.184	16550
909.3	16504
909.415	16546
909.531	16504
909.647	16207
909.762	16226
909.878	16169
909.993	16211
910.108	16226
910.224	16147
910.339	16166
910.454	16040
910.57	16010
910.685	16002
910.8	16169
910.915	16238
911.03	16040
911.145	15888
911.259	15892
911.374	15899
911.489	15751
911.604	15762
911.718	15606
911.833	15557
911.947	15504
912.062	15363
912.176	15561
912.291	15542
912.405	15587
912.519	15774
912.633	15701
912.748	15701
912.862	15545
912.976	15454
913.09	15169
913.204	15405
913.318	15477
913.431	15431
913.545	15477
913.659	15473
913.772	15405
913.886	15279
914	15218
914.113	15192
914.226	15272
914.34	15275
914.453	15001
914.566	15275
914.68	15066
914.793	15062
914.906	14975
915.019	14842
915.132	14891
915.245	14769
915.358	14872
915.47	14804
915.583	14739
915.696	14792
915.809	14941
915.921	14914
916.034	14796
916.146	14739
916.259	14708
916.371	14853
916.483	14769
916.595	14682
916.708	14625
916.82	14590
916.932	14583
917.044	14648
917.156	14552
917.268	14385
917.38	14518
917.491	14473
917.603	14480
917.715	14606
917.826	14522
917.938	14404
918.049	14309
918.161	14473
918.272	14518
918.384	14579
918.495	14431
918.606	14290
918.717	14180
918.828	14221
918.939	14218
919.05	14145
919.161	14275
919.272	14103
919.383	14050
919.494	14305
919.604	14347
919.715	14301
919.826	14176
919.936	14145
920.047	14286
920.157	14199
920.267	14415
920.378	14282
920.488	14134
920.598	14389
920.708	14564
920.818	14275
920.928	14385
921.038	14533
921.148	14434
921.258	14176
921.368	14024
921.477	13928
921.587	13947
921.697	13868
921.806	14008
921.916	13803
922.025	13708
922.134	13540
922.244	13590
922.353	13590
922.462	13628
922.571	13377
922.68	13263
922.789	13282
922.898	13304
923.007	13198
923.116	13335
923.224	13168
923.333	13247
923.442	13114
923.55	13027
923.659	13126
923.767	13168
923.876	12973
923.984	13091
924.092	12920
924.201	13008
924.309	13004
924.417	13084
924.525	13031
924.633	12878
924.741	13670
924.849	12776
924.956	12882
925.064	12749
925.172	12642
925.279	12650
925.387	12753
925.494	12734
925.602	12806
925.709	12696
925.816	12597
925.924	12627
926.031	12722
926.138	12646
926.245	12692
926.352	12513
926.459	12673
926.566	12730
926.673	12566
926.779	12494
926.886	12448
926.993	12384
927.099	12266
927.206	12220
927.312	12117
927.419	12224
927.525	12197
927.631	12254
927.737	12098
927.843	12030
927.95	12007
928.056	12091
928.162	12201
928.267	12114
928.373	12570
928.479	12114
928.585	11923
928.69	12007
928.796	12019
928.901	11916
929.007	11882
929.112	11920
929.218	11889
929.323	11870
929.428	11859
929.533	11847
929.638	11756
929.743	11882
929.848	11809
929.953	11836
930.058	11726
930.163	11482
930.267	11562
930.372	11619
930.477	11482
930.581	11729
930.685	11512
930.79	11379
930.894	11482
930.998	11345
931.103	11505
931.207	11162
931.311	11117
931.415	10957
931.519	10767
931.623	10729
