Data from test_V78500241_2530.txt Node
Date: Fri Mar 25 15:27:28 CST 2022
User: usil
Spectrometer: V785-0024
Trigger mode: 0
Integration Time (sec): 4.000000E-1
Scans to average: 1
Nonlinearity correction enabled: false
Boxcar width: 0
Storing dark spectrum: false
XAxis mode: Wavelengths
Number of Pixels in Spectrum: 1024
>>>>>Begin Spectral Data<<<<<
801.071	27154
801.214	27066
801.356	26746
801.499	26815
801.641	26682
801.783	26735
801.926	26670
802.068	26697
802.211	26476
802.353	26427
802.496	26225
802.638	26511
802.78	26275
802.923	26218
803.065	26233
803.208	26225
803.35	26271
803.492	26442
803.635	26469
803.777	26370
803.919	26632
804.061	26842
804.204	26571
804.346	26446
804.488	26480
804.63	26492
804.773	26431
804.915	26495
805.057	26556
805.199	26507
805.341	26476
805.483	26655
805.626	26552
805.768	26541
805.91	26434
806.052	26629
806.194	26564
806.336	26777
806.478	26583
806.62	26526
806.762	26697
806.904	26781
807.046	27081
807.188	26975
807.33	26994
807.472	27055
807.614	26956
807.756	26975
807.898	26864
808.04	26727
808.182	26815
808.324	26918
808.465	26864
808.607	27024
808.749	27207
808.891	27176
809.033	27306
809.174	27287
809.316	27127
809.458	27138
809.6	27211
809.741	27135
809.883	27279
810.025	27416
810.166	27435
810.308	27553
810.45	27431
810.591	27279
810.733	27222
810.875	27116
811.016	26990
811.158	26960
811.299	27329
811.441	27420
811.582	27481
811.724	27131
811.865	27104
812.007	27100
812.148	27100
812.29	27317
812.431	27363
812.573	27504
812.714	27534
812.855	27667
812.997	27793
813.138	27918
813.279	27873
813.421	27671
813.562	27679
813.703	27439
813.845	27291
813.986	27058
814.127	26937
814.268	26792
814.41	26800
814.551	26720
814.692	26857
814.833	26678
814.974	26796
815.115	26925
815.256	26678
815.397	26708
815.539	26781
815.68	26625
815.821	26408
815.962	26670
816.103	26552
816.244	26351
816.385	26492
816.526	26434
816.666	26286
816.807	26039
816.948	26046
817.089	26149
817.23	26081
817.371	26065
817.512	25947
817.653	26069
817.793	25887
817.934	25944
818.075	26100
818.216	26046
818.356	26012
818.497	25921
818.638	25727
818.778	25860
818.919	25693
819.06	25966
819.2	25955
819.341	26008
819.481	26210
819.622	26161
819.762	26240
819.903	26187
820.043	26157
820.184	26100
820.324	26122
820.465	26248
820.605	26111
820.746	26149
820.886	25974
821.026	26100
821.167	26134
821.307	26122
821.447	26069
821.588	26065
821.728	25898
821.868	25693
822.008	25586
822.149	25540
822.289	25571
822.429	25369
822.569	25297
822.709	25244
822.849	25088
822.99	25118
823.13	25027
823.27	25008
823.41	24928
823.55	24745
823.69	24814
823.83	24954
823.97	24821
824.11	24677
824.25	24677
824.389	24833
824.529	24631
824.669	24688
824.809	24814
824.949	24719
825.089	24749
825.228	24681
825.368	24547
825.508	24608
825.648	24544
825.787	24555
825.927	24563
826.067	24494
826.206	24673
826.346	24479
826.485	24692
826.625	24585
826.765	24635
826.904	24540
827.044	24418
827.183	24342
827.323	24262
827.462	24361
827.601	24403
827.741	24372
827.88	24270
828.02	24133
828.159	24311
828.298	24266
828.437	24281
828.577	24296
828.716	24448
828.855	24171
828.994	24003
829.134	23942
829.273	23927
829.412	23901
829.551	23946
829.69	24041
829.829	24079
829.968	24079
830.107	23958
830.246	24026
830.385	23923
830.524	23885
830.663	23786
830.802	23710
830.941	23566
831.08	23600
831.219	23794
831.357	23592
831.496	23874
831.635	23623
831.774	23543
831.913	23539
832.051	23471
832.19	23349
832.329	23455
832.467	23379
832.606	23311
832.744	23223
832.883	23212
833.022	23269
833.16	23254
833.299	23372
833.437	23372
833.576	23326
833.714	23478
833.852	23467
833.991	23398
834.129	23520
834.267	23455
834.406	23356
834.544	23421
834.682	23353
834.821	23444
834.959	23471
835.097	23265
835.235	23482
835.373	23197
835.511	23330
835.65	23155
835.788	23349
835.926	23018
836.064	23090
836.202	23086
836.34	23166
836.478	23189
836.615	23174
836.753	23193
836.891	23273
837.029	23174
837.167	23132
837.305	23124
837.443	23102
837.58	23098
837.718	23052
837.856	23098
837.993	23056
838.131	23086
838.269	22896
838.406	22999
838.544	22911
838.681	22755
838.819	22698
838.956	22546
839.094	22542
839.231	22672
839.369	22683
839.506	22908
839.643	22892
839.781	22615
839.918	22481
840.055	22413
840.193	22527
840.33	22462
840.467	22554
840.604	22599
840.742	22698
840.879	22409
841.016	22466
841.153	22375
841.29	22519
841.427	22405
841.564	22356
841.701	22402
841.838	22443
841.975	22409
842.112	22402
842.249	22299
842.385	22310
842.522	22470
842.659	22394
842.796	22310
842.933	22272
843.069	22341
843.206	22280
843.343	22234
843.479	22310
843.616	22234
843.752	21983
843.889	22249
844.025	22173
844.162	22002
844.298	22131
844.435	22025
844.571	21987
844.708	22048
844.844	22078
844.98	22029
845.117	22040
845.253	21964
845.389	21797
845.525	21945
845.661	21956
845.798	21618
845.934	21926
846.07	21701
846.206	21831
846.342	21838
846.478	21785
846.614	21622
846.75	21401
846.886	21622
847.022	21572
847.158	21386
847.294	21397
847.429	21701
847.565	21462
847.701	21701
847.837	21306
847.972	21119
848.108	21332
848.244	21291
848.379	21020
848.515	21066
848.65	21051
848.786	21062
848.921	20998
849.057	21150
849.192	21184
849.328	21138
849.463	21192
849.598	20971
849.734	20902
849.869	20971
850.004	20887
850.14	21005
850.275	20880
850.41	20914
850.545	20743
850.68	20830
850.815	20781
850.95	20891
851.085	20979
851.22	20918
851.355	20880
851.49	20785
851.625	20781
851.76	20891
851.895	20788
852.03	20788
852.165	20842
852.299	20880
852.434	20982
852.569	20830
852.703	20823
852.838	20937
852.973	21154
853.107	20899
853.242	20925
853.376	20750
853.511	20613
853.645	20609
853.78	20868
853.914	20678
854.048	20693
854.183	20629
854.317	20708
854.451	20823
854.585	20708
854.72	20629
854.854	20804
854.988	20587
855.122	20667
855.256	20541
855.39	20682
855.524	20712
855.658	20826
855.792	20689
855.926	20712
856.06	20674
856.194	20762
856.327	20708
856.461	20549
856.595	20571
856.729	20659
856.862	20807
856.996	20743
857.13	20712
857.263	20754
857.397	20731
857.53	20689
857.664	20682
857.797	20686
857.931	20769
858.064	20590
858.197	20731
858.331	20670
858.464	20674
858.597	20579
858.731	20621
858.864	20575
858.997	20583
859.13	20625
859.263	20632
859.396	20708
859.529	20701
859.662	20492
859.795	20617
859.928	20724
860.061	20811
860.194	20868
860.327	20773
860.46	20663
860.592	20754
860.725	20891
860.858	20743
860.99	20758
861.123	20560
861.256	20579
861.388	20686
861.521	21412
861.653	20678
861.786	20530
861.918	20480
862.05	20617
862.183	20518
862.315	20552
862.447	20697
862.58	20651
862.712	20446
862.844	20320
862.976	20530
863.108	20450
863.24	20864
863.372	20381
863.504	20507
863.636	20385
863.768	20419
863.9	20461
864.032	20393
864.164	20301
864.296	20419
864.428	20522
864.559	20492
864.691	20370
864.823	20400
864.954	20294
865.086	20237
865.217	20366
865.349	20229
865.48	20275
865.612	20358
865.743	20355
865.875	20343
866.006	20320
866.137	20240
866.269	20225
866.4	20317
866.531	20343
866.662	20229
866.793	20248
866.924	20115
867.055	20301
867.186	20278
867.317	20263
867.448	20221
867.579	20149
867.71	20180
867.841	20134
867.972	20145
868.103	20259
868.233	20263
868.364	20237
868.495	20237
868.625	20507
868.756	20446
868.886	20450
869.017	20484
869.147	20640
869.278	20636
869.408	20507
869.539	20415
869.669	20579
869.799	20511
869.929	20587
870.06	20617
870.19	20880
870.32	20716
870.45	20788
870.58	20895
870.71	20982
870.84	20952
870.97	20918
871.1	20883
871.23	21028
871.36	21184
871.489	21066
871.619	20979
871.749	21100
871.879	21074
872.008	21203
872.138	21013
872.267	21009
872.397	20960
872.526	20838
872.656	20948
872.785	20952
872.915	21119
873.044	21249
873.173	21123
873.303	21127
873.432	21154
873.561	21127
873.69	21135
873.819	21100
873.948	21214
874.077	21024
874.206	21074
874.335	21154
874.464	21211
874.593	21389
874.722	21351
874.851	21420
874.979	21397
875.108	21416
875.237	21351
875.365	21131
875.494	21249
875.623	21340
875.751	21348
875.88	21325
876.008	21553
876.136	21587
876.265	21739
876.393	21842
876.521	21770
876.65	21831
876.778	21759
876.906	21656
877.034	21656
877.162	21789
877.29	21641
877.418	21755
877.546	21747
877.674	21690
877.802	21747
877.93	21667
878.058	21667
878.185	21469
878.313	21751
878.441	21591
878.568	21496
878.696	21629
878.824	21656
878.951	21850
879.079	21895
879.206	21949
879.333	21850
879.461	21812
879.588	21747
879.715	21823
879.842	21953
879.97	21838
880.097	21477
880.224	21538
880.351	21595
880.478	21538
880.605	21534
880.732	21481
880.859	21827
880.986	21542
881.112	21530
881.239	21389
881.366	21272
881.493	21287
881.619	21135
881.746	21138
881.872	21100
881.999	21161
882.125	21043
882.252	21070
882.378	21169
882.505	21211
882.631	20956
882.757	20826
882.883	21005
883.01	20781
883.136	20838
883.262	20731
883.388	20613
883.514	20697
883.64	20826
883.766	20785
883.892	20556
884.018	20617
884.143	20830
884.269	20785
884.395	20499
884.52	20488
884.646	20503
884.772	20457
884.897	20431
885.023	20533
885.148	20480
885.274	20621
885.399	20667
885.524	20419
885.65	20537
885.775	20495
885.9	20408
886.025	20564
886.15	20427
886.275	20473
886.4	20366
886.525	20454
886.65	20351
886.775	20370
886.9	20495
887.025	20659
887.149	20427
887.274	20237
887.399	20180
887.523	20210
887.648	20191
887.773	20145
887.897	20404
888.021	20237
888.146	20161
888.27	20374
888.395	20336
888.519	20214
888.643	20221
888.767	20328
888.891	20130
889.015	20039
889.139	20153
889.263	19932
889.387	20111
889.511	20195
889.635	20233
889.759	20145
889.883	20046
890.006	20058
890.13	20069
890.254	19917
890.377	20043
890.501	19833
890.624	19776
890.748	19807
890.871	19799
890.995	19632
891.118	19529
891.241	19757
891.364	19624
891.488	19719
891.611	19616
891.734	19693
891.857	19605
891.98	19537
892.103	19594
892.226	19635
892.349	19628
892.471	19441
892.594	19491
892.717	19575
892.839	19487
892.962	19521
893.085	19613
893.207	19464
893.33	19411
893.452	19521
893.575	19552
893.697	19521
893.819	19639
893.941	19696
894.064	19727
894.186	19540
894.308	19548
894.43	19571
894.552	19761
894.674	19590
894.796	19480
894.918	19537
895.04	19403
895.161	19651
895.283	19590
895.405	19457
895.526	19548
895.648	19563
895.769	19552
895.891	19624
896.012	19670
896.134	19624
896.255	19491
896.376	19586
896.498	19495
896.619	19495
896.74	19506
896.861	19696
896.982	19917
897.103	19997
897.224	19814
897.345	19681
897.466	19674
897.587	19624
897.708	20027
897.828	19734
897.949	19727
898.07	19590
898.19	19605
898.311	19803
898.431	19757
898.552	19734
898.672	19833
898.792	19807
898.913	19723
899.033	19544
899.153	19540
899.273	19487
899.393	19605
899.513	19472
899.633	19453
899.753	19441
899.873	19403
899.993	19582
900.113	19434
900.232	19586
900.352	19441
900.472	19343
900.591	19324
900.711	19358
900.83	19217
900.95	19419
901.069	19362
901.189	19133
901.308	19019
901.427	18867
901.546	18837
901.665	18977
901.784	18909
901.904	18787
902.023	18688
902.141	18483
902.26	18372
902.379	18589
902.498	18437
902.617	18429
902.735	18388
902.854	18361
902.973	18285
903.091	18087
903.21	18091
903.328	18003
903.446	18019
903.565	17992
903.683	17859
903.801	17798
903.919	17840
904.038	17882
904.156	17779
904.274	17878
904.392	17570
904.51	17657
904.627	17718
904.745	17821
904.863	17657
904.981	17558
905.098	17273
905.216	17368
905.334	17417
905.451	17353
905.569	17345
905.686	17387
905.803	17383
905.921	17197
906.038	17220
906.155	17143
906.272	17003
906.389	17105
906.506	16866
906.623	16904
906.74	16881
906.857	16717
906.974	16717
907.091	16919
907.208	16923
907.324	16949
907.441	16809
907.557	16687
907.674	16569
907.79	16550
907.907	16615
908.023	16698
908.139	16577
908.256	16455
908.372	16550
908.488	16573
908.604	16440
908.72	16375
908.836	16417
908.952	16337
909.068	16344
909.184	16462
909.3	16360
909.415	16382
909.531	16303
909.647	16128
909.762	15983
909.878	16017
909.993	16055
910.108	16082
910.224	16090
910.339	15987
910.454	15880
910.57	15846
910.685	15774
910.8	16078
910.915	15983
911.03	15915
911.145	15690
911.259	15667
911.374	15671
911.489	15603
911.604	15405
911.718	15447
911.833	15477
911.947	15386
912.062	15348
912.176	15416
912.291	15466
912.405	15351
912.519	15675
912.633	15564
912.748	15424
912.862	15249
912.976	15268
913.09	15066
913.204	15199
913.318	15279
913.431	15302
913.545	15291
913.659	15207
913.772	15195
913.886	15032
914	15043
914.113	15085
914.226	15074
914.34	15108
914.453	14952
914.566	15112
914.68	14872
914.793	14925
914.906	14777
915.019	14606
915.132	14610
915.245	14701
915.358	14686
915.47	14758
915.583	14682
915.696	14648
915.809	14781
915.921	14788
916.034	14640
916.146	14617
916.259	14530
916.371	14533
916.483	14682
916.595	14552
916.708	14473
916.82	14484
916.932	14488
917.044	14454
917.156	14446
917.268	14358
917.38	14385
917.491	14320
917.603	14370
917.715	14396
917.826	14362
917.938	14267
918.049	14221
918.161	14313
918.272	14358
918.384	14355
918.495	14324
918.606	14138
918.717	14119
918.828	14126
918.939	14111
919.05	14065
919.161	14115
919.272	13928
919.383	13982
919.494	14168
919.604	14324
919.715	14153
919.826	13978
919.936	14024
920.047	14225
920.157	14103
920.267	14278
920.378	14088
920.488	14096
920.598	14381
920.708	14381
920.818	14229
920.928	14298
921.038	14286
921.148	14442
921.258	14077
921.368	13917
921.477	13871
921.587	13826
921.697	13799
921.806	13887
921.916	13757
922.025	13639
922.134	13643
922.244	13510
922.353	13628
922.462	13460
922.571	13316
922.68	13304
922.789	13133
922.898	13221
923.007	13038
923.116	13240
923.224	13221
923.333	13080
923.442	13012
923.55	12985
923.659	12977
923.767	13008
923.876	12909
923.984	13057
924.092	12943
924.201	12897
924.309	12909
924.417	12894
924.525	12837
924.633	12859
924.741	13761
924.849	12669
924.956	12848
925.064	12753
925.172	12574
925.279	12658
925.387	12650
925.494	12486
925.602	12726
925.709	12616
925.816	12494
925.924	12616
926.031	12547
926.138	12551
926.245	12555
926.352	12353
926.459	12559
926.566	12642
926.673	12486
926.779	12376
926.886	12350
926.993	12167
927.099	12201
927.206	12072
927.312	12064
927.419	12201
927.525	12197
927.631	12182
927.737	12057
927.843	11954
927.95	11942
928.056	12060
928.162	12095
928.267	12175
928.373	12585
928.479	12015
928.585	11916
928.69	11931
928.796	11882
928.901	11893
929.007	11646
929.112	11893
929.218	11805
929.323	11688
929.428	11703
929.533	11775
929.638	11615
929.743	11684
929.848	11802
929.953	11710
930.058	11585
930.163	11421
930.267	11482
930.372	11551
930.477	11395
930.581	11630
930.685	11463
930.79	11223
930.894	11341
930.998	11299
931.103	11421
931.207	11090
931.311	10976
931.415	10976
931.519	10668
931.623	10668
