Data from test_V78500241_1904.txt Node
Date: Fri Mar 25 15:23:06 CST 2022
User: usil
Spectrometer: V785-0024
Trigger mode: 0
Integration Time (sec): 4.000000E-1
Scans to average: 1
Nonlinearity correction enabled: false
Boxcar width: 0
Storing dark spectrum: false
XAxis mode: Wavelengths
Number of Pixels in Spectrum: 1024
>>>>>Begin Spectral Data<<<<<
801.071	27249
801.214	27245
801.356	26971
801.499	27001
801.641	26948
801.783	26716
801.926	26849
802.068	26659
802.211	26807
802.353	26735
802.496	26594
802.638	26412
802.78	26492
802.923	26374
803.065	26305
803.208	26408
803.35	26450
803.492	26636
803.635	26796
803.777	26533
803.919	26632
804.061	26796
804.204	26613
804.346	26457
804.488	26499
804.63	26712
804.773	26598
804.915	26583
805.057	26655
805.199	26514
805.341	26689
805.483	26667
805.626	26773
805.768	26705
805.91	26750
806.052	26625
806.194	26636
806.336	26880
806.478	26720
806.62	26655
806.762	26838
806.904	27009
807.046	27089
807.188	27154
807.33	27131
807.472	27260
807.614	26944
807.756	27070
807.898	27062
808.04	26948
808.182	26864
808.324	26967
808.465	27081
808.607	27112
808.749	27359
808.891	27374
809.033	27359
809.174	27348
809.316	27192
809.458	27378
809.6	27302
809.741	27336
809.883	27481
810.025	27606
810.166	27633
810.308	27637
810.45	27523
810.591	27355
810.733	27260
810.875	27260
811.016	27252
811.158	27157
811.299	27294
811.441	27454
811.582	27435
811.724	27306
811.865	27370
812.007	27173
812.148	27195
812.29	27317
812.431	27412
812.573	27652
812.714	27656
812.855	27816
812.997	27907
813.138	28067
813.279	27964
813.421	27713
813.562	27766
813.703	27587
813.845	27466
813.986	27226
814.127	27112
814.268	26948
814.41	26971
814.551	26986
814.692	27150
814.833	26834
814.974	26990
815.115	27017
815.256	26872
815.397	26963
815.539	26887
815.68	26727
815.821	26682
815.962	26807
816.103	26743
816.244	26651
816.385	26697
816.526	26522
816.666	26256
816.807	26351
816.948	26164
817.089	26358
817.23	26221
817.371	26248
817.512	26290
817.653	26119
817.793	26168
817.934	26168
818.075	26259
818.216	26324
818.356	26164
818.497	26100
818.638	26054
818.778	25868
818.919	25814
819.06	26172
819.2	26031
819.341	26130
819.481	26271
819.622	26305
819.762	26511
819.903	26423
820.043	26412
820.184	26442
820.324	26320
820.465	26518
820.605	26183
820.746	26298
820.886	26012
821.026	26202
821.167	26328
821.307	26393
821.447	26214
821.588	26111
821.728	25982
821.868	25932
822.008	25658
822.149	25674
822.289	25753
822.429	25453
822.569	25289
822.709	25430
822.849	25198
822.99	25187
823.13	25247
823.27	25179
823.41	24985
823.55	24901
823.69	25019
823.83	24992
823.97	24947
824.11	24848
824.25	24798
824.389	24753
824.529	24757
824.669	24802
824.809	25061
824.949	24909
825.089	24844
825.228	24768
825.368	24692
825.508	24707
825.648	24726
825.787	24745
825.927	24673
826.067	24772
826.206	24692
826.346	24677
826.485	24684
826.625	24650
826.765	24639
826.904	24703
827.044	24525
827.183	24464
827.323	24281
827.462	24418
827.601	24433
827.741	24247
827.88	24361
828.02	24251
828.159	24281
828.298	24448
828.437	24479
828.577	24353
828.716	24589
828.855	24285
828.994	24228
829.134	24167
829.273	24087
829.412	23984
829.551	24102
829.69	24053
829.829	24095
829.968	24270
830.107	24148
830.246	24194
830.385	24076
830.524	24057
830.663	23954
830.802	23935
830.941	23866
831.08	23726
831.219	23969
831.357	23840
831.496	24049
831.635	23771
831.774	23615
831.913	23573
832.051	23436
832.19	23444
832.329	23566
832.467	23440
832.606	23463
832.744	23356
832.883	23364
833.022	23417
833.16	23364
833.299	23471
833.437	23490
833.576	23421
833.714	23539
833.852	23547
833.991	23524
834.129	23452
834.267	23577
834.406	23379
834.544	23573
834.682	23467
834.821	23497
834.959	23733
835.097	23417
835.235	23509
835.373	23531
835.511	23539
835.65	23345
835.788	23349
835.926	23334
836.064	23094
836.202	23136
836.34	23414
836.478	23349
836.615	23349
836.753	23254
836.891	23318
837.029	23387
837.167	23433
837.305	23178
837.443	23128
837.58	23208
837.718	23318
837.856	23117
837.993	23223
838.131	23155
838.269	23079
838.406	23060
838.544	23025
838.681	22900
838.819	22801
838.956	22755
839.094	22660
839.231	22744
839.369	22782
839.506	23006
839.643	22911
839.781	22611
839.918	22752
840.055	22630
840.193	22679
840.33	22637
840.467	22615
840.604	22687
840.742	22771
840.879	22497
841.016	22653
841.153	22519
841.29	22664
841.427	22531
841.564	22561
841.701	22561
841.838	22554
841.975	22413
842.112	22436
842.249	22280
842.385	22337
842.522	22443
842.659	22329
842.796	22246
842.933	22314
843.069	22360
843.206	22265
843.343	22432
843.479	22375
843.616	22337
843.752	22154
843.889	22101
844.025	22481
844.162	22090
844.298	22299
844.435	22131
844.571	22078
844.708	22135
844.844	22200
844.98	22341
845.117	22200
845.253	22154
845.389	22002
845.525	22086
845.661	22116
845.798	21831
845.934	21953
846.07	21911
846.206	21876
846.342	22067
846.478	21762
846.614	21755
846.75	21545
846.886	21507
847.022	21648
847.158	21599
847.294	21675
847.429	21622
847.565	21705
847.701	21797
847.837	21317
847.972	21211
848.108	21435
848.244	21370
848.379	21207
848.515	21142
848.65	21241
848.786	21211
848.921	21108
849.057	21393
849.192	21268
849.328	21176
849.463	21195
849.598	21024
849.734	21127
849.869	20994
850.004	20918
850.14	21005
850.275	20811
850.41	20902
850.545	20868
850.68	20933
850.815	21058
850.95	20979
851.085	21218
851.22	21055
851.355	20937
851.49	20925
851.625	20727
851.76	20792
851.895	20880
852.03	20842
852.165	20952
852.299	20975
852.434	20982
852.569	21055
852.703	21009
852.838	20960
852.973	21116
853.107	20948
853.242	20906
853.376	20800
853.511	20670
853.645	20735
853.78	20910
853.914	20708
854.048	20807
854.183	20701
854.317	20887
854.451	20990
854.585	20845
854.72	20845
854.854	20708
854.988	20644
855.122	20804
855.256	20686
855.39	20739
855.524	20727
855.658	20762
855.792	20792
855.926	20701
856.06	20849
856.194	20815
856.327	20743
856.461	20754
856.595	20826
856.729	20739
856.862	20986
856.996	20811
857.13	20948
857.263	20876
857.397	20876
857.53	20796
857.664	20963
857.797	20842
857.931	20876
858.064	20811
858.197	20845
858.331	20545
858.464	20792
858.597	20571
858.731	20785
858.864	20735
858.997	20731
859.13	20785
859.263	20880
859.396	20773
859.529	20758
859.662	20807
859.795	20708
859.928	20823
860.061	21028
860.194	20948
860.327	20830
860.46	20697
860.592	20823
860.725	21009
860.858	20834
860.99	20807
861.123	20674
861.256	20739
861.388	20754
861.521	21344
861.653	20655
861.786	20541
861.918	20651
862.05	20670
862.183	20697
862.315	20769
862.447	20750
862.58	20655
862.712	20541
862.844	20499
862.976	20590
863.108	20613
863.24	20830
863.372	20385
863.504	20442
863.636	20533
863.768	20404
863.9	20415
864.032	20313
864.164	20336
864.296	20442
864.428	20587
864.559	20480
864.691	20469
864.823	20522
864.954	20507
865.086	20533
865.217	20476
865.349	20355
865.48	20465
865.612	20381
865.743	20511
865.875	20347
866.006	20503
866.137	20423
866.269	20400
866.4	20412
866.531	20374
866.662	20282
866.793	20423
866.924	20427
867.055	20381
867.186	20461
867.317	20290
867.448	20252
867.579	20313
867.71	20244
867.841	20259
867.972	20290
868.103	20259
868.233	20343
868.364	20347
868.495	20434
868.625	20511
868.756	20629
868.886	20522
869.017	20537
869.147	20750
869.278	20777
869.408	20590
869.539	20473
869.669	20815
869.799	20705
869.929	20727
870.06	20693
870.19	20849
870.32	20868
870.45	20914
870.58	21096
870.71	21047
870.84	20963
870.97	21112
871.1	21020
871.23	21116
871.36	21195
871.489	21085
871.619	21180
871.749	21131
871.879	21306
872.008	21165
872.138	21093
872.267	21195
872.397	21146
872.526	20956
872.656	21100
872.785	21085
872.915	21169
873.044	21279
873.173	21192
873.303	21279
873.432	21294
873.561	21294
873.69	21211
873.819	21245
873.948	21237
874.077	21184
874.206	21192
874.335	21100
874.464	21207
874.593	21504
874.722	21325
874.851	21492
874.979	21386
875.108	21488
875.237	21389
875.365	21416
875.494	21424
875.623	21466
875.751	21450
875.88	21477
876.008	21625
876.136	21633
876.265	21816
876.393	21857
876.521	21838
876.65	21926
876.778	21884
876.906	21865
877.034	21797
877.162	21884
877.29	21759
877.418	21861
877.546	21804
877.674	21808
877.802	21793
877.93	21739
878.058	21770
878.185	21667
878.313	21652
878.441	21816
878.568	21682
878.696	21644
878.824	21736
878.951	21915
879.079	21956
879.206	22021
879.333	21983
879.461	21816
879.588	21846
879.715	21930
879.842	21998
879.97	21850
880.097	21656
880.224	21603
880.351	21576
880.478	21637
880.605	21572
880.732	21660
880.859	21915
880.986	21652
881.112	21618
881.239	21507
881.366	21279
881.493	21302
881.619	21142
881.746	21161
881.872	21222
881.999	21192
882.125	21207
882.252	21226
882.378	21173
882.505	21268
882.631	21058
882.757	21013
882.883	21112
883.01	20952
883.136	20883
883.262	20773
883.388	20807
883.514	20933
883.64	20914
883.766	20781
883.892	20686
884.018	20724
884.143	20887
884.269	20872
884.395	20606
884.52	20545
884.646	20450
884.772	20602
884.897	20381
885.023	20545
885.148	20625
885.274	20708
885.399	20670
885.524	20541
885.65	20549
885.775	20518
885.9	20454
886.025	20659
886.15	20594
886.275	20530
886.4	20484
886.525	20575
886.65	20465
886.775	20545
886.9	20609
887.025	20826
887.149	20564
887.274	20328
887.399	20301
887.523	20408
887.648	20161
887.773	20309
887.897	20419
888.021	20343
888.146	20358
888.27	20370
888.395	20278
888.519	20317
888.643	20362
888.767	20396
888.891	20294
889.015	20153
889.139	20115
889.263	20050
889.387	20301
889.511	20252
889.635	20229
889.759	20065
889.883	20077
890.006	20199
890.13	20324
890.254	20103
890.377	20134
890.501	19928
890.624	19826
890.748	19982
890.871	19791
890.995	19651
891.118	19674
891.241	19712
891.364	19700
891.488	19750
891.611	19700
891.734	19674
891.857	19700
891.98	19799
892.103	19772
892.226	19647
892.349	19723
892.471	19514
892.594	19594
892.717	19670
892.839	19670
892.962	19681
893.085	19647
893.207	19613
893.33	19590
893.452	19556
893.575	19571
893.697	19533
893.819	19807
893.941	19788
894.064	19685
894.186	19559
894.308	19677
894.43	19613
894.552	19715
894.674	19742
894.796	19559
894.918	19601
895.04	19643
895.161	19799
895.283	19674
895.405	19575
895.526	19552
895.648	19586
895.769	19594
895.891	19731
896.012	19662
896.134	19632
896.255	19567
896.376	19556
896.498	19563
896.619	19552
896.74	19594
896.861	19601
896.982	19940
897.103	20081
897.224	19883
897.345	19818
897.466	19700
897.587	19772
897.708	19974
897.828	19841
897.949	19860
898.07	19719
898.19	19765
898.311	19951
898.431	19795
898.552	19784
898.672	19769
898.792	19837
898.913	19780
899.033	19807
899.153	19719
899.273	19548
899.393	19731
899.513	19666
899.633	19601
899.753	19594
899.873	19586
899.993	19643
900.113	19689
900.232	19594
900.352	19502
900.472	19350
900.591	19343
900.711	19377
900.83	19384
900.95	19407
901.069	19419
901.189	19274
901.308	19004
901.427	19076
901.546	18962
901.665	18977
901.784	19012
901.904	18897
902.023	18715
902.141	18589
902.26	18490
902.379	18631
902.498	18471
902.617	18525
902.735	18445
902.854	18418
902.973	18369
903.091	18197
903.21	18190
903.328	18235
903.446	18095
903.565	18026
903.683	17992
903.801	17992
903.919	17954
904.038	17866
904.156	17775
904.274	17847
904.392	17775
904.51	17756
904.627	17729
904.745	17714
904.863	17790
904.981	17585
905.098	17471
905.216	17368
905.334	17364
905.451	17467
905.569	17410
905.686	17471
905.803	17379
905.921	17235
906.038	17227
906.155	17292
906.272	17193
906.389	17140
906.506	16908
906.623	17014
906.74	16869
906.857	16824
906.974	16843
907.091	17003
907.208	17048
907.324	17022
907.441	16904
907.557	16736
907.674	16767
907.79	16634
907.907	16687
908.023	16653
908.139	16675
908.256	16637
908.372	16538
908.488	16542
908.604	16470
908.72	16436
908.836	16417
908.952	16291
909.068	16432
909.184	16535
909.3	16386
909.415	16508
909.531	16428
909.647	16154
909.762	16128
909.878	16044
909.993	16105
910.108	16090
910.224	15994
910.339	16143
910.454	16071
910.57	15915
910.685	15922
910.8	16192
910.915	16097
911.03	15892
911.145	15717
911.259	15709
911.374	15709
911.489	15682
911.604	15671
911.718	15587
911.833	15542
911.947	15268
912.062	15275
912.176	15310
912.291	15481
912.405	15408
912.519	15652
912.633	15694
912.748	15511
912.862	15454
912.976	15245
913.09	15184
913.204	15249
913.318	15325
913.431	15511
913.545	15302
913.659	15325
913.772	15241
913.886	15138
914	15097
914.113	15211
914.226	15207
914.34	15154
914.453	14933
914.566	15146
914.68	14960
914.793	15024
914.906	14792
915.019	14716
915.132	14644
915.245	14686
915.358	14727
915.47	14746
915.583	14765
915.696	14689
915.809	14891
915.921	14807
916.034	14651
916.146	14686
916.259	14636
916.371	14731
916.483	14663
916.595	14568
916.708	14507
916.82	14492
916.932	14522
917.044	14606
917.156	14522
917.268	14389
917.38	14415
917.491	14324
917.603	14400
917.715	14366
917.826	14454
917.938	14278
918.049	14065
918.161	14336
918.272	14488
918.384	14450
918.495	14332
918.606	14210
918.717	14123
918.828	14187
918.939	14225
919.05	14081
919.161	14126
919.272	14001
919.383	13993
919.494	14119
919.604	14282
919.715	14145
919.826	14008
919.936	14130
920.047	14168
920.157	14027
920.267	14351
920.378	14153
920.488	14092
920.598	14256
920.708	14343
920.818	14290
920.928	14210
921.038	14362
921.148	14351
921.258	14134
921.368	14005
921.477	13852
921.587	13890
921.697	13803
921.806	13925
921.916	13734
922.025	13567
922.134	13616
922.244	13525
922.353	13487
922.462	13422
922.571	13316
922.68	13198
922.789	13236
922.898	13072
923.007	13168
923.116	13183
923.224	13171
923.333	13285
923.442	12973
923.55	12951
923.659	13084
923.767	13027
923.876	12878
923.984	13050
924.092	12909
924.201	12833
924.309	12897
924.417	12905
924.525	12852
924.633	12886
924.741	13791
924.849	12608
924.956	12760
925.064	12601
925.172	12475
925.279	12597
925.387	12642
925.494	12540
925.602	12654
925.709	12642
925.816	12441
925.924	12551
926.031	12601
926.138	12471
926.245	12608
926.352	12540
926.459	12597
926.566	12631
926.673	12471
926.779	12445
926.886	12304
926.993	12220
927.099	12235
927.206	12079
927.312	12098
927.419	12175
927.525	12144
927.631	12163
927.737	12060
927.843	11958
927.95	11980
928.056	11961
928.162	11946
928.267	12060
928.373	12559
928.479	12053
928.585	11878
928.69	11897
928.796	11950
928.901	11897
929.007	11722
929.112	11851
929.218	11954
929.323	11798
929.428	11794
929.533	11813
929.638	11596
929.743	11703
929.848	11718
929.953	11745
930.058	11543
930.163	11395
930.267	11448
930.372	11524
930.477	11246
930.581	11611
930.685	11532
930.79	11239
930.894	11296
930.998	11250
931.103	11387
931.207	11037
931.311	10953
931.415	10877
931.519	10698
931.623	10694
