Data from test_V78500241_90.txt Node
Date: Fri Mar 25 15:10:29 CST 2022
User: usil
Spectrometer: V785-0024
Trigger mode: 0
Integration Time (sec): 4.000000E-1
Scans to average: 1
Nonlinearity correction enabled: false
Boxcar width: 0
Storing dark spectrum: false
XAxis mode: Wavelengths
Number of Pixels in Spectrum: 1024
>>>>>Begin Spectral Data<<<<<
801.071	28580
801.214	28455
801.356	28238
801.499	28055
801.641	27941
801.783	28013
801.926	28112
802.068	27934
802.211	27861
802.353	27736
802.496	27545
802.638	27557
802.78	27504
802.923	27637
803.065	27378
803.208	27572
803.35	27576
803.492	27564
803.635	27720
803.777	27549
803.919	27747
804.061	28093
804.204	27671
804.346	27652
804.488	27500
804.63	27504
804.773	27389
804.915	27656
805.057	27755
805.199	27599
805.341	27648
805.483	27675
805.626	27625
805.768	27622
805.91	27724
806.052	27785
806.194	27610
806.336	28025
806.478	27876
806.62	27827
806.762	27808
806.904	27934
807.046	28128
807.188	27994
807.33	27987
807.472	28196
807.614	27972
807.756	27983
807.898	27911
808.04	27934
808.182	27892
808.324	27880
808.465	27953
808.607	28150
808.749	28093
808.891	28363
809.033	28375
809.174	28299
809.316	28207
809.458	28211
809.6	28188
809.741	28329
809.883	28211
810.025	28489
810.166	28451
810.308	28386
810.45	28375
810.591	28295
810.733	28306
810.875	28200
811.016	28166
811.158	28112
811.299	28173
811.441	28268
811.582	28325
811.724	28181
811.865	28010
812.007	28078
812.148	28131
812.29	28303
812.431	28295
812.573	28485
812.714	28523
812.855	28607
812.997	28687
813.138	28888
813.279	28854
813.421	28637
813.562	28721
813.703	28489
813.845	28333
813.986	28017
814.127	28002
814.268	27766
814.41	27914
814.551	27694
814.692	27857
814.833	27797
814.974	27675
815.115	27789
815.256	27614
815.397	27583
815.539	27759
815.68	27481
815.821	27469
815.962	27599
816.103	27587
816.244	27386
816.385	27245
816.526	27222
816.666	27131
816.807	26956
816.948	26963
817.089	26956
817.23	26990
817.371	26834
817.512	26902
817.653	27036
817.793	26796
817.934	26739
818.075	26887
818.216	26838
818.356	26868
818.497	26731
818.638	26625
818.778	26682
818.919	26746
819.06	26511
819.2	26804
819.341	26826
819.481	26845
819.622	26823
819.762	27104
819.903	27081
820.043	27013
820.184	26940
820.324	26834
820.465	26994
820.605	26857
820.746	26868
820.886	26762
821.026	26819
821.167	26754
821.307	27081
821.447	26781
821.588	26811
821.728	26682
821.868	26438
822.008	26351
822.149	26210
822.289	26263
822.429	26020
822.569	25966
822.709	26024
822.849	25791
822.99	25597
823.13	25845
823.27	25803
823.41	25563
823.55	25422
823.69	25537
823.83	25590
823.97	25495
824.11	25331
824.25	25346
824.389	25426
824.529	25434
824.669	25381
824.809	25396
824.949	25559
825.089	25411
825.228	25403
825.368	25141
825.508	25194
825.648	25160
825.787	25168
825.927	25225
826.067	25103
826.206	25065
826.346	25183
826.485	25114
826.625	25042
826.765	25202
826.904	25171
827.044	24909
827.183	24939
827.323	24719
827.462	24871
827.601	24958
827.741	24795
827.88	24760
828.02	24665
828.159	24734
828.298	24631
828.437	24943
828.577	24779
828.716	24867
828.855	24715
828.994	24563
829.134	24460
829.273	24570
829.412	24433
829.551	24433
829.69	24388
829.829	24456
829.968	24669
830.107	24460
830.246	24467
830.385	24380
830.524	24350
830.663	24270
830.802	24167
830.941	24079
831.08	24083
831.219	24171
831.357	24087
831.496	24155
831.635	23977
831.774	23859
831.913	23904
832.051	23889
832.19	23714
832.329	23794
832.467	23764
832.606	23600
832.744	23680
832.883	23726
833.022	23642
833.16	23714
833.299	23680
833.437	23596
833.576	23741
833.714	23714
833.852	23627
833.991	23703
834.129	23707
834.267	23646
834.406	23748
834.544	23600
834.682	23627
834.821	23638
834.959	23729
835.097	23486
835.235	23771
835.373	23528
835.511	23585
835.65	23440
835.788	23566
835.926	23402
836.064	23356
836.202	23379
836.34	23531
836.478	23608
836.615	23406
836.753	23543
836.891	23573
837.029	23444
837.167	23440
837.305	23391
837.443	23341
837.58	23376
837.718	23452
837.856	23223
837.993	23288
838.131	23376
838.269	23174
838.406	23376
838.544	23029
838.681	23003
838.819	22942
838.956	22706
839.094	22706
839.231	22767
839.369	22873
839.506	23250
839.643	22858
839.781	22831
839.918	22615
840.055	22672
840.193	22649
840.33	22618
840.467	22588
840.604	22531
840.742	22934
840.879	22493
841.016	22512
841.153	22538
841.29	22664
841.427	22649
841.564	22668
841.701	22706
841.838	22603
841.975	22356
842.112	22527
842.249	22375
842.385	22394
842.522	22310
842.659	22405
842.796	22310
842.933	22478
843.069	22276
843.206	22287
843.343	22314
843.479	22238
843.616	22382
843.752	22128
843.889	22032
844.025	22169
844.162	22074
844.298	22120
844.435	22128
844.571	22021
844.708	22025
844.844	22173
844.98	22192
845.117	22147
845.253	22017
845.389	21857
845.525	22010
845.661	22002
845.798	21808
845.934	21827
846.07	21739
846.206	21808
846.342	21842
846.478	21755
846.614	21648
846.75	21420
846.886	21469
847.022	21545
847.158	21641
847.294	21545
847.429	21644
847.565	21439
847.701	21713
847.837	21230
847.972	21127
848.108	21302
848.244	21256
848.379	21135
848.515	21093
848.65	21039
848.786	21017
848.921	21150
849.057	21154
849.192	21192
849.328	21138
849.463	21062
849.598	21077
849.734	21009
849.869	20956
850.004	20872
850.14	20819
850.275	20777
850.41	20788
850.545	20743
850.68	20765
850.815	20735
850.95	20750
851.085	20937
851.22	20735
851.355	20804
851.49	20849
851.625	20777
851.76	20701
851.895	20705
852.03	20632
852.165	20754
852.299	20796
852.434	20800
852.569	20781
852.703	20731
852.838	20864
852.973	20849
853.107	20876
853.242	20807
853.376	20689
853.511	20552
853.645	20579
853.78	20663
853.914	20655
854.048	20526
854.183	20434
854.317	20640
854.451	20796
854.585	20625
854.72	20564
854.854	20773
854.988	20495
855.122	20655
855.256	20533
855.39	20587
855.524	20587
855.658	20667
855.792	20564
855.926	20625
856.06	20621
856.194	20743
856.327	20461
856.461	20480
856.595	20602
856.729	20549
856.862	20701
856.996	20587
857.13	20678
857.263	20678
857.397	20632
857.53	20598
857.664	20705
857.797	20632
857.931	20655
858.064	20545
858.197	20545
858.331	20450
858.464	20499
858.597	20412
858.731	20632
858.864	20488
858.997	20431
859.13	20575
859.263	20651
859.396	20644
859.529	20522
859.662	20552
859.795	20530
859.928	20621
860.061	20583
860.194	20621
860.327	20537
860.46	20434
860.592	20533
860.725	20606
860.858	20632
860.99	20499
861.123	20427
861.256	20518
861.388	20415
861.521	21211
861.653	20385
861.786	20381
861.918	20377
862.05	20419
862.183	20598
862.315	20503
862.447	20632
862.58	20625
862.712	20275
862.844	20248
862.976	20366
863.108	20362
863.24	20708
863.372	20119
863.504	20225
863.636	20191
863.768	20191
863.9	20248
864.032	20088
864.164	20126
864.296	20046
864.428	20324
864.559	20195
864.691	20320
864.823	20225
864.954	20172
865.086	20301
865.217	20145
865.349	20161
865.48	20168
865.612	20096
865.743	20294
865.875	20206
866.006	20111
866.137	20149
866.269	20111
866.4	20081
866.531	19970
866.662	20008
866.793	20111
866.924	20054
867.055	20092
867.186	20100
867.317	20088
867.448	19875
867.579	20020
867.71	19883
867.841	19932
867.972	20062
868.103	20058
868.233	20031
868.364	20016
868.495	20168
868.625	20176
868.756	20438
868.886	20221
869.017	20206
869.147	20377
869.278	20393
869.408	20336
869.539	20244
869.669	20385
869.799	20252
869.929	20324
870.06	20259
870.19	20583
870.32	20537
870.45	20587
870.58	20716
870.71	20823
870.84	20811
870.97	20689
871.1	20648
871.23	20899
871.36	20887
871.489	20697
871.619	20906
871.749	20834
871.879	20914
872.008	20853
872.138	20921
872.267	20819
872.397	20769
872.526	20769
872.656	20613
872.785	20731
872.915	20800
873.044	20937
873.173	20891
873.303	21043
873.432	20971
873.561	20998
873.69	20948
873.819	20849
873.948	20998
874.077	20933
874.206	20929
874.335	20769
874.464	20906
874.593	21180
874.722	21032
874.851	21169
874.979	21192
875.108	21150
875.237	21112
875.365	20998
875.494	21116
875.623	21268
875.751	21112
875.88	21142
876.008	21302
876.136	21264
876.265	21587
876.393	21629
876.521	21629
876.65	21686
876.778	21561
876.906	21507
877.034	21454
877.162	21485
877.29	21351
877.418	21496
877.546	21523
877.674	21485
877.802	21572
877.93	21496
878.058	21500
878.185	21431
878.313	21405
878.441	21534
878.568	21317
878.696	21397
878.824	21511
878.951	21564
879.079	21561
879.206	21778
879.333	21568
879.461	21603
879.588	21534
879.715	21751
879.842	21751
879.97	21545
880.097	21272
880.224	21272
880.351	21283
880.478	21348
880.605	21313
880.732	21325
880.859	21568
880.986	21397
881.112	21294
881.239	21173
881.366	20960
881.493	20994
881.619	20887
881.746	20887
881.872	20872
881.999	20830
882.125	20868
882.252	20929
882.378	20979
882.505	20982
882.631	20872
882.757	20613
882.883	20750
883.01	20587
883.136	20499
883.262	20522
883.388	20484
883.514	20629
883.64	20682
883.766	20617
883.892	20404
884.018	20549
884.143	20678
884.269	20701
884.395	20412
884.52	20248
884.646	20385
884.772	20267
884.897	20103
885.023	20355
885.148	20427
885.274	20431
885.399	20396
885.524	20336
885.65	20282
885.775	20355
885.9	20210
886.025	20503
886.15	20419
886.275	20320
886.4	20122
886.525	20305
886.65	20199
886.775	20153
886.9	20301
887.025	20533
887.149	20278
887.274	20050
887.399	20050
887.523	20092
887.648	20024
887.773	20008
887.897	20035
888.021	20088
888.146	19940
888.27	20062
888.395	20088
888.519	20092
888.643	20134
888.767	20077
888.891	19909
889.015	19841
889.139	19936
889.263	19712
889.387	19871
889.511	20027
889.635	20008
889.759	19738
889.883	19799
890.006	19811
890.13	19925
890.254	19677
890.377	19712
890.501	19628
890.624	19472
890.748	19715
890.871	19525
890.995	19369
891.118	19369
891.241	19441
891.364	19396
891.488	19514
891.611	19384
891.734	19449
891.857	19358
891.98	19457
892.103	19556
892.226	19411
892.349	19221
892.471	19278
892.594	19407
892.717	19400
892.839	19244
892.962	19327
893.085	19415
893.207	19251
893.33	19164
893.452	19244
893.575	19324
893.697	19403
893.819	19518
893.941	19586
894.064	19590
894.186	19148
894.308	19240
894.43	19369
894.552	19548
894.674	19346
894.796	19221
894.918	19304
895.04	19343
895.161	19396
895.283	19350
895.405	19331
895.526	19377
895.648	19217
895.769	19388
895.891	19320
896.012	19373
896.134	19403
896.255	19407
896.376	19263
896.498	19407
896.619	19316
896.74	19411
896.861	19343
896.982	19647
897.103	19837
897.224	19807
897.345	19590
897.466	19575
897.587	19605
897.708	19723
897.828	19609
897.949	19525
898.07	19430
898.19	19556
898.311	19723
898.431	19533
898.552	19510
898.672	19658
898.792	19613
898.913	19548
899.033	19445
899.153	19308
899.273	19217
899.393	19221
899.513	19358
899.633	19221
899.753	19304
899.873	19206
899.993	19308
900.113	19179
900.232	19209
900.352	19171
900.472	19244
900.591	19000
900.711	19240
900.83	19084
900.95	19232
901.069	19228
901.189	19042
901.308	18852
901.427	18814
901.546	18757
901.665	18646
901.784	18738
901.904	18574
902.023	18547
902.141	18289
902.26	18254
902.379	18285
902.498	18091
902.617	18106
902.735	18186
902.854	18152
902.973	18232
903.091	17828
903.21	17923
903.328	17771
903.446	17802
903.565	17596
903.683	17764
903.801	17611
903.919	17642
904.038	17630
904.156	17379
904.274	17577
904.392	17463
904.51	17433
904.627	17410
904.745	17459
904.863	17539
904.981	17246
905.098	16938
905.216	17083
905.334	17147
905.451	17136
905.569	17067
905.686	17155
905.803	17037
905.921	16889
906.038	17048
906.155	16999
906.272	16805
906.389	16793
906.506	16721
906.623	16771
906.74	16664
906.857	16512
906.974	16550
907.091	16664
907.208	16820
907.324	16630
907.441	16542
907.557	16466
907.674	16337
907.79	16234
907.907	16356
908.023	16360
908.139	16287
908.256	16249
908.372	16162
908.488	16177
908.604	16078
908.72	16017
908.836	16105
908.952	16051
909.068	16093
909.184	16097
909.3	16010
909.415	16090
909.531	16105
909.647	15797
909.762	15759
909.878	15728
909.993	15751
910.108	15804
910.224	15690
910.339	15747
910.454	15656
910.57	15549
910.685	15500
910.8	15770
910.915	15789
911.03	15542
911.145	15313
911.259	15302
911.374	15268
911.489	15294
911.604	15230
911.718	15062
911.833	14944
911.947	14990
912.062	14880
912.176	15005
912.291	15180
912.405	15081
912.519	15188
912.633	15195
912.748	15127
912.862	15070
912.976	14918
913.09	14800
913.204	14849
913.318	14941
913.431	15009
913.545	14921
913.659	14960
913.772	14906
913.886	14750
914	14739
914.113	14819
914.226	14933
914.34	14769
914.453	14556
914.566	14811
914.68	14610
914.793	14613
914.906	14438
915.019	14305
915.132	14358
915.245	14313
915.358	14286
915.47	14324
915.583	14343
915.696	14431
915.809	14522
915.921	14545
916.034	14290
916.146	14275
916.259	14248
916.371	14301
916.483	14263
916.595	14225
916.708	14256
916.82	14123
916.932	14081
917.044	14077
917.156	14081
917.268	13940
917.38	14123
917.491	13997
917.603	14024
917.715	14043
917.826	14096
917.938	13982
918.049	13849
918.161	14005
918.272	14043
918.384	14065
918.495	13959
918.606	13818
918.717	13738
918.828	13811
918.939	13826
919.05	13704
919.161	13700
919.272	13571
919.383	13628
919.494	13906
919.604	13963
919.715	13742
919.826	13731
919.936	13632
920.047	13833
920.157	13696
920.267	13894
920.378	13753
920.488	13803
920.598	13871
920.708	14005
920.818	13807
920.928	13909
921.038	13989
921.148	13989
921.258	13647
921.368	13502
921.477	13537
921.587	13411
921.697	13312
921.806	13502
921.916	13293
922.025	13221
922.134	13122
922.244	13164
922.353	13152
922.462	13012
922.571	12913
922.68	12840
922.789	12700
922.898	12802
923.007	12711
923.116	12719
923.224	12688
923.333	12707
923.442	12563
923.55	12540
923.659	12578
923.767	12677
923.876	12566
923.984	12604
924.092	12517
924.201	12563
924.309	12494
924.417	12528
924.525	12388
924.633	12540
924.741	13228
924.849	12304
924.956	12258
925.064	12289
925.172	12095
925.279	12247
925.387	12304
925.494	12281
925.602	12441
925.709	12292
925.816	12144
925.924	12319
926.031	12190
926.138	12175
926.245	12163
926.352	12060
926.459	12258
926.566	12277
926.673	12076
926.779	11961
926.886	11988
926.993	11870
927.099	11817
927.206	11657
927.312	11786
927.419	11946
927.525	11790
927.631	11832
927.737	11672
927.843	11615
927.95	11535
928.056	11634
928.162	11665
928.267	11707
928.373	12186
928.479	11676
928.585	11497
928.69	11627
928.796	11619
928.901	11440
929.007	11398
929.112	11497
929.218	11490
929.323	11425
929.428	11345
929.533	11455
929.638	11288
929.743	11391
929.848	11356
929.953	11376
930.058	11223
930.163	11075
930.267	11045
930.372	11239
930.477	11022
930.581	11296
930.685	11181
930.79	10995
930.894	10934
930.998	10968
931.103	11075
931.207	10645
931.311	10679
931.415	10618
931.519	10402
931.623	10337
