Data from test_V78500241_152.txt Node
Date: Fri Mar 25 15:10:55 CST 2022
User: usil
Spectrometer: V785-0024
Trigger mode: 0
Integration Time (sec): 4.000000E-1
Scans to average: 1
Nonlinearity correction enabled: false
Boxcar width: 0
Storing dark spectrum: false
XAxis mode: Wavelengths
Number of Pixels in Spectrum: 1024
>>>>>Begin Spectral Data<<<<<
801.071	27983
801.214	27949
801.356	27698
801.499	27686
801.641	27572
801.783	27591
801.926	27557
802.068	27561
802.211	27447
802.353	27367
802.496	27332
802.638	27096
802.78	27096
802.923	27058
803.065	27112
803.208	27093
803.35	27100
803.492	27157
803.635	27283
803.777	27096
803.919	27279
804.061	27542
804.204	27268
804.346	27131
804.488	27001
804.63	27199
804.773	27085
804.915	27116
805.057	27275
805.199	27142
805.341	27066
805.483	27344
805.626	27272
805.768	27291
805.91	27180
806.052	27252
806.194	27211
806.336	27439
806.478	27245
806.62	27374
806.762	27431
806.904	27435
807.046	27709
807.188	27641
807.33	27614
807.472	27724
807.614	27561
807.756	27682
807.898	27492
808.04	27447
808.182	27538
808.324	27427
808.465	27496
808.607	27637
808.749	27698
808.891	27861
809.033	28093
809.174	27930
809.316	27732
809.458	27747
809.6	27652
809.741	27759
809.883	27895
810.025	27911
810.166	28067
810.308	28067
810.45	27949
810.591	27914
810.733	27660
810.875	27755
811.016	27614
811.158	27720
811.299	27709
811.441	27991
811.582	27816
811.724	27694
811.865	27614
812.007	27724
812.148	27793
812.29	27842
812.431	27941
812.573	28055
812.714	28097
812.855	28253
812.997	28249
813.138	28580
813.279	28348
813.421	28124
813.562	28318
813.703	28044
813.845	27922
813.986	27587
814.127	27526
814.268	27420
814.41	27298
814.551	27386
814.692	27382
814.833	27325
814.974	27268
815.115	27325
815.256	27192
815.397	27165
815.539	27192
815.68	27077
815.821	27039
815.962	27074
816.103	27089
816.244	26967
816.385	26880
816.526	26792
816.666	26678
816.807	26564
816.948	26590
817.089	26549
817.23	26571
817.371	26625
817.512	26465
817.653	26511
817.793	26480
817.934	26590
818.075	26446
818.216	26556
818.356	26404
818.497	26358
818.638	26161
818.778	26161
818.919	26168
819.06	26233
819.2	26355
819.341	26400
819.481	26442
819.622	26552
819.762	26758
819.903	26686
820.043	26583
820.184	26469
820.324	26511
820.465	26594
820.605	26385
820.746	26552
820.886	26355
821.026	26530
821.167	26549
821.307	26590
821.447	26415
821.588	26210
821.728	26294
821.868	26081
822.008	25723
822.149	25822
822.289	25864
822.429	25594
822.569	25567
822.709	25476
822.849	25453
822.99	25285
823.13	25331
823.27	25255
823.41	25225
823.55	25038
823.69	25198
823.83	25171
823.97	25209
824.11	24939
824.25	25042
824.389	24981
824.529	25076
824.669	24916
824.809	24909
824.949	25126
825.089	24932
825.228	25046
825.368	24916
825.508	24707
825.648	24768
825.787	24856
825.927	24825
826.067	24711
826.206	24631
826.346	24768
826.485	24730
826.625	24745
826.765	24905
826.904	24837
827.044	24433
827.183	24498
827.323	24448
827.462	24498
827.601	24490
827.741	24342
827.88	24490
828.02	24380
828.159	24327
828.298	24426
828.437	24555
828.577	24407
828.716	24525
828.855	24251
828.994	24121
829.134	24167
829.273	24155
829.412	24049
829.551	24148
829.69	24098
829.829	24232
829.968	24277
830.107	24144
830.246	24174
830.385	24079
830.524	24041
830.663	23980
830.802	23863
830.941	23756
831.08	23505
831.219	23630
831.357	23733
831.496	23828
831.635	23512
831.774	23684
831.913	23585
832.051	23531
832.19	23444
832.329	23596
832.467	23501
832.606	23448
832.744	23299
832.883	23239
833.022	23356
833.16	23372
833.299	23471
833.437	23296
833.576	23334
833.714	23448
833.852	23490
833.991	23455
834.129	23459
834.267	23360
834.406	23425
834.544	23269
834.682	23376
834.821	23277
834.959	23482
835.097	23185
835.235	23410
835.373	23204
835.511	23303
835.65	23143
835.788	23265
835.926	23098
836.064	22930
836.202	23037
836.34	23197
836.478	23197
836.615	23014
836.753	23220
836.891	23406
837.029	23254
837.167	23025
837.305	23010
837.443	23079
837.58	23022
837.718	23037
837.856	23083
837.993	22991
838.131	22892
838.269	22812
838.406	23067
838.544	22843
838.681	22717
838.819	22752
838.956	22542
839.094	22485
839.231	22508
839.369	22691
839.506	22759
839.643	22755
839.781	22455
839.918	22402
840.055	22432
840.193	22398
840.33	22253
840.467	22432
840.604	22421
840.742	22588
840.879	22261
841.016	22261
841.153	22242
841.29	22432
841.427	22356
841.564	22394
841.701	22333
841.838	22318
841.975	22284
842.112	22207
842.249	22211
842.385	22002
842.522	22265
842.659	22188
842.796	21975
842.933	22128
843.069	22021
843.206	22010
843.343	22253
843.479	22048
843.616	22048
843.752	21975
843.889	21827
844.025	21956
844.162	21831
844.298	21808
844.435	21724
844.571	21842
844.708	21835
844.844	21972
844.98	21987
845.117	21964
845.253	21755
845.389	21717
845.525	21793
845.661	21720
845.798	21641
845.934	21519
846.07	21633
846.206	21496
846.342	21603
846.478	21564
846.614	21344
846.75	21203
846.886	21142
847.022	21439
847.158	21370
847.294	21374
847.429	21401
847.565	21264
847.701	21523
847.837	20941
847.972	20986
848.108	21104
848.244	21062
848.379	20921
848.515	20918
848.65	20834
848.786	20872
848.921	20815
849.057	20956
849.192	20967
849.328	20868
849.463	20891
849.598	20819
849.734	20758
849.869	20625
850.004	20636
850.14	20545
850.275	20598
850.41	20484
850.545	20590
850.68	20537
850.815	20659
850.95	20629
851.085	20625
851.22	20762
851.355	20568
851.49	20617
851.625	20564
851.76	20552
851.895	20454
852.03	20465
852.165	20556
852.299	20552
852.434	20613
852.569	20537
852.703	20511
852.838	20579
852.973	20708
853.107	20613
853.242	20590
853.376	20427
853.511	20244
853.645	20404
853.78	20545
853.914	20374
854.048	20358
854.183	20404
854.317	20434
854.451	20590
854.585	20377
854.72	20332
854.854	20412
854.988	20259
855.122	20267
855.256	20294
855.39	20412
855.524	20575
855.658	20408
855.792	20480
855.926	20362
856.06	20465
856.194	20480
856.327	20446
856.461	20358
856.595	20271
856.729	20332
856.862	20438
856.996	20473
857.13	20480
857.263	20488
857.397	20552
857.53	20324
857.664	20366
857.797	20412
857.931	20423
858.064	20278
858.197	20290
858.331	20366
858.464	20332
858.597	20317
858.731	20301
858.864	20229
858.997	20278
859.13	20294
859.263	20377
859.396	20427
859.529	20278
859.662	20343
859.795	20263
859.928	20370
860.061	20434
860.194	20545
860.327	20408
860.46	20309
860.592	20476
860.725	20446
860.858	20385
860.99	20187
861.123	20214
861.256	20286
861.388	20396
861.521	21005
861.653	20282
861.786	20157
861.918	20206
862.05	20275
862.183	20324
862.315	20313
862.447	20434
862.58	20385
862.712	20138
862.844	20039
862.976	20157
863.108	20122
863.24	20408
863.372	19932
863.504	20134
863.636	20054
863.768	20046
863.9	20138
864.032	19928
864.164	19928
864.296	20039
864.428	20084
864.559	20081
864.691	20103
864.823	20062
864.954	20043
865.086	19959
865.217	20027
865.349	19940
865.48	19879
865.612	19894
865.743	20081
865.875	19902
866.006	19883
866.137	20081
866.269	20043
866.4	19860
866.531	19925
866.662	19784
866.793	19913
866.924	19799
867.055	19944
867.186	19913
867.317	19818
867.448	19746
867.579	19902
867.71	19753
867.841	19803
867.972	19925
868.103	19791
868.233	19784
868.364	19940
868.495	20001
868.625	20012
868.756	20176
868.886	19955
869.017	20020
869.147	20240
869.278	20202
869.408	20199
869.539	20043
869.669	20164
869.799	20218
869.929	20237
870.06	20183
870.19	20461
870.32	20419
870.45	20454
870.58	20545
870.71	20617
870.84	20587
870.97	20461
871.1	20503
871.23	20644
871.36	20750
871.489	20465
871.619	20804
871.749	20765
871.879	20777
872.008	20754
872.138	20750
872.267	20762
872.397	20594
872.526	20526
872.656	20583
872.785	20594
872.915	20629
873.044	20788
873.173	20758
873.303	20773
873.432	20781
873.561	20811
873.69	20811
873.819	20682
873.948	20830
874.077	20727
874.206	20648
874.335	20853
874.464	20883
874.593	20944
874.722	20864
874.851	21100
874.979	20994
875.108	21074
875.237	21043
875.365	20902
875.494	20842
875.623	21058
875.751	21020
875.88	20933
876.008	21131
876.136	21211
876.265	21279
876.393	21458
876.521	21443
876.65	21401
876.778	21477
876.906	21374
877.034	21317
877.162	21283
877.29	21268
877.418	21405
877.546	21203
877.674	21420
877.802	21317
877.93	21310
878.058	21222
878.185	21226
878.313	21275
878.441	21188
878.568	21226
878.696	21317
878.824	21378
878.951	21466
879.079	21526
879.206	21694
879.333	21450
879.461	21359
879.588	21420
879.715	21443
879.842	21610
879.97	21530
880.097	21207
880.224	21119
880.351	21287
880.478	21100
880.605	21013
880.732	21135
880.859	21310
880.986	21207
881.112	21192
881.239	21062
881.366	20937
881.493	20906
881.619	20807
881.746	20754
881.872	20792
881.999	20727
882.125	20701
882.252	20792
882.378	20720
882.505	20788
882.631	20636
882.757	20495
882.883	20503
883.01	20556
883.136	20438
883.262	20381
883.388	20370
883.514	20431
883.64	20606
883.766	20427
883.892	20240
884.018	20393
884.143	20450
884.269	20621
884.395	20191
884.52	20100
884.646	20092
884.772	19974
884.897	19978
885.023	20103
885.148	20180
885.274	20244
885.399	20317
885.524	20142
885.65	20145
885.775	20092
885.9	19947
886.025	20153
886.15	20210
886.275	19982
886.4	20020
886.525	20043
886.65	20103
886.775	20031
886.9	20206
887.025	20290
887.149	20069
887.274	19883
887.399	19883
887.523	19811
887.648	19868
887.773	19799
887.897	19921
888.021	19917
888.146	19871
888.27	19925
888.395	19955
888.519	19928
888.643	19917
888.767	19921
888.891	19784
889.015	19578
889.139	19791
889.263	19620
889.387	19909
889.511	19894
889.635	19814
889.759	19613
889.883	19655
890.006	19620
890.13	19674
890.254	19582
890.377	19647
890.501	19396
890.624	19449
890.748	19400
890.871	19304
890.995	19187
891.118	19118
891.241	19301
891.364	19289
891.488	19343
891.611	19160
891.734	19240
891.857	19308
891.98	19419
892.103	19320
892.226	19251
892.349	19209
892.471	19114
892.594	19069
892.717	19358
892.839	19137
892.962	19244
893.085	19365
893.207	19194
893.33	18985
893.452	19034
893.575	19274
893.697	19057
893.819	19320
893.941	19282
894.064	19297
894.186	19114
894.308	19038
894.43	19259
894.552	19350
894.674	19187
894.796	19088
894.918	19171
895.04	19187
895.161	19228
895.283	19145
895.405	19141
895.526	19103
895.648	19236
895.769	19365
895.891	19198
896.012	19278
896.134	19289
896.255	19103
896.376	19232
896.498	19247
896.619	19228
896.74	19255
896.861	19285
896.982	19559
897.103	19833
897.224	19464
897.345	19453
897.466	19422
897.587	19339
897.708	19693
897.828	19453
897.949	19415
898.07	19396
898.19	19346
898.311	19384
898.431	19358
898.552	19426
898.672	19396
898.792	19514
898.913	19464
899.033	19312
899.153	19278
899.273	19061
899.393	19145
899.513	19168
899.633	19289
899.753	19206
899.873	19179
899.993	19198
900.113	19221
900.232	19107
900.352	19171
900.472	19050
900.591	19000
900.711	19072
900.83	18932
900.95	18973
901.069	19038
901.189	18932
901.308	18749
901.427	18623
901.546	18422
901.665	18555
901.784	18574
901.904	18391
902.023	18296
902.141	18076
902.26	18079
902.379	18163
902.498	18117
902.617	18087
902.735	18026
902.854	18053
902.973	18003
903.091	17710
903.21	17653
903.328	17813
903.446	17695
903.565	17600
903.683	17577
903.801	17467
903.919	17516
904.038	17509
904.156	17376
904.274	17459
904.392	17280
904.51	17303
904.627	17315
904.745	17353
904.863	17372
904.981	17090
905.098	16930
905.216	16991
905.334	17060
905.451	17018
905.569	16972
905.686	17029
905.803	17045
905.921	16805
906.038	16873
906.155	16824
906.272	16618
906.389	16660
906.506	16599
906.623	16481
906.74	16611
906.857	16390
906.974	16363
907.091	16618
907.208	16656
907.324	16592
907.441	16527
907.557	16185
907.674	16265
907.79	16177
907.907	16211
908.023	16215
908.139	16310
908.256	16188
908.372	16032
908.488	16051
908.604	15991
908.72	15949
908.836	15983
908.952	15873
909.068	15991
909.184	15972
909.3	15926
909.415	15907
909.531	15926
909.647	15660
909.762	15759
909.878	15576
909.993	15652
910.108	15660
910.224	15557
910.339	15675
910.454	15587
910.57	15496
910.685	15370
910.8	15739
910.915	15557
911.03	15370
911.145	15291
911.259	15260
911.374	15260
911.489	15142
911.604	15116
911.718	15001
911.833	15062
911.947	15013
912.062	14933
912.176	14967
912.291	15024
912.405	15020
912.519	15104
912.633	15165
912.748	14979
912.862	14956
912.976	14834
913.09	14579
913.204	14720
913.318	14864
913.431	14880
913.545	14895
913.659	14880
913.772	14724
913.886	14594
914	14663
914.113	14705
914.226	14674
914.34	14674
914.453	14583
914.566	14705
914.68	14552
914.793	14473
914.906	14366
915.019	14199
915.132	14161
915.245	14126
915.358	14358
915.47	14298
915.583	14355
915.696	14404
915.809	14393
915.921	14324
916.034	14180
916.146	14183
916.259	14138
916.371	14237
916.483	14259
916.595	14225
916.708	14115
916.82	14092
916.932	14065
917.044	14081
917.156	13989
917.268	13951
917.38	13913
917.491	13883
917.603	14012
917.715	13997
917.826	14020
917.938	13818
918.049	13799
918.161	13871
918.272	14081
918.384	14016
918.495	13898
918.606	13715
918.717	13677
918.828	13761
918.939	13803
919.05	13658
919.161	13666
919.272	13521
919.383	13597
919.494	13700
919.604	13913
919.715	13696
919.826	13575
919.936	13601
920.047	13757
920.157	13693
920.267	13807
920.378	13685
920.488	13575
920.598	13898
920.708	13974
920.818	13814
920.928	13776
921.038	13963
921.148	13871
921.258	13662
921.368	13506
921.477	13426
921.587	13464
921.697	13301
921.806	13381
921.916	13255
922.025	13183
922.134	13061
922.244	12962
922.353	13095
922.462	13000
922.571	12890
922.68	12719
922.789	12719
922.898	12677
923.007	12601
923.116	12707
923.224	12673
923.333	12753
923.442	12593
923.55	12513
923.659	12494
923.767	12589
923.876	12490
923.984	12570
924.092	12441
924.201	12521
924.309	12513
924.417	12464
924.525	12399
924.633	12483
924.741	13095
924.849	12220
924.956	12422
925.064	12277
925.172	12106
925.279	12209
925.387	12197
925.494	12247
925.602	12330
925.709	12190
925.816	12102
925.924	12140
926.031	12159
926.138	12148
926.245	12224
926.352	12057
926.459	12167
926.566	12258
926.673	11984
926.779	12034
926.886	11969
926.993	11798
927.099	11707
927.206	11733
927.312	11680
927.419	11714
927.525	11714
927.631	11764
927.737	11653
927.843	11646
927.95	11558
928.056	11577
928.162	11653
928.267	11649
928.373	12220
928.479	11707
928.585	11493
928.69	11554
928.796	11623
928.901	11417
929.007	11307
929.112	11391
929.218	11444
929.323	11372
929.428	11356
929.533	11566
929.638	11311
929.743	11337
929.848	11330
929.953	11296
930.058	11086
930.163	11071
930.267	11060
930.372	11231
930.477	11029
930.581	11231
930.685	11067
930.79	10896
930.894	11025
930.998	10923
931.103	10991
931.207	10729
931.311	10618
931.415	10493
931.519	10306
931.623	10314
