Data from test_V78500241_633.txt Node
Date: Fri Mar 25 15:14:16 CST 2022
User: usil
Spectrometer: V785-0024
Trigger mode: 0
Integration Time (sec): 4.000000E-1
Scans to average: 1
Nonlinearity correction enabled: false
Boxcar width: 0
Storing dark spectrum: false
XAxis mode: Wavelengths
Number of Pixels in Spectrum: 1024
>>>>>Begin Spectral Data<<<<<
801.071	27511
801.214	27473
801.356	27424
801.499	27389
801.641	27233
801.783	27161
801.926	27359
802.068	27119
802.211	27024
802.353	27074
802.496	26792
802.638	26838
802.78	26807
802.923	26876
803.065	26746
803.208	26819
803.35	26834
803.492	26940
803.635	26975
803.777	26944
803.919	26891
804.061	27237
804.204	26986
804.346	26948
804.488	26899
804.63	26944
804.773	26815
804.915	27104
805.057	27074
805.199	27123
805.341	27013
805.483	27142
805.626	27096
805.768	27112
805.91	27077
806.052	27108
806.194	27009
806.336	27264
806.478	27256
806.62	27256
806.762	27279
806.904	27393
807.046	27625
807.188	27515
807.33	27443
807.472	27667
807.614	27374
807.756	27583
807.898	27408
808.04	27367
808.182	27275
808.324	27389
808.465	27389
808.607	27439
808.749	27755
808.891	27785
809.033	28002
809.174	27770
809.316	27800
809.458	27827
809.6	27835
809.741	27827
809.883	27934
810.025	28131
810.166	27926
810.308	28044
810.45	28036
810.591	27983
810.733	27907
810.875	27739
811.016	27606
811.158	27785
811.299	27823
811.441	27850
811.582	27888
811.724	27644
811.865	27717
812.007	27846
812.148	27785
812.29	27846
812.431	27964
812.573	28139
812.714	28272
812.855	28265
812.997	28371
813.138	28641
813.279	28424
813.421	28455
813.562	28284
813.703	28131
813.845	27880
813.986	27622
814.127	27705
814.268	27405
814.41	27302
814.551	27473
814.692	27538
814.833	27568
814.974	27203
815.115	27538
815.256	27351
815.397	27397
815.539	27351
815.68	27272
815.821	27100
815.962	27294
816.103	27176
816.244	26986
816.385	27066
816.526	26990
816.666	26834
816.807	26754
816.948	26731
817.089	26868
817.23	26834
817.371	26735
817.512	26739
817.653	26682
817.793	26686
817.934	26785
818.075	26507
818.216	26739
818.356	26773
818.497	26507
818.638	26465
818.778	26370
818.919	26427
819.06	26568
819.2	26667
819.341	26727
819.481	26632
819.622	26868
819.762	27211
819.903	26982
820.043	26918
820.184	26899
820.324	26864
820.465	26960
820.605	26739
820.746	26773
820.886	26746
821.026	26826
821.167	26762
821.307	26834
821.447	26670
821.588	26606
821.728	26556
821.868	26324
822.008	26298
822.149	26176
822.289	26138
822.429	25989
822.569	25841
822.709	25814
822.849	25841
822.99	25757
823.13	25696
823.27	25578
823.41	25362
823.55	25365
823.69	25479
823.83	25472
823.97	25460
824.11	25320
824.25	25148
824.389	25354
824.529	25457
824.669	25339
824.809	25502
824.949	25453
825.089	25388
825.228	25388
825.368	25240
825.508	25293
825.648	25236
825.787	25206
825.927	25217
826.067	25183
826.206	25259
826.346	25308
826.485	25251
826.625	25187
826.765	25316
826.904	25213
827.044	25004
827.183	24970
827.323	24890
827.462	24962
827.601	24935
827.741	24852
827.88	24901
828.02	24844
828.159	24871
828.298	24875
828.437	25000
828.577	24996
828.716	25050
828.855	24977
828.994	24684
829.134	24661
829.273	24635
829.412	24654
829.551	24589
829.69	24646
829.829	24528
829.968	24673
830.107	24703
830.246	24578
830.385	24551
830.524	24483
830.663	24414
830.802	24448
830.941	24308
831.08	24171
831.219	24300
831.357	24365
831.496	24467
831.635	24311
831.774	24171
831.913	24155
832.051	24060
832.19	23961
832.329	24209
832.467	23969
832.606	23802
832.744	23912
832.883	23927
833.022	23946
833.16	24034
833.299	24087
833.437	24129
833.576	23954
833.714	24022
833.852	24083
833.991	24045
834.129	24022
834.267	23996
834.406	23904
834.544	24087
834.682	23912
834.821	23992
834.959	24060
835.097	23885
835.235	24007
835.373	23946
835.511	23954
835.65	23741
835.788	23786
835.926	23653
836.064	23646
836.202	23642
836.34	23885
836.478	23908
836.615	23931
836.753	23840
836.891	23764
837.029	23885
837.167	23707
837.305	23809
837.443	23676
837.58	23630
837.718	23649
837.856	23615
837.993	23695
838.131	23581
838.269	23608
838.406	23429
838.544	23501
838.681	23292
838.819	23341
838.956	23079
839.094	23105
839.231	23174
839.369	23383
839.506	23592
839.643	23463
839.781	23155
839.918	23102
840.055	23151
840.193	22980
840.33	23147
840.467	23151
840.604	23090
840.742	23261
840.879	22927
841.016	23052
841.153	22889
841.29	23079
841.427	22949
841.564	23075
841.701	23029
841.838	22953
841.975	22900
842.112	22911
842.249	22885
842.385	22839
842.522	22984
842.659	22850
842.796	22752
842.933	22839
843.069	22843
843.206	22763
843.343	22938
843.479	22755
843.616	22778
843.752	22611
843.889	22557
844.025	22736
844.162	22592
844.298	22622
844.435	22478
844.571	22542
844.708	22672
844.844	22694
844.98	22733
845.117	22710
845.253	22588
845.389	22436
845.525	22478
845.661	22470
845.798	22379
845.934	22390
846.07	22242
846.206	22211
846.342	22379
846.478	22375
846.614	22131
846.75	22029
846.886	21968
847.022	22147
847.158	22025
847.294	22135
847.429	21975
847.565	22010
847.701	22318
847.837	21800
847.972	21861
848.108	21934
848.244	21918
848.379	21732
848.515	21606
848.65	21538
848.786	21633
848.921	21728
849.057	21709
849.192	21705
849.328	21698
849.463	21523
849.598	21599
849.734	21576
849.869	21481
850.004	21450
850.14	21420
850.275	21458
850.41	21439
850.545	21397
850.68	21401
850.815	21530
850.95	21397
851.085	21492
851.22	21519
851.355	21420
851.49	21447
851.625	21340
851.76	21416
851.895	21237
852.03	21256
852.165	21435
852.299	21496
852.434	21526
852.569	21416
852.703	21336
852.838	21523
852.973	21504
853.107	21450
853.242	21203
853.376	21203
853.511	21180
853.645	21165
853.78	21363
853.914	21188
854.048	21214
854.183	21275
854.317	21169
854.451	21515
854.585	21108
854.72	21340
854.854	21260
854.988	21173
855.122	21161
855.256	21085
855.39	21154
855.524	21310
855.658	21214
855.792	21325
855.926	21279
856.06	21184
856.194	21272
856.327	21161
856.461	21188
856.595	21123
856.729	21237
856.862	21355
856.996	21226
857.13	21214
857.263	21386
857.397	21317
857.53	21226
857.664	21294
857.797	21359
857.931	21291
858.064	21203
858.197	21355
858.331	21249
858.464	21165
858.597	21127
858.731	21169
858.864	21169
858.997	21165
859.13	21214
859.263	21245
859.396	21443
859.529	21260
859.662	21256
859.795	21123
859.928	21146
860.061	21378
860.194	21443
860.327	21203
860.46	21359
860.592	21454
860.725	21298
860.858	21363
860.99	21176
861.123	21085
861.256	21237
861.388	21214
861.521	22082
861.653	21066
861.786	21085
861.918	21150
862.05	21074
862.183	21024
862.315	21165
862.447	21214
862.58	21036
862.712	21043
862.844	20906
862.976	20960
863.108	20960
863.24	21374
863.372	20914
863.504	20960
863.636	20921
863.768	20902
863.9	21032
864.032	20914
864.164	20895
864.296	20845
864.428	20956
864.559	20994
864.691	21047
864.823	20994
864.954	20967
865.086	20918
865.217	20902
865.349	20735
865.48	20838
865.612	20868
865.743	20921
865.875	20990
866.006	20815
866.137	20773
866.269	20910
866.4	20792
866.531	20838
866.662	20754
866.793	20765
866.924	20731
867.055	20952
867.186	20686
867.317	20834
867.448	20796
867.579	20765
867.71	20758
867.841	20590
867.972	20758
868.103	20819
868.233	20868
868.364	20807
868.495	20811
868.625	21005
868.756	21173
868.886	20842
869.017	20933
869.147	21039
869.278	21237
869.408	20979
869.539	20941
869.669	21020
869.799	21070
869.929	21077
870.06	21093
870.19	21260
870.32	21317
870.45	21294
870.58	21397
870.71	21481
870.84	21469
870.97	21363
871.1	21431
871.23	21610
871.36	21576
871.489	21526
871.619	21534
871.749	21488
871.879	21759
872.008	21713
872.138	21549
872.267	21648
872.397	21538
872.526	21428
872.656	21370
872.785	21439
872.915	21622
873.044	21743
873.173	21515
873.303	21644
873.432	21755
873.561	21701
873.69	21713
873.819	21542
873.948	21622
874.077	21622
874.206	21481
874.335	21572
874.464	21793
874.593	21888
874.722	21743
874.851	21888
874.979	21895
875.108	22010
875.237	21816
875.365	21724
875.494	21861
875.623	21949
875.751	21892
875.88	21827
876.008	21983
876.136	22021
876.265	22287
876.393	22310
876.521	22276
876.65	22261
876.778	22196
876.906	22268
877.034	22124
877.162	22185
877.29	22204
877.418	22185
877.546	22226
877.674	22112
877.802	22261
877.93	22196
878.058	22128
878.185	22021
878.313	22188
878.441	22147
878.568	22044
878.696	22067
878.824	22226
878.951	22299
879.079	22394
879.206	22470
879.333	22318
879.461	22185
879.588	22253
879.715	22371
879.842	22485
879.97	22246
880.097	22059
880.224	21983
880.351	22105
880.478	21945
880.605	22074
880.732	21983
880.859	22204
880.986	21926
881.112	21972
881.239	21861
881.366	21717
881.493	21766
881.619	21656
881.746	21728
881.872	21561
881.999	21698
882.125	21587
882.252	21690
882.378	21576
882.505	21751
882.631	21500
882.757	21256
882.883	21386
883.01	21340
883.136	21199
883.262	21192
883.388	21112
883.514	21268
883.64	21348
883.766	21173
883.892	21051
884.018	21047
884.143	21291
884.269	21416
884.395	20952
884.52	20891
884.646	20918
884.772	20948
884.897	20777
885.023	20925
885.148	21066
885.274	21104
885.399	20941
885.524	20883
885.65	20952
885.775	21074
885.9	20948
886.025	21001
886.15	21017
886.275	20910
886.4	20735
886.525	20804
886.65	20845
886.775	20826
886.9	21058
887.025	21195
887.149	20895
887.274	20823
887.399	20800
887.523	20720
887.648	20629
887.773	20640
887.897	20861
888.021	20815
888.146	20670
888.27	20842
888.395	20845
888.519	20708
888.643	20682
888.767	20727
888.891	20708
889.015	20522
889.139	20499
889.263	20480
889.387	20640
889.511	20629
889.635	20750
889.759	20495
889.883	20412
890.006	20423
890.13	20480
890.254	20457
890.377	20431
890.501	20317
890.624	20244
890.748	20313
890.871	20176
890.995	20001
891.118	20062
891.241	20035
891.364	20065
891.488	20221
891.611	20088
891.734	20054
891.857	20210
891.98	20100
892.103	20065
892.226	20065
892.349	19982
892.471	19849
892.594	20062
892.717	19993
892.839	20001
892.962	20084
893.085	19978
893.207	19970
893.33	19921
893.452	19940
893.575	20005
893.697	20069
893.819	20138
893.941	20214
894.064	20115
894.186	19932
894.308	19894
894.43	20077
894.552	20107
894.674	20077
894.796	19989
894.918	19947
895.04	20001
895.161	20008
895.283	20046
895.405	19784
895.526	20035
895.648	19921
895.769	19982
895.891	20024
896.012	20164
896.134	19928
896.255	20043
896.376	19936
896.498	19917
896.619	19993
896.74	19970
896.861	20050
896.982	20286
897.103	20446
897.224	20343
897.345	20248
897.466	20191
897.587	20176
897.708	20328
897.828	20199
897.949	20168
898.07	20050
898.19	20126
898.311	20214
898.431	20149
898.552	20248
898.672	20275
898.792	20263
898.913	20263
899.033	20180
899.153	19947
899.273	19826
899.393	19894
899.513	19993
899.633	19879
899.753	19868
899.873	19868
899.993	20024
900.113	19982
900.232	19951
900.352	19852
900.472	19917
900.591	19685
900.711	19788
900.83	19655
900.95	19761
901.069	19894
901.189	19643
901.308	19506
901.427	19373
901.546	19373
901.665	19316
901.784	19369
901.904	19194
902.023	19107
902.141	18890
902.26	19023
902.379	18909
902.498	18932
902.617	18776
902.735	18943
902.854	18852
902.973	18837
903.091	18578
903.21	18559
903.328	18597
903.446	18399
903.565	18281
903.683	18369
903.801	18174
903.919	18155
904.038	18262
904.156	18144
904.274	18186
904.392	18011
904.51	17977
904.627	18064
904.745	18144
904.863	18251
904.981	17939
905.098	17718
905.216	17661
905.334	17779
905.451	17756
905.569	17752
905.686	17863
905.803	17805
905.921	17501
906.038	17657
906.155	17646
906.272	17634
906.389	17562
906.506	17334
906.623	17334
906.74	17269
906.857	17204
906.974	17200
907.091	17395
907.208	17417
907.324	17311
907.441	17105
907.557	16961
907.674	17029
907.79	16999
907.907	16984
908.023	16949
908.139	16949
908.256	16938
908.372	16915
908.488	16786
908.604	16843
908.72	16645
908.836	16733
908.952	16592
909.068	16843
909.184	16812
909.3	16721
909.415	16774
909.531	16752
909.647	16561
909.762	16440
909.878	16424
909.993	16371
910.108	16382
910.224	16348
910.339	16280
910.454	16337
910.57	16280
910.685	16215
910.8	16497
910.915	16371
911.03	16265
911.145	15994
911.259	16040
911.374	15964
911.489	15865
911.604	15960
911.718	15842
911.833	15751
911.947	15599
912.062	15576
912.176	15701
912.291	15808
912.405	15732
912.519	15934
912.633	15941
912.748	15736
912.862	15701
912.976	15584
913.09	15534
913.204	15530
913.318	15580
913.431	15720
913.545	15557
913.659	15663
913.772	15538
913.886	15496
914	15294
914.113	15485
914.226	15526
914.34	15370
914.453	15211
914.566	15389
914.68	15332
914.793	15264
914.906	15104
915.019	14979
915.132	14929
915.245	15017
915.358	15104
915.47	15047
915.583	15020
915.696	14998
915.809	15077
915.921	15112
916.034	14960
916.146	14887
916.259	14880
916.371	14948
916.483	14880
916.595	14807
916.708	14842
916.82	14811
916.932	14838
917.044	14868
917.156	14743
917.268	14689
917.38	14731
917.491	14735
917.603	14651
917.715	14708
917.826	14758
917.938	14594
918.049	14552
918.161	14629
918.272	14880
918.384	14743
918.495	14560
918.606	14507
918.717	14404
918.828	14415
918.939	14518
919.05	14393
919.161	14400
919.272	14229
919.383	14351
919.494	14488
919.604	14701
919.715	14438
919.826	14385
919.936	14313
920.047	14537
920.157	14457
920.267	14674
920.378	14419
920.488	14389
920.598	14625
920.708	14716
920.818	14659
920.928	14606
921.038	14670
921.148	14769
921.258	14412
921.368	14290
921.477	14263
921.587	14138
921.697	14103
921.806	14126
921.916	14100
922.025	13902
922.134	13822
922.244	13788
922.353	13811
922.462	13712
922.571	13666
922.68	13506
922.789	13582
922.898	13422
923.007	13449
923.116	13510
923.224	13502
923.333	13392
923.442	13384
923.55	13293
923.659	13266
923.767	13293
923.876	13274
923.984	13388
924.092	13202
924.201	13187
924.309	13168
924.417	13232
924.525	13107
924.633	13156
924.741	13898
924.849	12890
924.956	13053
925.064	12966
925.172	12779
925.279	12840
925.387	12962
925.494	12890
925.602	13050
925.709	13023
925.816	12810
925.924	12844
926.031	12962
926.138	12886
926.245	12871
926.352	12741
926.459	12935
926.566	12954
926.673	12738
926.779	12662
926.886	12601
926.993	12429
927.099	12464
927.206	12414
927.312	12384
927.419	12479
927.525	12357
927.631	12494
927.737	12292
927.843	12304
927.95	12136
928.056	12258
928.162	12338
928.267	12414
928.373	12954
928.479	12353
928.585	12095
928.69	12308
928.796	12251
928.901	12178
929.007	11935
929.112	12148
929.218	12087
929.323	12015
929.428	12041
929.533	12095
929.638	11939
929.743	11897
929.848	12003
929.953	11923
930.058	11908
930.163	11718
930.267	11733
930.372	11824
930.477	11684
930.581	11821
930.685	11676
930.79	11573
930.894	11653
930.998	11516
931.103	11676
931.207	11376
931.311	11303
931.415	11162
931.519	10927
931.623	10976
