Data from test_V78500241_1024.txt Node
Date: Fri Mar 25 15:16:59 CST 2022
User: usil
Spectrometer: V785-0024
Trigger mode: 0
Integration Time (sec): 4.000000E-1
Scans to average: 1
Nonlinearity correction enabled: false
Boxcar width: 0
Storing dark spectrum: false
XAxis mode: Wavelengths
Number of Pixels in Spectrum: 1024
>>>>>Begin Spectral Data<<<<<
801.071	28421
801.214	28409
801.356	28051
801.499	27922
801.641	27903
801.783	27979
801.926	28044
802.068	28105
802.211	28048
802.353	27861
802.496	27542
802.638	27629
802.78	27667
802.923	27667
803.065	27572
803.208	27644
803.35	27675
803.492	27873
803.635	27869
803.777	27542
803.919	27857
804.061	28162
804.204	27926
804.346	27880
804.488	27648
804.63	27835
804.773	27743
804.915	27960
805.057	27907
805.199	27838
805.341	27865
805.483	28036
805.626	28036
805.768	27793
805.91	28025
806.052	27861
806.194	27918
806.336	28181
806.478	27956
806.62	28044
806.762	28166
806.904	28188
807.046	28356
807.188	28348
807.33	28333
807.472	28379
807.614	28424
807.756	28291
807.898	28405
808.04	28287
808.182	28158
808.324	28299
808.465	28466
808.607	28485
808.749	28774
808.891	28706
809.033	28927
809.174	28736
809.316	28557
809.458	28675
809.6	28733
809.741	28843
809.883	28938
810.025	28869
810.166	29022
810.308	28927
810.45	29041
810.591	28820
810.733	28793
810.875	28675
811.016	28702
811.158	28565
811.299	28748
811.441	28774
811.582	28812
811.724	28744
811.865	28694
812.007	28645
812.148	28691
812.29	28683
812.431	28915
812.573	29083
812.714	29143
812.855	29204
812.997	29315
813.138	29501
813.279	29391
813.421	29372
813.562	29197
813.703	29090
813.845	29086
813.986	28713
814.127	28588
814.268	28481
814.41	28367
814.551	28394
814.692	28531
814.833	28348
814.974	28310
815.115	28417
815.256	28379
815.397	28280
815.539	28261
815.68	28234
815.821	28188
815.962	28265
816.103	28112
816.244	28185
816.385	28112
816.526	28051
816.666	27941
816.807	27732
816.948	27823
817.089	27823
817.23	27751
817.371	27728
817.512	27755
817.653	27660
817.793	27545
817.934	27701
818.075	27899
818.216	27774
818.356	27660
818.497	27709
818.638	27488
818.778	27393
818.919	27386
819.06	27599
819.2	27637
819.341	27808
819.481	27724
819.622	27865
819.762	27975
819.903	28044
820.043	27873
820.184	27736
820.324	27907
820.465	27873
820.605	27831
820.746	27846
820.886	27724
821.026	27876
821.167	27831
821.307	27907
821.447	27759
821.588	27690
821.728	27545
821.868	27351
822.008	27104
822.149	27176
822.289	27157
822.429	26906
822.569	26891
822.709	27096
822.849	26834
822.99	26746
823.13	26693
823.27	26659
823.41	26564
823.55	26366
823.69	26750
823.83	26556
823.97	26461
824.11	26278
824.25	26256
824.389	26358
824.529	26446
824.669	26476
824.809	26446
824.949	26450
825.089	26415
825.228	26377
825.368	26164
825.508	26385
825.648	26142
825.787	26282
825.927	26355
826.067	26202
826.206	26415
826.346	26278
826.485	26252
826.625	26240
826.765	26396
826.904	26275
827.044	25944
827.183	26020
827.323	25822
827.462	26054
827.601	26008
827.741	25883
827.88	26149
828.02	25989
828.159	26012
828.298	25913
828.437	25982
828.577	25795
828.716	26058
828.855	25913
828.994	25738
829.134	25616
829.273	25830
829.412	25693
829.551	25685
829.69	25597
829.829	25689
829.968	25685
830.107	25769
830.246	25704
830.385	25582
830.524	25563
830.663	25559
830.802	25453
830.941	25335
831.08	25270
831.219	25422
831.357	25392
831.496	25506
831.635	25491
831.774	25259
831.913	25320
832.051	25091
832.19	25168
832.329	25103
832.467	24989
832.606	24856
832.744	24943
832.883	24996
833.022	24886
833.16	24985
833.299	24954
833.437	25000
833.576	24954
833.714	25141
833.852	25065
833.991	25171
834.129	25209
834.267	25122
834.406	25084
834.544	25042
834.682	24985
834.821	25072
834.959	25126
835.097	25091
835.235	25118
835.373	24928
835.511	25000
835.65	24871
835.788	24894
835.926	24745
836.064	24661
836.202	24753
836.34	24996
836.478	24844
836.615	24772
836.753	24985
836.891	24966
837.029	24920
837.167	24848
837.305	24806
837.443	24848
837.58	24681
837.718	24707
837.856	24692
837.993	24612
838.131	24764
838.269	24612
838.406	24734
838.544	24532
838.681	24308
838.819	24391
838.956	24285
839.094	24163
839.231	24152
839.369	24239
839.506	24551
839.643	24300
839.781	24163
839.918	23992
840.055	24182
840.193	24140
840.33	24045
840.467	24114
840.604	24091
840.742	24292
840.879	23889
841.016	23977
841.153	24003
841.29	24186
841.427	24106
841.564	24216
841.701	24163
841.838	24030
841.975	24030
842.112	23996
842.249	23764
842.385	23756
842.522	23999
842.659	23927
842.796	23851
842.933	23908
843.069	23961
843.206	23775
843.343	23813
843.479	23775
843.616	23908
843.752	23638
843.889	23642
844.025	23676
844.162	23672
844.298	23676
844.435	23687
844.571	23600
844.708	23649
844.844	23771
844.98	23707
845.117	23707
845.253	23531
845.389	23611
845.525	23524
845.661	23345
845.798	23273
845.934	23326
846.07	23292
846.206	23277
846.342	23501
846.478	23223
846.614	23079
846.75	23170
846.886	23117
847.022	23155
847.158	23189
847.294	23185
847.429	23018
847.565	23029
847.701	23280
847.837	22725
847.972	22805
848.108	22820
848.244	22824
848.379	22733
848.515	22656
848.65	22660
848.786	22748
848.921	22618
849.057	22774
849.192	22816
849.328	22774
849.463	22691
849.598	22713
849.734	22443
849.869	22409
850.004	22352
850.14	22504
850.275	22470
850.41	22344
850.545	22413
850.68	22447
850.815	22478
850.95	22481
851.085	22641
851.22	22561
851.355	22371
851.49	22523
851.625	22432
851.76	22371
851.895	22246
852.03	22356
852.165	22405
852.299	22428
852.434	22485
852.569	22421
852.703	22386
852.838	22504
852.973	22554
853.107	22447
853.242	22318
853.376	22226
853.511	22154
853.645	22219
853.78	22398
853.914	22306
854.048	22173
854.183	22078
854.317	22295
854.451	22474
854.585	22276
854.72	22143
854.854	22295
854.988	22120
855.122	22219
855.256	22181
855.39	22268
855.524	22447
855.658	22299
855.792	22200
855.926	22196
856.06	22363
856.194	22310
856.327	22230
856.461	22112
856.595	22162
856.729	22200
856.862	22249
856.996	22196
857.13	22322
857.263	22261
857.397	22337
857.53	22086
857.664	22352
857.797	22341
857.931	22424
858.064	22356
858.197	22421
858.331	22284
858.464	22257
858.597	22116
858.731	22154
858.864	22177
858.997	22234
859.13	22200
859.263	22246
859.396	22291
859.529	22257
859.662	22128
859.795	22196
859.928	22257
860.061	22375
860.194	22436
860.327	22310
860.46	22192
860.592	22386
860.725	22470
860.858	22394
860.99	22379
861.123	22238
861.256	22181
861.388	22333
861.521	22980
861.653	22150
861.786	21991
861.918	22059
862.05	22082
862.183	22139
862.315	22166
862.447	22211
862.58	22002
862.712	22105
862.844	21880
862.976	22116
863.108	21907
863.24	22478
863.372	21960
863.504	21918
863.636	21964
863.768	21968
863.9	21937
864.032	21930
864.164	21774
864.296	21987
864.428	22055
864.559	22044
864.691	21949
864.823	21911
864.954	21949
865.086	21850
865.217	21857
865.349	21717
865.48	21724
865.612	21778
865.743	21994
865.875	21869
866.006	21785
866.137	21937
866.269	21869
866.4	21785
866.531	21800
866.662	21736
866.793	21747
866.924	21747
867.055	21713
867.186	21808
867.317	21831
867.448	21671
867.579	21804
867.71	21751
867.841	21667
867.972	21698
868.103	21705
868.233	21785
868.364	21819
868.495	21861
868.625	21991
868.756	22116
868.886	21956
869.017	21922
869.147	22090
869.278	22010
869.408	21930
869.539	21945
869.669	22093
869.799	22025
869.929	22188
870.06	22135
870.19	22310
870.32	22310
870.45	22402
870.58	22390
870.71	22512
870.84	22504
870.97	22421
871.1	22375
871.23	22455
871.36	22504
871.489	22649
871.619	22455
871.749	22702
871.879	22672
872.008	22698
872.138	22561
872.267	22542
872.397	22535
872.526	22421
872.656	22478
872.785	22230
872.915	22660
873.044	22752
873.173	22527
873.303	22721
873.432	22706
873.561	22607
873.69	22634
873.819	22561
873.948	22584
874.077	22656
874.206	22565
874.335	22626
874.464	22694
874.593	22885
874.722	22736
874.851	22824
874.979	22847
875.108	22847
875.237	22702
875.365	22634
875.494	22873
875.623	22873
875.751	22812
875.88	22854
876.008	23006
876.136	23064
876.265	23231
876.393	23417
876.521	23299
876.65	23280
876.778	23288
876.906	23098
877.034	23200
877.162	23185
877.29	23094
877.418	23181
877.546	23193
877.674	23197
877.802	23128
877.93	23220
878.058	23170
878.185	23102
878.313	23136
878.441	23044
878.568	22923
878.696	23075
878.824	23280
878.951	23315
879.079	23330
879.206	23341
879.333	23204
879.461	23280
879.588	23231
879.715	23337
879.842	23395
879.97	23303
880.097	23064
880.224	22976
880.351	23060
880.478	22885
880.605	22915
880.732	22972
880.859	23193
880.986	23117
881.112	22987
881.239	22752
881.366	22634
881.493	22649
881.619	22523
881.746	22497
881.872	22481
881.999	22455
882.125	22516
882.252	22577
882.378	22523
882.505	22577
882.631	22371
882.757	22109
882.883	22284
883.01	22166
883.136	22150
883.262	22185
883.388	22059
883.514	22185
883.64	22325
883.766	22086
883.892	21987
884.018	22093
884.143	22177
884.269	22223
884.395	21941
884.52	21846
884.646	21903
884.772	21778
884.897	21709
885.023	21861
885.148	21956
885.274	21937
885.399	21972
885.524	21778
885.65	21926
885.775	21808
885.9	21793
886.025	22002
886.15	22074
886.275	21850
886.4	21755
886.525	21804
886.65	21774
886.775	21793
886.9	21994
887.025	22013
887.149	21793
887.274	21667
887.399	21526
887.523	21656
887.648	21534
887.773	21568
887.897	21618
888.021	21622
888.146	21553
888.27	21606
888.395	21709
888.519	21728
888.643	21587
888.767	21538
888.891	21485
889.015	21382
889.139	21469
889.263	21458
889.387	21538
889.511	21652
889.635	21545
889.759	21310
889.883	21344
890.006	21386
890.13	21500
890.254	21340
890.377	21291
890.501	21184
890.624	21146
890.748	21226
890.871	21123
890.995	21024
891.118	20880
891.241	20910
891.364	21017
891.488	21104
891.611	20986
891.734	20899
891.857	21017
891.98	21024
892.103	20971
892.226	21032
892.349	21001
892.471	20819
892.594	20853
892.717	20861
892.839	20815
892.962	20781
893.085	20925
893.207	20902
893.33	20712
893.452	20815
893.575	21005
893.697	20796
893.819	21032
893.941	20929
894.064	20937
894.186	20788
894.308	20746
894.43	20956
894.552	20944
894.674	20868
894.796	20765
894.918	20727
895.04	20918
895.161	20921
895.283	20861
895.405	20765
895.526	20925
895.648	20895
895.769	20883
895.891	20872
896.012	20979
896.134	20914
896.255	20838
896.376	20708
896.498	20762
896.619	20796
896.74	20849
896.861	20899
896.982	21024
897.103	21306
897.224	21108
897.345	21074
897.466	21074
897.587	21081
897.708	21195
897.828	21051
897.949	20861
898.07	20842
898.19	20872
898.311	21104
898.431	20937
898.552	21036
898.672	21055
898.792	21112
898.913	20910
899.033	20769
899.153	20910
899.273	20708
899.393	20712
899.513	20849
899.633	20746
899.753	20807
899.873	20617
899.993	20739
900.113	20617
900.232	20667
900.352	20621
900.472	20613
900.591	20530
900.711	20571
900.83	20374
900.95	20568
901.069	20549
901.189	20484
901.308	20172
901.427	20088
901.546	20065
901.665	20142
901.784	20092
901.904	20088
902.023	19868
902.141	19693
902.26	19510
902.379	19643
902.498	19518
902.617	19476
902.735	19590
902.854	19559
902.973	19556
903.091	19255
903.21	19327
903.328	19148
903.446	19095
903.565	19152
903.683	19175
903.801	19053
903.919	19015
904.038	18981
904.156	18878
904.274	19000
904.392	18798
904.51	18715
904.627	18779
904.745	18848
904.863	18840
904.981	18684
905.098	18536
905.216	18483
905.334	18536
905.451	18445
905.569	18433
905.686	18623
905.803	18452
905.921	18254
906.038	18391
906.155	18296
906.272	18159
906.389	18148
906.506	18144
906.623	17999
906.74	18095
906.857	17973
906.974	17897
907.091	18087
907.208	18098
907.324	17908
907.441	18003
907.557	17741
907.674	17783
907.79	17657
907.907	17653
908.023	17737
908.139	17809
908.256	17661
908.372	17558
908.488	17649
908.604	17490
908.72	17459
908.836	17490
908.952	17444
909.068	17459
909.184	17596
909.3	17444
909.415	17524
909.531	17501
909.647	17197
909.762	17231
909.878	17155
909.993	17048
910.108	17079
910.224	16999
910.339	16972
910.454	16995
910.57	16976
910.685	16790
910.8	17140
910.915	17147
911.03	16911
911.145	16668
911.259	16725
911.374	16656
911.489	16656
911.604	16656
911.718	16516
911.833	16550
911.947	16310
912.062	16337
912.176	16382
912.291	16424
912.405	16462
912.519	16523
912.633	16569
912.748	16489
912.862	16375
912.976	16367
913.09	16158
913.204	16325
913.318	16219
913.431	16447
913.545	16382
913.659	16402
913.772	16150
913.886	16169
914	16067
914.113	16128
914.226	16215
914.34	16162
914.453	16029
914.566	16055
914.68	15964
914.793	15972
914.906	15816
915.019	15751
915.132	15622
915.245	15720
915.358	15728
915.47	15591
915.583	15663
915.696	15701
915.809	15831
915.921	15728
916.034	15587
916.146	15584
916.259	15504
916.371	15587
916.483	15595
916.595	15481
916.708	15534
916.82	15492
916.932	15462
917.044	15344
917.156	15393
917.268	15329
917.38	15302
917.491	15291
917.603	15378
917.715	15363
917.826	15359
917.938	15195
918.049	15192
918.161	15169
918.272	15306
918.384	15329
918.495	15199
918.606	15104
918.717	14971
918.828	15081
918.939	15039
919.05	14944
919.161	14952
919.272	14861
919.383	14807
919.494	15093
919.604	15169
919.715	15066
919.826	14906
919.936	14994
920.047	14944
920.157	14933
920.267	15062
920.378	14998
920.488	14842
920.598	15100
920.708	15264
920.818	15173
920.928	15055
921.038	15283
921.148	15264
921.258	14864
921.368	14796
921.477	14655
921.587	14773
921.697	14530
921.806	14674
921.916	14594
922.025	14465
922.134	14415
922.244	14278
922.353	14358
922.462	14248
922.571	14119
922.68	13955
922.789	14069
922.898	14100
923.007	13951
923.116	14046
923.224	14031
923.333	13917
923.442	13917
923.55	13769
923.659	13818
923.767	13849
923.876	13712
923.984	13830
924.092	13746
924.201	13753
924.309	13693
924.417	13769
924.525	13658
924.633	13575
924.741	14617
924.849	13510
924.956	13616
925.064	13438
925.172	13419
925.279	13415
925.387	13468
925.494	13434
925.602	13586
925.709	13438
925.816	13354
925.924	13381
926.031	13518
926.138	13365
926.245	13419
926.352	13301
926.459	13304
926.566	13350
926.673	13339
926.779	13209
926.886	13160
926.993	12913
927.099	12962
927.206	12951
927.312	12890
927.419	13057
927.525	12905
927.631	13008
927.737	12825
927.843	12798
927.95	12719
928.056	12665
928.162	12741
928.267	12867
928.373	13335
928.479	12913
928.585	12684
928.69	12802
928.796	12749
928.901	12593
929.007	12498
929.112	12601
929.218	12623
929.323	12566
929.428	12547
929.533	12696
929.638	12445
929.743	12441
929.848	12467
929.953	12429
930.058	12315
930.163	12155
930.267	12167
930.372	12304
930.477	12072
930.581	12410
930.685	12235
930.79	12125
930.894	12095
930.998	12098
931.103	12201
931.207	11767
931.311	11684
931.415	11585
931.519	11387
931.623	11383
