Data from test_V78500241_2727.txt Node
Date: Fri Mar 25 15:28:50 CST 2022
User: usil
Spectrometer: V785-0024
Trigger mode: 0
Integration Time (sec): 4.000000E-1
Scans to average: 1
Nonlinearity correction enabled: false
Boxcar width: 0
Storing dark spectrum: false
XAxis mode: Wavelengths
Number of Pixels in Spectrum: 1024
>>>>>Begin Spectral Data<<<<<
801.071	27203
801.214	27024
801.356	26910
801.499	26937
801.641	26651
801.783	26708
801.926	26712
802.068	26716
802.211	26636
802.353	26621
802.496	26309
802.638	26400
802.78	26343
802.923	26202
803.065	26351
803.208	26298
803.35	26214
803.492	26530
803.635	26545
803.777	26393
803.919	26442
804.061	26819
804.204	26682
804.346	26579
804.488	26408
804.63	26362
804.773	26404
804.915	26564
805.057	26484
805.199	26408
805.341	26514
805.483	26533
805.626	26621
805.768	26549
805.91	26537
806.052	26438
806.194	26499
806.336	26762
806.478	26629
806.62	26644
806.762	26621
806.904	26845
807.046	27123
807.188	26998
807.33	27032
807.472	26960
807.614	26895
807.756	26963
807.898	26887
808.04	26777
808.182	26792
808.324	26891
808.465	26883
808.607	27058
808.749	27245
808.891	27245
809.033	27321
809.174	27230
809.316	27036
809.458	27340
809.6	27089
809.741	27291
809.883	27230
810.025	27599
810.166	27412
810.308	27553
810.45	27485
810.591	27393
810.733	27180
810.875	27188
811.016	27085
811.158	27039
811.299	27336
811.441	27386
811.582	27450
811.724	27142
811.865	27233
812.007	27135
812.148	27032
812.29	27203
812.431	27386
812.573	27408
812.714	27538
812.855	27671
812.997	27797
813.138	28006
813.279	27953
813.421	27717
813.562	27648
813.703	27458
813.845	27386
813.986	27081
814.127	27009
814.268	26853
814.41	26918
814.551	26678
814.692	26940
814.833	26682
814.974	26762
815.115	26739
815.256	26754
815.397	26746
815.539	26895
815.68	26648
815.821	26522
815.962	26625
816.103	26587
816.244	26632
816.385	26393
816.526	26404
816.666	26214
816.807	26065
816.948	26195
817.089	26248
817.23	26016
817.371	26100
817.512	26073
817.653	26043
817.793	26210
817.934	26259
818.075	25993
818.216	26020
818.356	26130
818.497	25826
818.638	25765
818.778	25742
818.919	25696
819.06	25966
819.2	26016
819.341	26138
819.481	26153
819.622	26206
819.762	26393
819.903	26446
820.043	26423
820.184	26191
820.324	26172
820.465	26214
820.605	26263
820.746	26012
820.886	26043
821.026	26259
821.167	26111
821.307	26294
821.447	26111
821.588	26005
821.728	25970
821.868	25742
822.008	25632
822.149	25495
822.289	25590
822.429	25381
822.569	25320
822.709	25369
822.849	25069
822.99	25141
823.13	24947
823.27	24981
823.41	24867
823.55	24776
823.69	25019
823.83	24916
823.97	24760
824.11	24814
824.25	24681
824.389	24730
824.529	24776
824.669	24608
824.809	24920
824.949	24768
825.089	24856
825.228	24817
825.368	24525
825.508	24563
825.648	24475
825.787	24589
825.927	24589
826.067	24528
826.206	24582
826.346	24589
826.485	24555
826.625	24623
826.765	24722
826.904	24631
827.044	24270
827.183	24433
827.323	24350
827.462	24395
827.601	24334
827.741	24220
827.88	24270
828.02	24205
828.159	24330
828.298	24224
828.437	24262
828.577	24254
828.716	24346
828.855	24133
828.994	24003
829.134	24003
829.273	24136
829.412	23958
829.551	23897
829.69	23977
829.829	24018
829.968	24098
830.107	24011
830.246	23901
830.385	23935
830.524	23821
830.663	23733
830.802	23737
830.941	23649
831.08	23703
831.219	23684
831.357	23665
831.496	23874
831.635	23531
831.774	23406
831.913	23334
832.051	23448
832.19	23402
832.329	23235
832.467	23395
832.606	23155
832.744	23277
832.883	23212
833.022	23216
833.16	23307
833.299	23307
833.437	23307
833.576	23440
833.714	23227
833.852	23395
833.991	23474
834.129	23383
834.267	23410
834.406	23436
834.544	23322
834.682	23299
834.821	23292
834.959	23467
835.097	23185
835.235	23337
835.373	23421
835.511	23246
835.65	23246
835.788	23185
835.926	23151
836.064	22930
836.202	22904
836.34	23128
836.478	23189
836.615	23121
836.753	23143
836.891	23212
837.029	23170
837.167	23132
837.305	23010
837.443	22976
837.58	23056
837.718	23223
837.856	23147
837.993	22881
838.131	23029
838.269	22839
838.406	22923
838.544	22786
838.681	22698
838.819	22698
838.956	22436
839.094	22584
839.231	22360
839.369	22565
839.506	22961
839.643	22816
839.781	22493
839.918	22375
840.055	22481
840.193	22550
840.33	22436
840.467	22497
840.604	22618
840.742	22748
840.879	22204
841.016	22409
841.153	22329
841.29	22481
841.427	22314
841.564	22409
841.701	22268
841.838	22348
841.975	22325
842.112	22443
842.249	22249
842.385	22394
842.522	22413
842.659	22318
842.796	22124
842.933	22253
843.069	22200
843.206	22162
843.343	22268
843.479	22181
843.616	22211
843.752	22097
843.889	21994
844.025	22154
844.162	21857
844.298	22017
844.435	21964
844.571	22063
844.708	22006
844.844	22188
844.98	22074
845.117	22032
845.253	21945
845.389	21884
845.525	21895
845.661	21850
845.798	21705
845.934	21857
846.07	21663
846.206	21686
846.342	21781
846.478	21736
846.614	21515
846.75	21408
846.886	21477
847.022	21637
847.158	21447
847.294	21561
847.429	21416
847.565	21488
847.701	21656
847.837	21195
847.972	21203
848.108	21233
848.244	21142
848.379	21245
848.515	20998
848.65	20990
848.786	20975
848.921	21116
849.057	21192
849.192	21055
849.328	21138
849.463	21142
849.598	20876
849.734	20895
849.869	20952
850.004	20777
850.14	20800
850.275	20925
850.41	20804
850.545	20777
850.68	20861
850.815	20727
850.95	20777
851.085	21024
851.22	20921
851.355	20857
851.49	20914
851.625	20830
851.76	20788
851.895	20823
852.03	20819
852.165	20876
852.299	20845
852.434	20785
852.569	20883
852.703	20758
852.838	20811
852.973	20967
853.107	20883
853.242	20857
853.376	20655
853.511	20457
853.645	20667
853.78	20701
853.914	20549
854.048	20533
854.183	20560
854.317	20682
854.451	20819
854.585	20549
854.72	20632
854.854	20705
854.988	20609
855.122	20575
855.256	20552
855.39	20564
855.524	20762
855.658	20549
855.792	20568
855.926	20655
856.06	20769
856.194	20777
856.327	20648
856.461	20503
856.595	20587
856.729	20625
856.862	20773
856.996	20754
857.13	20720
857.263	20583
857.397	20750
857.53	20659
857.664	20708
857.797	20644
857.931	20716
858.064	20617
858.197	20792
858.331	20644
858.464	20640
858.597	20522
858.731	20613
858.864	20503
858.997	20632
859.13	20518
859.263	20564
859.396	20720
859.529	20583
859.662	20632
859.795	20640
859.928	20689
860.061	20659
860.194	20876
860.327	20659
860.46	20659
860.592	20777
860.725	20800
860.858	20796
860.99	20629
861.123	20606
861.256	20499
861.388	20644
861.521	21241
861.653	20488
861.786	20522
861.918	20438
862.05	20461
862.183	20587
862.315	20609
862.447	20693
862.58	20568
862.712	20286
862.844	20309
862.976	20400
863.108	20347
863.24	20887
863.372	20240
863.504	20351
863.636	20248
863.768	20294
863.9	20351
864.032	20282
864.164	20317
864.296	20404
864.428	20514
864.559	20507
864.691	20419
864.823	20393
864.954	20332
865.086	20339
865.217	20240
865.349	20122
865.48	20180
865.612	20332
865.743	20320
865.875	20210
866.006	20202
866.137	20210
866.269	20381
866.4	20210
866.531	20229
866.662	20180
866.793	20157
866.924	20275
867.055	20168
867.186	20286
867.317	20259
867.448	20115
867.579	20153
867.71	20145
867.841	20126
867.972	20317
868.103	20172
868.233	20256
868.364	20161
868.495	20275
868.625	20457
868.756	20552
868.886	20305
869.017	20438
869.147	20621
869.278	20594
869.408	20469
869.539	20431
869.669	20556
869.799	20518
869.929	20689
870.06	20568
870.19	20765
870.32	20716
870.45	20762
870.58	20819
870.71	20925
870.84	20872
870.97	20762
871.1	20743
871.23	20998
871.36	20899
871.489	20967
871.619	21020
871.749	21104
871.879	21070
872.008	21093
872.138	21051
872.267	21055
872.397	20956
872.526	20735
872.656	20975
872.785	20876
872.915	21028
873.044	21039
873.173	21150
873.303	21066
873.432	21184
873.561	21116
873.69	21077
873.819	21089
873.948	21218
874.077	21055
874.206	21028
874.335	21062
874.464	21112
874.593	21291
874.722	21275
874.851	21428
874.979	21401
875.108	21351
875.237	21176
875.365	21173
875.494	21359
875.623	21401
875.751	21298
875.88	21294
876.008	21466
876.136	21614
876.265	21724
876.393	21819
876.521	21736
876.65	21679
876.778	21644
876.906	21732
877.034	21656
877.162	21713
877.29	21622
877.418	21709
877.546	21709
877.674	21614
877.802	21603
877.93	21622
878.058	21519
878.185	21496
878.313	21629
878.441	21698
878.568	21424
878.696	21591
878.824	21652
878.951	21667
879.079	21762
879.206	21911
879.333	21739
879.461	21618
879.588	21762
879.715	21713
879.842	21953
879.97	21732
880.097	21504
880.224	21393
880.351	21477
880.478	21481
880.605	21439
880.732	21454
880.859	21835
880.986	21416
881.112	21519
881.239	21287
881.366	21230
881.493	21184
881.619	21074
881.746	20998
881.872	21207
881.999	20941
882.125	21070
882.252	21135
882.378	21074
882.505	21119
882.631	20914
882.757	20765
882.883	20910
883.01	20727
883.136	20769
883.262	20689
883.388	20537
883.514	20773
883.64	20693
883.766	20686
883.892	20438
884.018	20530
884.143	20762
884.269	20811
884.395	20499
884.52	20507
884.646	20526
884.772	20347
884.897	20358
885.023	20461
885.148	20476
885.274	20594
885.399	20640
885.524	20454
885.65	20415
885.775	20362
885.9	20404
886.025	20568
886.15	20511
886.275	20336
886.4	20248
886.525	20518
886.65	20275
886.775	20278
886.9	20560
887.025	20530
887.149	20431
887.274	20244
887.399	20157
887.523	20248
887.648	20081
887.773	20103
887.897	20290
888.021	20191
888.146	20111
888.27	20252
888.395	20237
888.519	20385
888.643	20183
888.767	20267
888.891	20115
889.015	19997
889.139	20039
889.263	19989
889.387	20168
889.511	20202
889.635	19993
889.759	19970
889.883	19978
890.006	20088
890.13	20054
890.254	20001
890.377	20016
890.501	19658
890.624	19662
890.748	19795
890.871	19723
890.995	19624
891.118	19514
891.241	19590
891.364	19578
891.488	19655
891.611	19487
891.734	19586
891.857	19681
891.98	19548
892.103	19658
892.226	19529
892.349	19575
892.471	19384
892.594	19548
892.717	19540
892.839	19495
892.962	19594
893.085	19556
893.207	19415
893.33	19377
893.452	19468
893.575	19559
893.697	19487
893.819	19552
893.941	19624
894.064	19548
894.186	19438
894.308	19415
894.43	19620
894.552	19594
894.674	19533
894.796	19346
894.918	19396
895.04	19407
895.161	19548
895.283	19434
895.405	19438
895.526	19594
895.648	19483
895.769	19506
895.891	19476
896.012	19578
896.134	19495
896.255	19445
896.376	19464
896.498	19457
896.619	19525
896.74	19491
896.861	19518
896.982	19791
897.103	19906
897.224	19651
897.345	19719
897.466	19715
897.587	19731
897.708	19833
897.828	19753
897.949	19647
898.07	19552
898.19	19666
898.311	19811
898.431	19761
898.552	19719
898.672	19814
898.792	19651
898.913	19769
899.033	19620
899.153	19651
899.273	19350
899.393	19556
899.513	19476
899.633	19468
899.753	19472
899.873	19510
899.993	19674
900.113	19476
900.232	19552
900.352	19426
900.472	19312
900.591	19179
900.711	19259
900.83	19213
900.95	19308
901.069	19472
901.189	19346
901.308	18928
901.427	18977
901.546	18711
901.665	18882
901.784	18886
901.904	18749
902.023	18650
902.141	18475
902.26	18403
902.379	18445
902.498	18414
902.617	18384
902.735	18433
902.854	18426
902.973	18182
903.091	18159
903.21	17999
903.328	18178
903.446	17984
903.565	17779
903.683	17961
903.801	17836
903.919	17931
904.038	17847
904.156	17665
904.274	17745
904.392	17577
904.51	17627
904.627	17627
904.745	17756
904.863	17703
904.981	17501
905.098	17398
905.216	17417
905.334	17387
905.451	17265
905.569	17315
905.686	17398
905.803	17235
905.921	17018
906.038	17208
906.155	17083
906.272	17010
906.389	17083
906.506	16869
906.623	16927
906.74	16869
906.857	16683
906.974	16820
907.091	16908
907.208	16999
907.324	16949
907.441	16717
907.557	16504
907.674	16584
907.79	16512
907.907	16592
908.023	16565
908.139	16577
908.256	16519
908.372	16493
908.488	16542
908.604	16394
908.72	16219
908.836	16223
908.952	16280
909.068	16253
909.184	16295
909.3	16196
909.415	16276
909.531	16287
909.647	16116
909.762	16158
909.878	16093
909.993	15987
910.108	15979
910.224	16021
910.339	16010
910.454	15892
910.57	15819
910.685	15808
910.8	16048
910.915	16017
911.03	15899
911.145	15759
911.259	15732
911.374	15576
911.489	15591
911.604	15492
911.718	15363
911.833	15431
911.947	15386
912.062	15291
912.176	15561
912.291	15439
912.405	15348
912.519	15671
912.633	15576
912.748	15542
912.862	15382
912.976	15207
913.09	15157
913.204	15157
913.318	15199
913.431	15233
913.545	15222
913.659	15272
913.772	15146
913.886	15062
914	14998
914.113	15180
914.226	15173
914.34	15150
914.453	14944
914.566	15024
914.68	14956
914.793	14838
914.906	14632
915.019	14606
915.132	14606
915.245	14636
915.358	14644
915.47	14629
915.583	14640
915.696	14667
915.809	14648
915.921	14670
916.034	14488
916.146	14495
916.259	14434
916.371	14594
916.483	14587
916.595	14533
916.708	14545
916.82	14476
916.932	14355
917.044	14393
917.156	14404
917.268	14271
917.38	14336
917.491	14248
917.603	14244
917.715	14317
917.826	14355
917.938	14256
918.049	14100
918.161	14206
918.272	14469
918.384	14320
918.495	14275
918.606	14180
918.717	14024
918.828	14134
918.939	14149
919.05	13921
919.161	14077
919.272	13780
919.383	13925
919.494	14119
919.604	14263
919.715	14107
919.826	13986
919.936	13936
920.047	14145
920.157	14065
920.267	14115
920.378	14134
920.488	14058
920.598	14294
920.708	14347
920.818	14100
920.928	14199
921.038	14256
921.148	14275
921.258	13997
921.368	13841
921.477	13795
921.587	13765
921.697	13693
921.806	13849
921.916	13632
922.025	13559
922.134	13457
922.244	13453
922.353	13460
922.462	13354
922.571	13285
922.68	13175
922.789	13038
922.898	13137
923.007	13084
923.116	13065
923.224	13095
923.333	13080
923.442	12962
923.55	12913
923.659	12821
923.767	12981
923.876	12928
923.984	12951
924.092	12863
924.201	12760
924.309	12882
924.417	12814
924.525	12688
924.633	12772
924.741	13681
924.849	12597
924.956	12707
925.064	12616
925.172	12460
925.279	12486
925.387	12532
925.494	12467
925.602	12734
925.709	12521
925.816	12479
925.924	12456
926.031	12669
926.138	12528
926.245	12517
926.352	12323
926.459	12536
926.566	12471
926.673	12361
926.779	12308
926.886	12243
926.993	12186
927.099	12167
927.206	12007
927.312	12114
927.419	12095
927.525	12079
927.631	12106
927.737	12034
927.843	11980
927.95	11859
928.056	11942
928.162	11939
928.267	11969
928.373	12475
928.479	11946
928.585	11722
928.69	11901
928.796	11942
928.901	11901
929.007	11714
929.112	11748
929.218	11817
929.323	11695
929.428	11729
929.533	11718
929.638	11661
929.743	11653
929.848	11657
929.953	11722
930.058	11471
930.163	11353
930.267	11349
930.372	11532
930.477	11364
930.581	11558
930.685	11490
930.79	11284
930.894	11288
930.998	11254
931.103	11391
931.207	11010
931.311	11003
931.415	10869
931.519	10664
931.623	10656
