Data from test_V78500241_402.txt Node
Date: Fri Mar 25 15:12:39 CST 2022
User: usil
Spectrometer: V785-0024
Trigger mode: 0
Integration Time (sec): 4.000000E-1
Scans to average: 1
Nonlinearity correction enabled: false
Boxcar width: 0
Storing dark spectrum: false
XAxis mode: Wavelengths
Number of Pixels in Spectrum: 1024
>>>>>Begin Spectral Data<<<<<
801.071	26750
801.214	26659
801.356	26492
801.499	26362
801.641	26370
801.783	26282
801.926	26400
802.068	26286
802.211	26214
802.353	26130
802.496	25940
802.638	25974
802.78	25852
802.923	25944
803.065	25780
803.208	25970
803.35	25928
803.492	26027
803.635	26096
803.777	25974
803.919	26046
804.061	26313
804.204	26058
804.346	26062
804.488	25951
804.63	25986
804.773	25772
804.915	25925
805.057	26107
805.199	26001
805.341	26126
805.483	26092
805.626	26172
805.768	26027
805.91	26153
806.052	26195
806.194	26050
806.336	26248
806.478	26092
806.62	25982
806.762	26225
806.904	26412
807.046	26617
807.188	26488
807.33	26507
807.472	26533
807.614	26438
807.756	26492
807.898	26362
808.04	26206
808.182	26305
808.324	26358
808.465	26298
808.607	26484
808.749	26655
808.891	26769
809.033	26902
809.174	26735
809.316	26587
809.458	26697
809.6	26632
809.741	26724
809.883	26682
810.025	26937
810.166	26940
810.308	26933
810.45	26906
810.591	26994
810.733	26769
810.875	26708
811.016	26473
811.158	26522
811.299	26720
811.441	26750
811.582	26785
811.724	26549
811.865	26659
812.007	26655
812.148	26636
812.29	26686
812.431	26800
812.573	26956
812.714	27096
812.855	27036
812.997	27135
813.138	27393
813.279	27233
813.421	27070
813.562	27089
813.703	27127
813.845	26990
813.986	26648
814.127	26453
814.268	26313
814.41	26313
814.551	26233
814.692	26339
814.833	26267
814.974	26290
815.115	26347
815.256	26290
815.397	26271
815.539	26020
815.68	26153
815.821	26142
815.962	26176
816.103	25997
816.244	26027
816.385	26024
816.526	25780
816.666	25719
816.807	25487
816.948	25586
817.089	25814
817.23	25651
817.371	25578
817.512	25651
817.653	25578
817.793	25658
817.934	25514
818.075	25620
818.216	25655
818.356	25537
818.497	25514
818.638	25282
818.778	25396
818.919	25320
819.06	25419
819.2	25514
819.341	25681
819.481	25373
819.622	25616
819.762	25925
819.903	25791
820.043	25674
820.184	25601
820.324	25712
820.465	25765
820.605	25803
820.746	25761
820.886	25544
821.026	25597
821.167	25670
821.307	25696
821.447	25693
821.588	25533
821.728	25343
821.868	25221
822.008	25099
822.149	25069
822.289	25031
822.429	24837
822.569	24726
822.709	24837
822.849	24703
822.99	24612
823.13	24525
823.27	24578
823.41	24505
823.55	24281
823.69	24213
823.83	24365
823.97	24125
824.11	24186
824.25	24220
824.389	24213
824.529	24273
824.669	24201
824.809	24384
824.949	24350
825.089	24338
825.228	24262
825.368	23954
825.508	24095
825.648	24060
825.787	24060
825.927	24125
826.067	24072
826.206	24106
826.346	23942
826.485	24034
826.625	24083
826.765	24091
826.904	24083
827.044	23809
827.183	23695
827.323	23828
827.462	23707
827.601	23882
827.741	23703
827.88	23836
828.02	23608
828.159	23760
828.298	23764
828.437	23802
828.577	23718
828.716	23885
828.855	23710
828.994	23452
829.134	23444
829.273	23615
829.412	23551
829.551	23585
829.69	23589
829.829	23471
829.968	23509
830.107	23596
830.246	23566
830.385	23471
830.524	23383
830.663	23292
830.802	23208
830.941	23288
831.08	23109
831.219	23292
831.357	23140
831.496	23299
831.635	23105
831.774	22999
831.913	22987
832.051	22915
832.19	22980
832.329	22972
832.467	22702
832.606	22653
832.744	22801
832.883	22752
833.022	22797
833.16	22835
833.299	22805
833.437	22862
833.576	22858
833.714	22957
833.852	22999
833.991	22877
834.129	23052
834.267	22949
834.406	22866
834.544	22839
834.682	22801
834.821	22972
834.959	23003
835.097	22744
835.235	22946
835.373	22812
835.511	22934
835.65	22748
835.788	22752
835.926	22580
836.064	22546
836.202	22531
836.34	22656
836.478	22740
836.615	22702
836.753	22774
836.891	22812
837.029	22706
837.167	22649
837.305	22729
837.443	22656
837.58	22607
837.718	22786
837.856	22565
837.993	22542
838.131	22660
838.269	22462
838.406	22466
838.544	22466
838.681	22367
838.819	22246
838.956	22010
839.094	22010
839.231	22086
839.369	22238
839.506	22519
839.643	22272
839.781	22074
839.918	22105
840.055	22025
840.193	21911
840.33	22090
840.467	21945
840.604	22090
840.742	22303
840.879	21865
841.016	21960
841.153	21960
841.29	22048
841.427	21983
841.564	22169
841.701	22090
841.838	21797
841.975	22017
842.112	21960
842.249	21831
842.385	21766
842.522	21998
842.659	21789
842.796	21766
842.933	21675
843.069	21717
843.206	21717
843.343	21709
843.479	21755
843.616	21861
843.752	21519
843.889	21496
844.025	21660
844.162	21526
844.298	21663
844.435	21530
844.571	21435
844.708	21481
844.844	21686
844.98	21679
845.117	21629
845.253	21473
845.389	21412
845.525	21439
845.661	21420
845.798	21325
845.934	21249
846.07	21245
846.206	21321
846.342	21355
846.478	21192
846.614	20941
846.75	20971
846.886	20937
847.022	21074
847.158	21070
847.294	21032
847.429	21013
847.565	21081
847.701	21131
847.837	20689
847.972	20720
848.108	20788
848.244	20773
848.379	20708
848.515	20629
848.65	20594
848.786	20686
848.921	20571
849.057	20769
849.192	20674
849.328	20613
849.463	20659
849.598	20564
849.734	20499
849.869	20564
850.004	20358
850.14	20473
850.275	20469
850.41	20317
850.545	20370
850.68	20415
850.815	20454
850.95	20446
851.085	20621
851.22	20358
851.355	20511
851.49	20256
851.625	20263
851.76	20366
851.895	20381
852.03	20301
852.165	20415
852.299	20362
852.434	20488
852.569	20518
852.703	20343
852.838	20457
852.973	20522
853.107	20530
853.242	20362
853.376	20267
853.511	20092
853.645	20180
853.78	20465
853.914	20218
854.048	20320
854.183	20168
854.317	20275
854.451	20374
854.585	20256
854.72	20180
854.854	20309
854.988	20084
855.122	20286
855.256	20103
855.39	20176
855.524	20298
855.658	20187
855.792	20252
855.926	20202
856.06	20339
856.194	20294
856.327	20278
856.461	20164
856.595	20138
856.729	20282
856.862	20404
856.996	20206
857.13	20168
857.263	20301
857.397	20244
857.53	20172
857.664	20187
857.797	20221
857.931	20336
858.064	20313
858.197	20396
858.331	20153
858.464	20191
858.597	20153
858.731	20202
858.864	20161
858.997	20107
859.13	20336
859.263	20214
859.396	20267
859.529	20149
859.662	20286
859.795	20115
859.928	20183
860.061	20328
860.194	20400
860.327	20301
860.46	20195
860.592	20374
860.725	20370
860.858	20396
860.99	20214
861.123	20153
861.256	20161
861.388	20214
861.521	21009
861.653	20134
861.786	20035
861.918	20100
862.05	20172
862.183	20225
862.315	20195
862.447	20290
862.58	20164
862.712	19959
862.844	19864
862.976	20157
863.108	20046
863.24	20469
863.372	19849
863.504	19898
863.636	19856
863.768	20027
863.9	19967
864.032	19791
864.164	19955
864.296	19925
864.428	19986
864.559	19913
864.691	20016
864.823	20012
864.954	20001
865.086	19822
865.217	19894
865.349	19856
865.48	19932
865.612	19811
865.743	19959
865.875	19887
866.006	19841
866.137	19761
866.269	19856
866.4	19868
866.531	19677
866.662	19734
866.793	19746
866.924	19837
867.055	19723
867.186	19811
867.317	19814
867.448	19757
867.579	19723
867.71	19693
867.841	19727
867.972	19776
868.103	19788
868.233	19803
868.364	19784
868.495	19982
868.625	19951
868.756	20210
868.886	19955
869.017	19928
869.147	20176
869.278	20153
869.408	20008
869.539	20161
869.669	20161
869.799	20119
869.929	20115
870.06	20096
870.19	20412
870.32	20294
870.45	20370
870.58	20396
870.71	20541
870.84	20499
870.97	20275
871.1	20423
871.23	20636
871.36	20724
871.489	20454
871.619	20549
871.749	20507
871.879	20720
872.008	20724
872.138	20632
872.267	20613
872.397	20396
872.526	20461
872.656	20396
872.785	20545
872.915	20579
873.044	20746
873.173	20746
873.303	20594
873.432	20644
873.561	20712
873.69	20682
873.819	20682
873.948	20606
874.077	20575
874.206	20678
874.335	20697
874.464	20651
874.593	20918
874.722	20842
874.851	20910
874.979	20842
875.108	20952
875.237	20804
875.365	20830
875.494	20838
875.623	20929
875.751	20826
875.88	20785
876.008	21085
876.136	21135
876.265	21329
876.393	21348
876.521	21340
876.65	21313
876.778	21329
876.906	21192
877.034	21214
877.162	21386
877.29	21237
877.418	21329
877.546	21332
877.674	21207
877.802	21127
877.93	21306
878.058	21157
878.185	21199
878.313	21268
878.441	21317
878.568	21077
878.696	21203
878.824	21199
878.951	21363
879.079	21534
879.206	21549
879.333	21397
879.461	21389
879.588	21252
879.715	21561
879.842	21637
879.97	21264
880.097	21127
880.224	21017
880.351	21127
880.478	21066
880.605	21062
880.732	21028
880.859	21161
880.986	21081
881.112	21047
881.239	20849
881.366	20800
881.493	20758
881.619	20800
881.746	20686
881.872	20636
881.999	20556
882.125	20636
882.252	20701
882.378	20609
882.505	20762
882.631	20522
882.757	20518
882.883	20393
883.01	20461
883.136	20313
883.262	20294
883.388	20221
883.514	20476
883.64	20343
883.766	20290
883.892	20183
884.018	20259
884.143	20221
884.269	20495
884.395	20027
884.52	19989
884.646	19928
884.772	19909
884.897	20031
885.023	19917
885.148	20180
885.274	20206
885.399	20202
885.524	20012
885.65	19982
885.775	19993
885.9	19932
886.025	20100
886.15	20157
886.275	19947
886.4	19879
886.525	19917
886.65	19932
886.775	19959
886.9	20157
887.025	20183
887.149	19963
887.274	19852
887.399	19795
887.523	19814
887.648	19826
887.773	19780
887.897	19993
888.021	19833
888.146	19852
888.27	19951
888.395	19890
888.519	19791
888.643	19925
888.767	19887
888.891	19632
889.015	19525
889.139	19742
889.263	19601
889.387	19727
889.511	19784
889.635	19708
889.759	19575
889.883	19613
890.006	19632
890.13	19780
890.254	19472
890.377	19487
890.501	19400
890.624	19324
890.748	19434
890.871	19377
890.995	19103
891.118	19133
891.241	19221
891.364	19270
891.488	19164
891.611	19187
891.734	19206
891.857	19369
891.98	19202
892.103	19274
892.226	19381
892.349	19091
892.471	19046
892.594	19263
892.717	19209
892.839	19137
892.962	19217
893.085	19228
893.207	19065
893.33	19069
893.452	19076
893.575	19133
893.697	19137
893.819	19225
893.941	19358
894.064	19266
894.186	19103
894.308	19019
894.43	19236
894.552	19289
894.674	19240
894.796	19004
894.918	19209
895.04	19015
895.161	19209
895.283	19088
895.405	19015
895.526	19103
895.648	19145
895.769	19145
895.891	19225
896.012	19126
896.134	19198
896.255	19103
896.376	19156
896.498	19236
896.619	19320
896.74	19206
896.861	19221
896.982	19419
897.103	19628
897.224	19400
897.345	19304
897.466	19274
897.587	19411
897.708	19540
897.828	19537
897.949	19240
898.07	19168
898.19	19316
898.311	19415
898.431	19362
898.552	19324
898.672	19422
898.792	19434
898.913	19403
899.033	19297
899.153	19065
899.273	19042
899.393	19107
899.513	19179
899.633	19168
899.753	19145
899.873	19031
899.993	18989
900.113	19088
900.232	19221
900.352	19137
900.472	19099
900.591	18856
900.711	18920
900.83	18856
900.95	19004
901.069	18989
901.189	18909
901.308	18688
901.427	18464
901.546	18460
901.665	18563
901.784	18585
901.904	18445
902.023	18266
902.141	18121
902.26	18030
902.379	18083
902.498	18038
902.617	17958
902.735	18125
902.854	18003
902.973	17897
903.091	17718
903.21	17767
903.328	17790
903.446	17623
903.565	17512
903.683	17615
903.801	17436
903.919	17497
904.038	17474
904.156	17341
904.274	17440
904.392	17356
904.51	17261
904.627	17254
904.745	17379
904.863	17341
904.981	17094
905.098	17060
905.216	17052
905.334	17079
905.451	17029
905.569	17067
905.686	17018
905.803	17056
905.921	16782
906.038	16877
906.155	16786
906.272	16691
906.389	16713
906.506	16573
906.623	16588
906.74	16611
906.857	16424
906.974	16485
907.091	16588
907.208	16694
907.324	16653
907.441	16500
907.557	16287
907.674	16261
907.79	16097
907.907	16310
908.023	16306
908.139	16215
908.256	16246
908.372	16116
908.488	16124
908.604	16021
908.72	15975
908.836	16013
908.952	15960
909.068	15994
909.184	16078
909.3	15926
909.415	16067
909.531	16044
909.647	15835
909.762	15701
909.878	15652
909.993	15705
910.108	15720
910.224	15591
910.339	15682
910.454	15576
910.57	15591
910.685	15515
910.8	15785
910.915	15660
911.03	15530
911.145	15340
911.259	15348
911.374	15401
911.489	15241
911.604	15260
911.718	15131
911.833	15070
911.947	14914
912.062	14895
912.176	15028
912.291	15055
912.405	15154
912.519	15291
912.633	15195
912.748	15116
912.862	14952
912.976	14967
913.09	14804
913.204	14838
913.318	14857
913.431	15043
913.545	15138
913.659	14914
913.772	14872
913.886	14731
914	14716
914.113	14701
914.226	14864
914.34	14781
914.453	14568
914.566	14826
914.68	14602
914.793	14499
914.906	14355
915.019	14377
915.132	14271
915.245	14393
915.358	14461
915.47	14355
915.583	14423
915.696	14347
915.809	14370
915.921	14393
916.034	14298
916.146	14298
916.259	14263
916.371	14309
916.483	14259
916.595	14199
916.708	14092
916.82	14290
916.932	14161
917.044	14046
917.156	14069
917.268	14050
917.38	14145
917.491	14107
917.603	13913
917.715	14077
917.826	14126
917.938	13974
918.049	13849
918.161	14043
918.272	14077
918.384	14069
918.495	14012
918.606	13856
918.717	13811
918.828	13883
918.939	13750
919.05	13814
919.161	13837
919.272	13609
919.383	13647
919.494	13936
919.604	13894
919.715	13757
919.826	13590
919.936	13898
920.047	13868
920.157	13837
920.267	13887
920.378	13788
920.488	13799
920.598	14020
920.708	13974
920.818	13944
920.928	13887
921.038	14107
921.148	14005
921.258	13696
921.368	13651
921.477	13601
921.587	13529
921.697	13354
921.806	13529
921.916	13350
922.025	13206
922.134	13175
922.244	13149
922.353	13164
922.462	13084
922.571	12973
922.68	12947
922.789	12795
922.898	12871
923.007	12776
923.116	12928
923.224	12829
923.333	12764
923.442	12669
923.55	12684
923.659	12684
923.767	12692
923.876	12574
923.984	12703
924.092	12517
924.201	12635
924.309	12627
924.417	12608
924.525	12551
924.633	12604
924.741	13499
924.849	12437
924.956	12395
925.064	12327
925.172	12232
925.279	12178
925.387	12315
925.494	12251
925.602	12418
925.709	12224
925.816	12251
925.924	12239
926.031	12399
926.138	12330
926.245	12285
926.352	12209
926.459	12262
926.566	12376
926.673	12232
926.779	12083
926.886	12003
926.993	11859
927.099	11897
927.206	11863
927.312	11707
927.419	11931
927.525	11824
927.631	11897
927.737	11707
927.843	11714
927.95	11649
928.056	11805
928.162	11718
928.267	11843
928.373	12319
928.479	11786
928.585	11543
928.69	11649
928.796	11661
928.901	11547
929.007	11505
929.112	11638
929.218	11551
929.323	11471
929.428	11406
929.533	11592
929.638	11444
929.743	11307
929.848	11372
929.953	11398
930.058	11284
930.163	11178
930.267	11113
930.372	11258
930.477	11147
930.581	11398
930.685	11296
930.79	11041
930.894	11025
930.998	10953
931.103	11185
931.207	10801
931.311	10778
931.415	10672
931.519	10558
931.623	10417
