Data from test_V78500241_3267.txt Node
Date: Fri Mar 25 15:32:36 CST 2022
User: usil
Spectrometer: V785-0024
Trigger mode: 0
Integration Time (sec): 4.000000E-1
Scans to average: 1
Nonlinearity correction enabled: false
Boxcar width: 0
Storing dark spectrum: false
XAxis mode: Wavelengths
Number of Pixels in Spectrum: 1024
>>>>>Begin Spectral Data<<<<<
801.071	27306
801.214	27294
801.356	26933
801.499	27032
801.641	26674
801.783	26868
801.926	26925
802.068	26883
802.211	26769
802.353	26857
802.496	26651
802.638	26644
802.78	26575
802.923	26457
803.065	26404
803.208	26385
803.35	26533
803.492	26648
803.635	26636
803.777	26453
803.919	26686
804.061	27043
804.204	26689
804.346	26613
804.488	26511
804.63	26431
804.773	26484
804.915	26568
805.057	26712
805.199	26617
805.341	26636
805.483	26716
805.626	26670
805.768	26705
805.91	26625
806.052	26804
806.194	26621
806.336	26933
806.478	26746
806.62	26659
806.762	26800
806.904	26975
807.046	27241
807.188	27188
807.33	27009
807.472	27287
807.614	27131
807.756	27043
807.898	26982
808.04	26925
808.182	26826
808.324	27039
808.465	27024
808.607	27260
808.749	27256
808.891	27538
809.033	27466
809.174	27443
809.316	27397
809.458	27439
809.6	27298
809.741	27469
809.883	27450
810.025	27481
810.166	27538
810.308	27614
810.45	27488
810.591	27549
810.733	27424
810.875	27401
811.016	27237
811.158	27127
811.299	27351
811.441	27462
811.582	27332
811.724	27348
811.865	27325
812.007	27340
812.148	27264
812.29	27397
812.431	27515
812.573	27561
812.714	27701
812.855	27720
812.997	27876
813.138	27892
813.279	27926
813.421	27759
813.562	27679
813.703	27466
813.845	27370
813.986	27249
814.127	27180
814.268	27001
814.41	26967
814.551	26937
814.692	27157
814.833	26948
814.974	26895
815.115	26910
815.256	26868
815.397	26929
815.539	26735
815.68	26708
815.821	26613
815.962	26678
816.103	26819
816.244	26537
816.385	26514
816.526	26613
816.666	26240
816.807	26221
816.948	26206
817.089	26298
817.23	26259
817.371	26187
817.512	26275
817.653	26187
817.793	26298
817.934	26206
818.075	26377
818.216	26351
818.356	26267
818.497	26016
818.638	25906
818.778	25974
818.919	26024
819.06	25959
819.2	26214
819.341	26130
819.481	26214
819.622	26396
819.762	26438
819.903	26533
820.043	26366
820.184	26355
820.324	26404
820.465	26328
820.605	26358
820.746	26237
820.886	26202
821.026	26282
821.167	26187
821.307	26381
821.447	26084
821.588	26039
821.728	26012
821.868	25909
822.008	25582
822.149	25666
822.289	25681
822.429	25582
822.569	25369
822.709	25327
822.849	25194
822.99	25244
823.13	25320
823.27	25236
823.41	25099
823.55	24795
823.69	25065
823.83	25198
823.97	24916
824.11	24779
824.25	24798
824.389	24901
824.529	24916
824.669	24909
824.809	24939
824.949	25015
825.089	24962
825.228	24928
825.368	24665
825.508	24722
825.648	24768
825.787	24806
825.927	24840
826.067	24707
826.206	24661
826.346	24776
826.485	24726
826.625	24726
826.765	24856
826.904	24776
827.044	24563
827.183	24471
827.323	24486
827.462	24490
827.601	24540
827.741	24357
827.88	24410
828.02	24471
828.159	24388
828.298	24410
828.437	24578
828.577	24365
828.716	24452
828.855	24365
828.994	24174
829.134	24152
829.273	24186
829.412	24045
829.551	24068
829.69	24114
829.829	24095
829.968	24182
830.107	24216
830.246	24152
830.385	24060
830.524	23954
830.663	24079
830.802	23836
830.941	23798
831.08	23771
831.219	23783
831.357	23855
831.496	24003
831.635	23840
831.774	23695
831.913	23646
832.051	23615
832.19	23505
832.329	23528
832.467	23414
832.606	23482
832.744	23227
832.883	23528
833.022	23448
833.16	23383
833.299	23531
833.437	23395
833.576	23535
833.714	23539
833.852	23676
833.991	23589
834.129	23646
834.267	23528
834.406	23387
834.544	23467
834.682	23539
834.821	23425
834.959	23786
835.097	23547
835.235	23600
835.373	23551
835.511	23478
835.65	23425
835.788	23254
835.926	23288
836.064	23155
836.202	23143
836.34	23360
836.478	23539
836.615	23425
836.753	23383
836.891	23486
837.029	23376
837.167	23200
837.305	23181
837.443	23315
837.58	23345
837.718	23231
837.856	23269
837.993	23067
838.131	23060
838.269	23151
838.406	23121
838.544	23098
838.681	22763
838.819	22816
838.956	22717
839.094	22630
839.231	22744
839.369	22919
839.506	23121
839.643	22953
839.781	22683
839.918	22596
840.055	22698
840.193	22618
840.33	22668
840.467	22645
840.604	22687
840.742	22892
840.879	22557
841.016	22626
841.153	22508
841.29	22767
841.427	22649
841.564	22637
841.701	22683
841.838	22550
841.975	22557
842.112	22550
842.249	22405
842.385	22489
842.522	22599
842.659	22493
842.796	22371
842.933	22417
843.069	22409
843.206	22242
843.343	22436
843.479	22398
843.616	22398
843.752	22131
843.889	22276
844.025	22306
844.162	22215
844.298	22196
844.435	22185
844.571	22204
844.708	22215
844.844	22352
844.98	22257
845.117	22192
845.253	22173
845.389	21998
845.525	22090
845.661	21953
845.798	21911
845.934	21953
846.07	22032
846.206	21831
846.342	22112
846.478	21941
846.614	21789
846.75	21663
846.886	21679
847.022	21717
847.158	21648
847.294	21686
847.429	21732
847.565	21587
847.701	21850
847.837	21389
847.972	21241
848.108	21542
848.244	21393
848.379	21226
848.515	21313
848.65	21195
848.786	21192
848.921	21298
849.057	21344
849.192	21298
849.328	21329
849.463	21173
849.598	21104
849.734	21062
849.869	21161
850.004	20933
850.14	21077
850.275	21024
850.41	20857
850.545	20857
850.68	20883
850.815	20941
850.95	20975
851.085	21226
851.22	21036
851.355	20990
851.49	21017
851.625	21017
851.76	21070
851.895	20975
852.03	20853
852.165	21017
852.299	21028
852.434	21024
852.569	20952
852.703	20933
852.838	21032
852.973	21131
853.107	21112
853.242	20857
853.376	20861
853.511	20765
853.645	20804
853.78	20967
853.914	20872
854.048	20849
854.183	20853
854.317	20887
854.451	21074
854.585	20773
854.72	20811
854.854	20883
854.988	20701
855.122	20849
855.256	20655
855.39	20838
855.524	20838
855.658	20792
855.792	20815
855.926	20754
856.06	20819
856.194	20788
856.327	20743
856.461	20762
856.595	20762
856.729	20708
856.862	20948
856.996	20887
857.13	20933
857.263	20807
857.397	20933
857.53	20788
857.664	20902
857.797	20868
857.931	20910
858.064	20880
858.197	20902
858.331	20788
858.464	20788
858.597	20796
858.731	20792
858.864	20670
858.997	20720
859.13	20899
859.263	20853
859.396	20937
859.529	20815
859.662	20834
859.795	20754
859.928	20918
860.061	20895
860.194	21093
860.327	20861
860.46	20788
860.592	21009
860.725	20944
860.858	20929
860.99	20834
861.123	20670
861.256	20689
861.388	20750
861.521	21332
861.653	20632
861.786	20640
861.918	20667
862.05	20785
862.183	20765
862.315	20746
862.447	20781
862.58	20830
862.712	20625
862.844	20526
862.976	20621
863.108	20651
863.24	21119
863.372	20552
863.504	20518
863.636	20438
863.768	20571
863.9	20609
864.032	20454
864.164	20549
864.296	20579
864.428	20667
864.559	20724
864.691	20667
864.823	20579
864.954	20545
865.086	20488
865.217	20408
865.349	20339
865.48	20454
865.612	20396
865.743	20545
865.875	20484
866.006	20358
866.137	20434
866.269	20457
866.4	20419
866.531	20366
866.662	20355
866.793	20415
866.924	20381
867.055	20461
867.186	20469
867.317	20419
867.448	20240
867.579	20389
867.71	20267
867.841	20305
867.972	20324
868.103	20377
868.233	20389
868.364	20400
868.495	20492
868.625	20587
868.756	20724
868.886	20549
869.017	20701
869.147	20609
869.278	20678
869.408	20625
869.539	20590
869.669	20701
869.799	20594
869.929	20815
870.06	20758
870.19	20990
870.32	20807
870.45	20933
870.58	20975
870.71	21085
870.84	21017
870.97	21116
871.1	21009
871.23	21214
871.36	21119
871.489	21116
871.619	21279
871.749	21245
871.879	21214
872.008	21408
872.138	21344
872.267	21230
872.397	21062
872.526	21062
872.656	21001
872.785	21093
872.915	21272
873.044	21272
873.173	21325
873.303	21321
873.432	21268
873.561	21317
873.69	21245
873.819	21180
873.948	21268
874.077	21237
874.206	21230
874.335	21321
874.464	21355
874.593	21382
874.722	21401
874.851	21549
874.979	21561
875.108	21485
875.237	21382
875.365	21420
875.494	21382
875.623	21473
875.751	21431
875.88	21580
876.008	21652
876.136	21671
876.265	21873
876.393	22051
876.521	21953
876.65	21972
876.778	21895
876.906	21857
877.034	21705
877.162	21873
877.29	21800
877.418	21854
877.546	21903
877.674	21846
877.802	21876
877.93	21819
878.058	21766
878.185	21736
878.313	21953
878.441	21793
878.568	21728
878.696	21622
878.824	21819
878.951	21880
879.079	21991
879.206	22116
879.333	21953
879.461	21937
879.588	21953
879.715	22139
879.842	22158
879.97	21869
880.097	21698
880.224	21644
880.351	21705
880.478	21759
880.605	21622
880.732	21641
880.859	21747
880.986	21713
881.112	21637
881.239	21511
881.366	21466
881.493	21283
881.619	21264
881.746	21332
881.872	21291
881.999	21302
882.125	21173
882.252	21188
882.378	21192
882.505	21359
882.631	21093
882.757	20994
882.883	20967
883.01	20975
883.136	20956
883.262	20796
883.388	20868
883.514	21104
883.64	21077
883.766	20697
883.892	20693
884.018	20796
884.143	21005
884.269	20891
884.395	20648
884.52	20590
884.646	20629
884.772	20587
884.897	20423
885.023	20629
885.148	20724
885.274	20883
885.399	20686
885.524	20541
885.65	20621
885.775	20644
885.9	20739
886.025	20678
886.15	20765
886.275	20663
886.4	20457
886.525	20530
886.65	20412
886.775	20537
886.9	20689
887.025	20708
887.149	20686
887.274	20450
887.399	20442
887.523	20419
887.648	20309
887.773	20362
887.897	20351
888.021	20507
888.146	20412
888.27	20408
888.395	20404
888.519	20499
888.643	20503
888.767	20298
888.891	20332
889.015	20221
889.139	20130
889.263	20161
889.387	20301
889.511	20404
889.635	20317
889.759	20134
889.883	20202
890.006	20122
890.13	20267
890.254	20073
890.377	20149
890.501	19947
890.624	19890
890.748	19928
890.871	19814
890.995	19742
891.118	19746
891.241	19791
891.364	19769
891.488	20008
891.611	19727
891.734	19761
891.857	19860
891.98	19734
892.103	19875
892.226	19799
892.349	19769
892.471	19681
892.594	19677
892.717	19776
892.839	19647
892.962	19708
893.085	19856
893.207	19712
893.33	19567
893.452	19590
893.575	19723
893.697	19723
893.819	19921
893.941	19852
894.064	19795
894.186	19620
894.308	19655
894.43	19708
894.552	19734
894.674	19704
894.796	19597
894.918	19655
895.04	19624
895.161	19746
895.283	19750
895.405	19655
895.526	19746
895.648	19643
895.769	19704
895.891	19559
896.012	19814
896.134	19734
896.255	19670
896.376	19658
896.498	19696
896.619	19742
896.74	19613
896.861	19674
896.982	19997
897.103	20081
897.224	20020
897.345	19875
897.466	19849
897.587	19811
897.708	20031
897.828	19970
897.949	19864
898.07	19731
898.19	19753
898.311	19959
898.431	19814
898.552	19814
898.672	19917
898.792	19989
898.913	19982
899.033	19734
899.153	19837
899.273	19635
899.393	19613
899.513	19613
899.633	19727
899.753	19647
899.873	19575
899.993	19563
900.113	19575
900.232	19734
900.352	19635
900.472	19464
900.591	19396
900.711	19468
900.83	19472
900.95	19460
901.069	19544
901.189	19335
901.308	19034
901.427	18981
901.546	19031
901.665	18977
901.784	19065
901.904	18993
902.023	18738
902.141	18578
902.26	18525
902.379	18658
902.498	18570
902.617	18506
902.735	18544
902.854	18544
902.973	18578
903.091	18262
903.21	18281
903.328	18190
903.446	18167
903.565	17950
903.683	17969
903.801	17882
903.919	17908
904.038	17855
904.156	17847
904.274	17954
904.392	17859
904.51	17878
904.627	17775
904.745	17783
904.863	17863
904.981	17566
905.098	17452
905.216	17493
905.334	17611
905.451	17615
905.569	17467
905.686	17532
905.803	17520
905.921	17235
906.038	17303
906.155	17181
906.272	17147
906.389	17235
906.506	17067
906.623	17003
906.74	16896
906.857	16866
906.974	17003
907.091	16980
907.208	17140
907.324	17037
907.441	16862
907.557	16801
907.674	16717
907.79	16634
907.907	16653
908.023	16782
908.139	16771
908.256	16656
908.372	16626
908.488	16596
908.604	16516
908.72	16462
908.836	16447
908.952	16363
909.068	16592
909.184	16611
909.3	16386
909.415	16489
909.531	16341
909.647	16230
909.762	16169
909.878	16234
909.993	16067
910.108	16188
910.224	16112
910.339	16192
910.454	16078
910.57	15998
910.685	15937
910.8	16112
910.915	16143
911.03	15945
911.145	15835
911.259	15778
911.374	15736
911.489	15686
911.604	15701
911.718	15511
911.833	15587
911.947	15496
912.062	15454
912.176	15526
912.291	15515
912.405	15576
912.519	15644
912.633	15667
912.748	15557
912.862	15507
912.976	15359
913.09	15176
913.204	15260
913.318	15252
913.431	15530
913.545	15325
913.659	15542
913.772	15260
913.886	15195
914	15093
914.113	15211
914.226	15211
914.34	15272
914.453	15062
914.566	15161
914.68	14975
914.793	14971
914.906	14796
915.019	14701
915.132	14701
915.245	14845
915.358	14773
915.47	14819
915.583	14762
915.696	14765
915.809	14876
915.921	14975
916.034	14651
916.146	14727
916.259	14632
916.371	14762
916.483	14781
916.595	14587
916.708	14594
916.82	14629
916.932	14514
917.044	14587
917.156	14514
917.268	14446
917.38	14442
917.491	14484
917.603	14412
917.715	14530
917.826	14507
917.938	14358
918.049	14313
918.161	14450
918.272	14545
918.384	14533
918.495	14400
918.606	14271
918.717	14115
918.828	14214
918.939	14191
919.05	14142
919.161	14199
919.272	14054
919.383	14062
919.494	14278
919.604	14503
919.715	14278
919.826	14206
919.936	14161
920.047	14248
920.157	14161
920.267	14370
920.378	14229
920.488	14202
920.598	14259
920.708	14442
920.818	14286
920.928	14339
921.038	14495
921.148	14454
921.258	14256
921.368	14084
921.477	13974
921.587	13864
921.697	13791
921.806	13894
921.916	13875
922.025	13704
922.134	13518
922.244	13529
922.353	13624
922.462	13495
922.571	13434
922.68	13301
922.789	13263
922.898	13324
923.007	13206
923.116	13362
923.224	13168
923.333	13187
923.442	13080
923.55	13129
923.659	13065
923.767	13194
923.876	13103
923.984	13118
924.092	12962
924.201	13008
924.309	13095
924.417	12958
924.525	12901
924.633	12977
924.741	13906
924.849	12654
924.956	12837
925.064	12692
925.172	12650
925.279	12582
925.387	12814
925.494	12703
925.602	12741
925.709	12726
925.816	12688
925.924	12677
926.031	12734
926.138	12673
926.245	12700
926.352	12597
926.459	12677
926.566	12642
926.673	12528
926.779	12388
926.886	12426
926.993	12315
927.099	12323
927.206	12136
927.312	12247
927.419	12323
927.525	12319
927.631	12277
927.737	12022
927.843	12152
927.95	11977
928.056	12019
928.162	12079
928.267	12034
928.373	12764
928.479	12144
928.585	11897
928.69	11969
928.796	12034
928.901	11939
929.007	11897
929.112	11984
929.218	11904
929.323	11760
929.428	11821
929.533	12030
929.638	11699
929.743	11707
929.848	11771
929.953	11786
930.058	11688
930.163	11535
930.267	11585
930.372	11634
930.477	11444
930.581	11653
930.685	11528
930.79	11368
930.894	11429
930.998	11326
931.103	11512
931.207	11121
931.311	11033
931.415	11052
931.519	10847
931.623	10831
