Data from test_V78500241_1252.txt Node
Date: Fri Mar 25 15:18:34 CST 2022
User: usil
Spectrometer: V785-0024
Trigger mode: 0
Integration Time (sec): 4.000000E-1
Scans to average: 1
Nonlinearity correction enabled: false
Boxcar width: 0
Storing dark spectrum: false
XAxis mode: Wavelengths
Number of Pixels in Spectrum: 1024
>>>>>Begin Spectral Data<<<<<
801.071	27850
801.214	27759
801.356	27610
801.499	27466
801.641	27424
801.783	27351
801.926	27363
802.068	27374
802.211	27256
802.353	27325
802.496	26994
802.638	26971
802.78	27081
802.923	27043
803.065	27055
803.208	27024
803.35	26895
803.492	27173
803.635	27306
803.777	27157
803.919	27298
804.061	27504
804.204	27226
804.346	27154
804.488	27203
804.63	27279
804.773	27058
804.915	27264
805.057	27466
805.199	27135
805.341	27325
805.483	27260
805.626	27348
805.768	27108
805.91	27355
806.052	27226
806.194	27230
806.336	27515
806.478	27176
806.62	27310
806.762	27408
806.904	27622
807.046	27823
807.188	27728
807.33	27728
807.472	27766
807.614	27641
807.756	27728
807.898	27644
808.04	27766
808.182	27774
808.324	27583
808.465	27568
808.607	27793
808.749	27926
808.891	28101
809.033	28131
809.174	28116
809.316	27873
809.458	27987
809.6	28013
809.741	28021
809.883	28223
810.025	28238
810.166	28405
810.308	28215
810.45	28223
810.591	28105
810.733	27991
810.875	27895
811.016	27968
811.158	27865
811.299	28055
811.441	28196
811.582	28124
811.724	28036
811.865	28006
812.007	28029
812.148	28017
812.29	27994
812.431	28257
812.573	28314
812.714	28401
812.855	28523
812.997	28668
813.138	28694
813.279	28645
813.421	28527
813.562	28478
813.703	28371
813.845	28249
813.986	28059
814.127	27739
814.268	27705
814.41	27759
814.551	27652
814.692	27724
814.833	27808
814.974	27648
815.115	27599
815.256	27644
815.397	27473
815.539	27591
815.68	27603
815.821	27523
815.962	27523
816.103	27542
816.244	27420
816.385	27302
816.526	27313
816.666	27089
816.807	27074
816.948	26925
817.089	27135
817.23	26990
817.371	26990
817.512	27081
817.653	27051
817.793	26857
817.934	27032
818.075	26967
818.216	26967
818.356	26982
818.497	26804
818.638	26765
818.778	26659
818.919	26811
819.06	26807
819.2	26811
819.341	27055
819.481	26845
819.622	26857
819.762	27405
819.903	27199
820.043	27207
820.184	27161
820.324	27173
820.465	27032
820.605	26998
820.746	27032
820.886	26910
821.026	26944
821.167	27119
821.307	27226
821.447	27001
821.588	26842
821.728	26720
821.868	26636
822.008	26499
822.149	26434
822.289	26450
822.429	26237
822.569	26153
822.709	26073
822.849	26039
822.99	25951
823.13	25925
823.27	25887
823.41	25788
823.55	25666
823.69	25852
823.83	25902
823.97	25719
824.11	25491
824.25	25594
824.389	25540
824.529	25772
824.669	25597
824.809	25712
824.949	25647
825.089	25799
825.228	25704
825.368	25487
825.508	25495
825.648	25438
825.787	25563
825.927	25548
826.067	25457
826.206	25419
826.346	25601
826.485	25510
826.625	25510
826.765	25616
826.904	25582
827.044	25472
827.183	25396
827.323	25133
827.462	25255
827.601	25175
827.741	25118
827.88	25133
828.02	25027
828.159	25179
828.298	25190
828.437	25244
828.577	25072
828.716	25312
828.855	25023
828.994	24848
829.134	25012
829.273	24909
829.412	24856
829.551	24852
829.69	24947
829.829	24996
829.968	25034
830.107	24932
830.246	25076
830.385	24829
830.524	24814
830.663	24738
830.802	24593
830.941	24544
831.08	24330
831.219	24563
831.357	24559
831.496	24768
831.635	24494
831.774	24490
831.913	24445
832.051	24350
832.19	24384
832.329	24296
832.467	24201
832.606	24114
832.744	24167
832.883	24213
833.022	24167
833.16	24254
833.299	24311
833.437	24228
833.576	24216
833.714	24380
833.852	24395
833.991	24292
834.129	24251
834.267	24357
834.406	24300
834.544	24319
834.682	24380
834.821	24273
834.959	24330
835.097	24201
835.235	24273
835.373	24205
835.511	24315
835.65	24163
835.788	24220
835.926	24022
836.064	23847
836.202	24022
836.34	24209
836.478	24194
836.615	24213
836.753	24034
836.891	24163
837.029	24178
837.167	24053
837.305	23984
837.443	23973
837.58	23851
837.718	24144
837.856	23893
837.993	23866
838.131	23916
838.269	23863
838.406	23859
838.544	23802
838.681	23581
838.819	23459
838.956	23406
839.094	23391
839.231	23341
839.369	23600
839.506	23729
839.643	23512
839.781	23493
839.918	23425
840.055	23463
840.193	23395
840.33	23250
840.467	23353
840.604	23303
840.742	23497
840.879	23208
841.016	23296
841.153	23258
841.29	23444
841.427	23322
841.564	23341
841.701	23349
841.838	23166
841.975	23307
842.112	23143
842.249	23242
842.385	23048
842.522	23292
842.659	23124
842.796	22987
842.933	23094
843.069	23014
843.206	22976
843.343	23174
843.479	23090
843.616	23056
843.752	22831
843.889	22900
844.025	22972
844.162	22927
844.298	23014
844.435	22892
844.571	22752
844.708	22892
844.844	22911
844.98	22976
845.117	22991
845.253	22812
845.389	22824
845.525	22729
845.661	22626
845.798	22630
845.934	22641
846.07	22504
846.206	22721
846.342	22630
846.478	22565
846.614	22466
846.75	22249
846.886	22428
847.022	22436
847.158	22329
847.294	22390
847.429	22405
847.565	22348
847.701	22542
847.837	22029
847.972	22166
848.108	22112
848.244	22112
848.379	21975
848.515	21876
848.65	21934
848.786	21850
848.921	22013
849.057	21991
849.192	22006
849.328	21880
849.463	21953
849.598	21808
849.734	21762
849.869	21785
850.004	21656
850.14	21663
850.275	21698
850.41	21717
850.545	21690
850.68	21629
850.815	21724
850.95	21576
851.085	21857
851.22	21747
851.355	21641
851.49	21686
851.625	21629
851.76	21682
851.895	21557
852.03	21705
852.165	21713
852.299	21629
852.434	21835
852.569	21766
852.703	21603
852.838	21614
852.973	21781
853.107	21800
853.242	21778
853.376	21606
853.511	21462
853.645	21458
853.78	21549
853.914	21523
854.048	21504
854.183	21416
854.317	21549
854.451	21667
854.585	21466
854.72	21523
854.854	21530
854.988	21515
855.122	21412
855.256	21431
855.39	21568
855.524	21469
855.658	21622
855.792	21534
855.926	21428
856.06	21511
856.194	21587
856.327	21447
856.461	21420
856.595	21542
856.729	21435
856.862	21542
856.996	21557
857.13	21599
857.263	21553
857.397	21648
857.53	21469
857.664	21530
857.797	21481
857.931	21644
858.064	21447
858.197	21709
858.331	21504
858.464	21466
858.597	21458
858.731	21374
858.864	21416
858.997	21557
859.13	21542
859.263	21656
859.396	21625
859.529	21572
859.662	21302
859.795	21530
859.928	21530
860.061	21717
860.194	21770
860.327	21652
860.46	21549
860.592	21530
860.725	21606
860.858	21755
860.99	21481
861.123	21424
861.256	21515
861.388	21408
861.521	22234
861.653	21408
861.786	21302
861.918	21408
862.05	21378
862.183	21473
862.315	21504
862.447	21454
862.58	21389
862.712	21161
862.844	21291
862.976	21268
863.108	21355
863.24	21492
863.372	21241
863.504	21386
863.636	21157
863.768	21249
863.9	21214
864.032	21241
864.164	21226
864.296	21218
864.428	21317
864.559	21169
864.691	21298
864.823	21329
864.954	21154
865.086	21032
865.217	21104
865.349	21036
865.48	21214
865.612	21108
865.743	21367
865.875	21085
866.006	21135
866.137	21142
866.269	20941
866.4	21036
866.531	20952
866.662	21051
866.793	20971
866.924	20990
867.055	21039
867.186	21009
867.317	20960
867.448	20941
867.579	21005
867.71	20906
867.841	20956
867.972	21020
868.103	20937
868.233	20990
868.364	21089
868.495	21135
868.625	21268
868.756	21386
868.886	21287
869.017	21344
869.147	21397
869.278	21275
869.408	21386
869.539	21207
869.669	21241
869.799	21302
869.929	21477
870.06	21466
870.19	21690
870.32	21545
870.45	21599
870.58	21675
870.71	21759
870.84	21709
870.97	21694
871.1	21660
871.23	21926
871.36	21789
871.489	21701
871.619	21838
871.749	21880
871.879	21892
872.008	22044
872.138	21987
872.267	21953
872.397	21770
872.526	21762
872.656	21755
872.785	21671
872.915	21937
873.044	21930
873.173	21895
873.303	21991
873.432	21808
873.561	22021
873.69	22017
873.819	21789
873.948	21945
874.077	21835
874.206	21846
874.335	21903
874.464	21930
874.593	22139
874.722	22040
874.851	22287
874.979	22242
875.108	22192
875.237	22063
875.365	22078
875.494	22135
875.623	22112
875.751	22029
875.88	22162
876.008	22211
876.136	22322
876.265	22474
876.393	22584
876.521	22615
876.65	22569
876.778	22538
876.906	22379
877.034	22382
877.162	22584
877.29	22447
877.418	22398
877.546	22447
877.674	22398
877.802	22390
877.93	22421
878.058	22424
878.185	22329
878.313	22436
878.441	22428
878.568	22318
878.696	22341
878.824	22447
878.951	22630
879.079	22733
879.206	22702
879.333	22535
879.461	22512
879.588	22584
879.715	22641
879.842	22706
879.97	22519
880.097	22329
880.224	22265
880.351	22485
880.478	22219
880.605	22295
880.732	22322
880.859	22512
880.986	22310
881.112	22314
881.239	22029
881.366	21907
881.493	21831
881.619	21819
881.746	21941
881.872	21949
881.999	21785
882.125	21880
882.252	21709
882.378	21903
882.505	21926
882.631	21724
882.757	21698
882.883	21637
883.01	21462
883.136	21408
883.262	21420
883.388	21325
883.514	21496
883.64	21618
883.766	21386
883.892	21275
884.018	21443
884.143	21408
884.269	21526
884.395	21173
884.52	21272
884.646	21211
884.772	21017
884.897	21222
885.023	21176
885.148	21367
885.274	21306
885.399	21169
885.524	21233
885.65	21329
885.775	21161
885.9	21104
886.025	21374
886.15	21199
886.275	21154
886.4	21077
886.525	21169
886.65	21138
886.775	21096
886.9	21268
887.025	21424
887.149	21192
887.274	20960
887.399	21013
887.523	20914
887.648	20899
887.773	20804
887.897	21100
888.021	21180
888.146	20914
888.27	21036
888.395	21070
888.519	21001
888.643	20990
888.767	20929
888.891	20960
889.015	20773
889.139	20834
889.263	20769
889.387	20823
889.511	20853
889.635	20941
889.759	20762
889.883	20762
890.006	20727
890.13	20823
890.254	20629
890.377	20644
890.501	20480
890.624	20503
890.748	20495
890.871	20427
890.995	20263
891.118	20187
891.241	20347
891.364	20339
891.488	20469
891.611	20434
891.734	20362
891.857	20408
891.98	20427
892.103	20415
892.226	20374
892.349	20183
892.471	20077
892.594	20115
892.717	20263
892.839	20180
892.962	20305
893.085	20317
893.207	20191
893.33	20012
893.452	20134
893.575	20206
893.697	20176
893.819	20415
893.941	20370
894.064	20362
894.186	20107
894.308	20100
894.43	20442
894.552	20366
894.674	20324
894.796	20115
894.918	20244
895.04	20256
895.161	20202
895.283	20237
895.405	20142
895.526	20202
895.648	20164
895.769	20252
895.891	20256
896.012	20271
896.134	20210
896.255	20172
896.376	20191
896.498	20168
896.619	20248
896.74	20343
896.861	20252
896.982	20636
897.103	20674
897.224	20526
897.345	20522
897.466	20248
897.587	20431
897.708	20545
897.828	20457
897.949	20499
898.07	20282
898.19	20355
898.311	20393
898.431	20400
898.552	20484
898.672	20476
898.792	20503
898.913	20336
899.033	20267
899.153	20240
899.273	20191
899.393	20126
899.513	20195
899.633	20259
899.753	20122
899.873	20164
899.993	20259
900.113	20107
900.232	20103
900.352	20195
900.472	19940
900.591	19921
900.711	19871
900.83	19944
900.95	20008
901.069	19936
901.189	19841
901.308	19635
901.427	19582
901.546	19635
901.665	19559
901.784	19533
901.904	19373
902.023	19289
902.141	19038
902.26	19114
902.379	19209
902.498	19038
902.617	18882
902.735	19168
902.854	19023
902.973	18943
903.091	18719
903.21	18802
903.328	18764
903.446	18658
903.565	18540
903.683	18540
903.801	18410
903.919	18536
904.038	18471
904.156	18296
904.274	18445
904.392	18311
904.51	18399
904.627	18228
904.745	18201
904.863	18346
904.981	18174
905.098	17901
905.216	17882
905.334	17980
905.451	17988
905.569	17904
905.686	17950
905.803	17870
905.921	17798
906.038	17802
906.155	17760
906.272	17668
906.389	17745
906.506	17600
906.623	17474
906.74	17448
906.857	17379
906.974	17379
907.091	17490
907.208	17676
907.324	17528
907.441	17425
907.557	17296
907.674	17227
907.79	17071
907.907	17200
908.023	17239
908.139	17185
908.256	17132
908.372	17162
908.488	17014
908.604	16930
908.72	16919
908.836	17060
908.952	16957
909.068	16911
909.184	16995
909.3	16889
909.415	16911
909.531	16908
909.647	16687
909.762	16634
909.878	16679
909.993	16660
910.108	16565
910.224	16535
910.339	16588
910.454	16519
910.57	16474
910.685	16413
910.8	16679
910.915	16588
911.03	16367
911.145	16276
911.259	16219
911.374	16230
911.489	16112
911.604	16059
911.718	16017
911.833	16063
911.947	15998
912.062	15842
912.176	15972
912.291	15983
912.405	15968
912.519	16082
912.633	16162
912.748	16006
912.862	16055
912.976	15778
913.09	15641
913.204	15644
913.318	15793
913.431	15835
913.545	15884
913.659	15960
913.772	15717
913.886	15633
914	15538
914.113	15720
914.226	15637
914.34	15766
914.453	15420
914.566	15614
914.68	15473
914.793	15408
914.906	15321
915.019	15230
915.132	15154
915.245	15203
915.358	15165
915.47	15214
915.583	15195
915.696	15119
915.809	15302
915.921	15310
916.034	15146
916.146	15108
916.259	15116
916.371	15207
916.483	15127
916.595	15062
916.708	15043
916.82	15074
916.932	14960
917.044	15055
917.156	14990
917.268	14887
917.38	14716
917.491	14762
917.603	14796
917.715	15017
917.826	14994
917.938	14830
918.049	14610
918.161	14762
918.272	14887
918.384	14948
918.495	14788
918.606	14629
918.717	14522
918.828	14731
918.939	14594
919.05	14495
919.161	14488
919.272	14396
919.383	14389
919.494	14663
919.604	14845
919.715	14526
919.826	14492
919.936	14667
920.047	14568
920.157	14480
920.267	14746
920.378	14511
920.488	14522
920.598	14727
920.708	14899
920.818	14697
920.928	14602
921.038	14807
921.148	14735
921.258	14530
921.368	14404
921.477	14374
921.587	14252
921.697	14248
921.806	14412
921.916	14172
922.025	14012
922.134	13967
922.244	13894
922.353	13982
922.462	13845
922.571	13742
922.68	13639
922.789	13544
922.898	13582
923.007	13540
923.116	13597
923.224	13563
923.333	13514
923.442	13480
923.55	13301
923.659	13392
923.767	13483
923.876	13377
923.984	13438
924.092	13320
924.201	13400
924.309	13331
924.417	13384
924.525	13255
924.633	13301
924.741	14012
924.849	12989
924.956	13194
925.064	12993
925.172	12932
925.279	12996
925.387	12989
925.494	13042
925.602	13110
925.709	13122
925.816	12935
925.924	12920
926.031	12970
926.138	12825
926.245	12901
926.352	12779
926.459	12970
926.566	12916
926.673	12757
926.779	12806
926.886	12688
926.993	12623
927.099	12574
927.206	12540
927.312	12494
927.419	12589
927.525	12544
927.631	12608
927.737	12410
927.843	12407
927.95	12338
928.056	12452
928.162	12414
928.267	12361
928.373	13027
928.479	12388
928.585	12213
928.69	12365
928.796	12319
928.901	12262
929.007	12087
929.112	12232
929.218	12292
929.323	12125
929.428	12076
929.533	12190
929.638	11988
929.743	12026
929.848	12106
929.953	12068
930.058	11897
930.163	11748
930.267	11802
930.372	11961
930.477	11764
930.581	11950
930.685	11790
930.79	11676
930.894	11756
930.998	11596
931.103	11843
931.207	11448
931.311	11353
931.415	11299
931.519	11064
931.623	11014
