Data from test_V78500241_400.txt Node
Date: Fri Mar 25 15:12:38 CST 2022
User: usil
Spectrometer: V785-0024
Trigger mode: 0
Integration Time (sec): 4.000000E-1
Scans to average: 1
Nonlinearity correction enabled: false
Boxcar width: 0
Storing dark spectrum: false
XAxis mode: Wavelengths
Number of Pixels in Spectrum: 1024
>>>>>Begin Spectral Data<<<<<
801.071	27085
801.214	26937
801.356	26804
801.499	26682
801.641	26613
801.783	26560
801.926	26629
802.068	26526
802.211	26377
802.353	26332
802.496	26214
802.638	26069
802.78	26145
802.923	26221
803.065	26077
803.208	26065
803.35	26145
803.492	26267
803.635	26377
803.777	26134
803.919	26564
804.061	26667
804.204	26518
804.346	26332
804.488	26278
804.63	26343
804.773	26324
804.915	26225
805.057	26514
805.199	26393
805.341	26374
805.483	26431
805.626	26442
805.768	26240
805.91	26431
806.052	26442
806.194	26336
806.336	26693
806.478	26545
806.62	26358
806.762	26632
806.904	26773
807.046	26998
807.188	26830
807.33	26773
807.472	27028
807.614	26800
807.756	26785
807.898	26613
808.04	26621
808.182	26632
808.324	26731
808.465	26762
808.607	26880
808.749	26910
808.891	27199
809.033	27252
809.174	27043
809.316	27013
809.458	26967
809.6	26982
809.741	27081
809.883	27192
810.025	27256
810.166	27306
810.308	27279
810.45	27306
810.591	27127
810.733	26994
810.875	26986
811.016	26864
811.158	26849
811.299	27108
811.441	27093
811.582	27066
811.724	26853
811.865	26952
812.007	26990
812.148	26921
812.29	26906
812.431	27195
812.573	27344
812.714	27283
812.855	27469
812.997	27564
813.138	27667
813.279	27576
813.421	27424
813.562	27526
813.703	27348
813.845	27138
813.986	26944
814.127	26667
814.268	26754
814.41	26587
814.551	26678
814.692	26750
814.833	26629
814.974	26590
815.115	26568
815.256	26606
815.397	26465
815.539	26545
815.68	26423
815.821	26415
815.962	26651
816.103	26358
816.244	26404
816.385	26267
816.526	26282
816.666	26046
816.807	25944
816.948	26020
817.089	26039
817.23	26001
817.371	25932
817.512	25940
817.653	25860
817.793	25989
817.934	25917
818.075	25913
818.216	26035
818.356	25902
818.497	25753
818.638	25479
818.778	25635
818.919	25757
819.06	25639
819.2	25753
819.341	25902
819.481	25791
819.622	26050
819.762	26309
819.903	26134
820.043	26176
820.184	25978
820.324	26043
820.465	26138
820.605	26016
820.746	25986
820.886	25917
821.026	26001
821.167	25898
821.307	25963
821.447	25963
821.588	25868
821.728	25734
821.868	25670
822.008	25350
822.149	25411
822.289	25377
822.429	25046
822.569	25008
822.709	25175
822.849	24783
822.99	24848
823.13	24970
823.27	24814
823.41	24700
823.55	24711
823.69	24684
823.83	24757
823.97	24665
824.11	24620
824.25	24563
824.389	24509
824.529	24547
824.669	24452
824.809	24684
824.949	24544
825.089	24521
825.228	24654
825.368	24452
825.508	24448
825.648	24365
825.787	24479
825.927	24494
826.067	24380
826.206	24445
826.346	24380
826.485	24563
826.625	24410
826.765	24490
826.904	24258
827.044	24186
827.183	24144
827.323	24068
827.462	24205
827.601	24148
827.741	24205
827.88	24087
828.02	24003
828.159	24030
828.298	24197
828.437	24194
828.577	24106
828.716	24201
828.855	24022
828.994	23916
829.134	23775
829.273	23805
829.412	23802
829.551	23707
829.69	23802
829.829	23866
829.968	23969
830.107	23855
830.246	23775
830.385	23859
830.524	23741
830.663	23577
830.802	23539
830.941	23539
831.08	23452
831.219	23516
831.357	23501
831.496	23573
831.635	23368
831.774	23448
831.913	23250
832.051	23174
832.19	23193
832.329	23288
832.467	23204
832.606	23147
832.744	23208
832.883	23071
833.022	22995
833.16	23124
833.299	23170
833.437	23128
833.576	23121
833.714	23174
833.852	23292
833.991	23318
834.129	23318
834.267	23242
834.406	23147
834.544	23261
834.682	23105
834.821	23174
834.959	23341
835.097	23200
835.235	23231
835.373	23029
835.511	23208
835.65	23003
835.788	23113
835.926	22919
836.064	22790
836.202	22820
836.34	23033
836.478	23273
836.615	23052
836.753	23010
836.891	22965
837.029	23067
837.167	22938
837.305	22923
837.443	22896
837.58	22869
837.718	22949
837.856	22908
837.993	22839
838.131	22862
838.269	22759
838.406	22782
838.544	22748
838.681	22531
838.819	22596
838.956	22360
839.094	22341
839.231	22440
839.369	22390
839.506	22809
839.643	22592
839.781	22417
839.918	22360
840.055	22322
840.193	22310
840.33	22314
840.467	22337
840.604	22314
840.742	22474
840.879	22135
841.016	22276
841.153	22143
841.29	22466
841.427	22337
841.564	22356
841.701	22375
841.838	22234
841.975	22173
842.112	22093
842.249	22101
842.385	22025
842.522	22287
842.659	22105
842.796	22025
842.933	22021
843.069	22063
843.206	22002
843.343	22169
843.479	22070
843.616	22097
843.752	21793
843.889	21774
844.025	21968
844.162	21835
844.298	21994
844.435	21797
844.571	21892
844.708	21823
844.844	22078
844.98	21956
845.117	21895
845.253	21846
845.389	21816
845.525	21694
845.661	21732
845.798	21549
845.934	21679
846.07	21519
846.206	21534
846.342	21827
846.478	21675
846.614	21500
846.75	21283
846.886	21294
847.022	21287
847.158	21386
847.294	21332
847.429	21294
847.565	21268
847.701	21538
847.837	21032
847.972	21116
848.108	21268
848.244	21138
848.379	20979
848.515	20906
848.65	20937
848.786	21020
848.921	20857
849.057	20925
849.192	20948
849.328	20933
849.463	20914
849.598	20834
849.734	20811
849.869	20796
850.004	20716
850.14	20678
850.275	20788
850.41	20545
850.545	20663
850.68	20625
850.815	20598
850.95	20648
851.085	20887
851.22	20712
851.355	20708
851.49	20762
851.625	20648
851.76	20552
851.895	20579
852.03	20575
852.165	20686
852.299	20826
852.434	20727
852.569	20792
852.703	20693
852.838	20746
852.973	20937
853.107	20785
853.242	20625
853.376	20465
853.511	20469
853.645	20549
853.78	20648
853.914	20541
854.048	20362
854.183	20362
854.317	20507
854.451	20625
854.585	20495
854.72	20537
854.854	20556
854.988	20495
855.122	20507
855.256	20484
855.39	20434
855.524	20575
855.658	20549
855.792	20533
855.926	20461
856.06	20541
856.194	20598
856.327	20347
856.461	20408
856.595	20415
856.729	20518
856.862	20606
856.996	20686
857.13	20484
857.263	20556
857.397	20693
857.53	20431
857.664	20575
857.797	20518
857.931	20537
858.064	20602
858.197	20644
858.331	20518
858.464	20518
858.597	20431
858.731	20370
858.864	20499
858.997	20476
859.13	20568
859.263	20518
859.396	20606
859.529	20476
859.662	20343
859.795	20598
859.928	20427
860.061	20663
860.194	20720
860.327	20526
860.46	20530
860.592	20716
860.725	20651
860.858	20568
860.99	20476
861.123	20545
861.256	20362
861.388	20503
861.521	21173
861.653	20358
861.786	20355
861.918	20252
862.05	20419
862.183	20400
862.315	20389
862.447	20476
862.58	20412
862.712	20301
862.844	20195
862.976	20290
863.108	20336
863.24	20746
863.372	20103
863.504	20199
863.636	20237
863.768	20275
863.9	20286
864.032	20122
864.164	20195
864.296	20176
864.428	20278
864.559	20286
864.691	20358
864.823	20244
864.954	20313
865.086	20100
865.217	20214
865.349	20119
865.48	20145
865.612	20221
865.743	20290
865.875	20050
866.006	20069
866.137	20183
866.269	20180
866.4	20218
866.531	20046
866.662	20088
866.793	20069
866.924	20062
867.055	20111
867.186	20134
867.317	20062
867.448	19936
867.579	20058
867.71	20035
867.841	19955
867.972	20020
868.103	19925
868.233	20088
868.364	20096
868.495	20168
868.625	20317
868.756	20347
868.886	20111
869.017	20366
869.147	20396
869.278	20396
869.408	20374
869.539	20218
869.669	20351
869.799	20343
869.929	20488
870.06	20415
870.19	20663
870.32	20560
870.45	20727
870.58	20708
870.71	20857
870.84	20796
870.97	20819
871.1	20689
871.23	20830
871.36	20925
871.489	20815
871.619	20880
871.749	20880
871.879	20895
872.008	20986
872.138	20937
872.267	20933
872.397	20754
872.526	20727
872.656	20792
872.785	20724
872.915	20944
873.044	20929
873.173	20998
873.303	20925
873.432	21005
873.561	20998
873.69	21039
873.819	20891
873.948	21036
874.077	21005
874.206	20872
874.335	20956
874.464	20887
874.593	21233
874.722	21195
874.851	21138
874.979	21173
875.108	21169
875.237	21176
875.365	21127
875.494	21154
875.623	21169
875.751	21211
875.88	21161
876.008	21226
876.136	21447
876.265	21614
876.393	21603
876.521	21675
876.65	21603
876.778	21500
876.906	21545
877.034	21500
877.162	21523
877.29	21515
877.418	21682
877.546	21462
877.674	21450
877.802	21606
877.93	21526
878.058	21443
878.185	21424
878.313	21504
878.441	21367
878.568	21294
878.696	21382
878.824	21511
878.951	21622
879.079	21633
879.206	21838
879.333	21576
879.461	21488
879.588	21637
879.715	21686
879.842	21876
879.97	21603
880.097	21424
880.224	21317
880.351	21401
880.478	21351
880.605	21268
880.732	21275
880.859	21587
880.986	21378
881.112	21447
881.239	21249
881.366	21131
881.493	21077
881.619	20963
881.746	21119
881.872	20933
881.999	20895
882.125	20834
882.252	20967
882.378	21043
882.505	21036
882.631	20819
882.757	20659
882.883	20868
883.01	20758
883.136	20583
883.262	20533
883.388	20461
883.514	20689
883.64	20492
883.766	20522
883.892	20522
884.018	20454
884.143	20495
884.269	20644
884.395	20377
884.52	20256
884.646	20324
884.772	20233
884.897	20218
885.023	20317
885.148	20298
885.274	20469
885.399	20423
885.524	20336
885.65	20301
885.775	20377
885.9	20320
886.025	20355
886.15	20396
886.275	20278
886.4	20298
886.525	20317
886.65	20221
886.775	20301
886.9	20400
887.025	20571
887.149	20240
887.274	20138
887.399	20130
887.523	20012
887.648	20005
887.773	20027
887.897	20180
888.021	20084
888.146	19997
888.27	20153
888.395	20119
888.519	20046
888.643	20016
888.767	20096
888.891	19993
889.015	19807
889.139	19955
889.263	19932
889.387	20035
889.511	20016
889.635	19959
889.759	19860
889.883	19852
890.006	19902
890.13	19906
890.254	19894
890.377	19822
890.501	19582
890.624	19616
890.748	19689
890.871	19605
890.995	19460
891.118	19403
891.241	19506
891.364	19499
891.488	19571
891.611	19403
891.734	19464
891.857	19506
891.98	19396
892.103	19415
892.226	19499
892.349	19411
892.471	19365
892.594	19411
892.717	19457
892.839	19358
892.962	19362
893.085	19411
893.207	19396
893.33	19221
893.452	19415
893.575	19358
893.697	19453
893.819	19502
893.941	19510
894.064	19575
894.186	19213
894.308	19304
894.43	19384
894.552	19400
894.674	19521
894.796	19392
894.918	19373
895.04	19339
895.161	19430
895.283	19480
895.405	19270
895.526	19362
895.648	19388
895.769	19400
895.891	19457
896.012	19552
896.134	19552
896.255	19468
896.376	19468
896.498	19396
896.619	19373
896.74	19483
896.861	19491
896.982	19734
897.103	19772
897.224	19632
897.345	19597
897.466	19540
897.587	19552
897.708	19750
897.828	19708
897.949	19544
898.07	19377
898.19	19464
898.311	19666
898.431	19525
898.552	19655
898.672	19769
898.792	19674
898.913	19609
899.033	19518
899.153	19457
899.273	19320
899.393	19403
899.513	19381
899.633	19491
899.753	19422
899.873	19282
899.993	19426
900.113	19297
900.232	19381
900.352	19346
900.472	19118
900.591	19110
900.711	19122
900.83	19240
900.95	19293
901.069	19198
901.189	19038
901.308	18909
901.427	18768
901.546	18703
901.665	18749
901.784	18631
901.904	18574
902.023	18585
902.141	18376
902.26	18292
902.379	18448
902.498	18247
902.617	18224
902.735	18277
902.854	18171
902.973	18148
903.091	17904
903.21	17973
903.328	17836
903.446	17817
903.565	17821
903.683	17737
903.801	17684
903.919	17729
904.038	17718
904.156	17551
904.274	17630
904.392	17562
904.51	17562
904.627	17539
904.745	17657
904.863	17665
904.981	17303
905.098	17178
905.216	17261
905.334	17299
905.451	17189
905.569	17242
905.686	17227
905.803	17208
905.921	17029
906.038	17045
906.155	17045
906.272	16873
906.389	16968
906.506	16797
906.623	16790
906.74	16774
906.857	16622
906.974	16683
907.091	16889
907.208	16771
907.324	16904
907.441	16649
907.557	16489
907.674	16519
907.79	16341
907.907	16516
908.023	16474
908.139	16535
908.256	16356
908.372	16443
908.488	16409
908.604	16177
908.72	16124
908.836	16223
908.952	16143
909.068	16166
909.184	16268
909.3	16116
909.415	16234
909.531	16131
909.647	16006
909.762	16036
909.878	15869
909.993	15934
910.108	15899
910.224	15972
910.339	15846
910.454	15747
910.57	15854
910.685	15679
910.8	15953
910.915	15873
911.03	15732
911.145	15561
911.259	15500
911.374	15492
911.489	15473
911.604	15534
911.718	15264
911.833	15245
911.947	15184
912.062	15077
912.176	15321
912.291	15245
912.405	15275
912.519	15389
912.633	15488
912.748	15359
912.862	15348
912.976	15169
913.09	14979
913.204	15036
913.318	15127
913.431	15237
913.545	15169
913.659	15264
913.772	15081
913.886	14948
914	14830
914.113	14887
914.226	15039
914.34	15066
914.453	14754
914.566	14960
914.68	14823
914.793	14735
914.906	14590
915.019	14473
915.132	14488
915.245	14571
915.358	14640
915.47	14644
915.583	14530
915.696	14514
915.809	14739
915.921	14689
916.034	14427
916.146	14476
916.259	14450
916.371	14389
916.483	14442
916.595	14358
916.708	14282
916.82	14313
916.932	14332
917.044	14336
917.156	14347
917.268	14263
917.38	14229
917.491	14237
917.603	14145
917.715	14202
917.826	14214
917.938	14145
918.049	13989
918.161	14149
918.272	14259
918.384	14248
918.495	14100
918.606	14005
918.717	13932
918.828	13955
918.939	13993
919.05	13925
919.161	13837
919.272	13852
919.383	13849
919.494	14005
919.604	14206
919.715	13967
919.826	13879
919.936	13963
920.047	14027
920.157	13921
920.267	14149
920.378	13947
920.488	13989
920.598	14039
920.708	14294
920.818	14145
920.928	14065
921.038	14259
921.148	14221
921.258	13921
921.368	13814
921.477	13723
921.587	13616
921.697	13620
921.806	13632
921.916	13651
922.025	13350
922.134	13392
922.244	13365
922.353	13426
922.462	13251
922.571	13149
922.68	13012
922.789	13004
922.898	13034
923.007	12916
923.116	12981
923.224	12962
923.333	12924
923.442	12844
923.55	12844
923.659	12871
923.767	12810
923.876	12802
923.984	12871
924.092	12688
924.201	12772
924.309	12760
924.417	12825
924.525	12703
924.633	12738
924.741	13605
924.849	12521
924.956	12589
925.064	12445
925.172	12410
925.279	12536
925.387	12456
925.494	12452
925.602	12631
925.709	12452
925.816	12353
925.924	12399
926.031	12422
926.138	12350
926.245	12479
926.352	12243
926.459	12452
926.566	12403
926.673	12380
926.779	12220
926.886	12213
926.993	12049
927.099	11996
927.206	11961
927.312	12026
927.419	12041
927.525	12053
927.631	11999
927.737	11980
927.843	11828
927.95	11798
928.056	11855
928.162	11824
928.267	11927
928.373	12426
928.479	11901
928.585	11699
928.69	11786
928.796	11866
928.901	11741
929.007	11551
929.112	11726
929.218	11745
929.323	11577
929.428	11554
929.533	11779
929.638	11592
929.743	11627
929.848	11649
929.953	11532
930.058	11459
930.163	11356
930.267	11402
930.372	11463
930.477	11288
930.581	11551
930.685	11341
930.79	11189
930.894	11227
930.998	11223
931.103	11315
931.207	10972
931.311	10839
931.415	10869
931.519	10622
931.623	10580
