Data from test_V78500241_1454.txt Node
Date: Fri Mar 25 15:19:58 CST 2022
User: usil
Spectrometer: V785-0024
Trigger mode: 0
Integration Time (sec): 4.000000E-1
Scans to average: 1
Nonlinearity correction enabled: false
Boxcar width: 0
Storing dark spectrum: false
XAxis mode: Wavelengths
Number of Pixels in Spectrum: 1024
>>>>>Begin Spectral Data<<<<<
801.071	27884
801.214	27819
801.356	27698
801.499	27595
801.641	27317
801.783	27367
801.926	27542
802.068	27526
802.211	27401
802.353	27363
802.496	27184
802.638	27070
802.78	27146
802.923	26895
803.065	27077
803.208	26815
803.35	27165
803.492	27131
803.635	27199
803.777	27032
803.919	27294
804.061	27622
804.204	27427
804.346	27230
804.488	27138
804.63	27329
804.773	27272
804.915	27230
805.057	27557
805.199	27302
805.341	27332
805.483	27534
805.626	27287
805.768	27298
805.91	27287
806.052	27416
806.194	27180
806.336	27542
806.478	27443
806.62	27435
806.762	27485
806.904	27679
807.046	27956
807.188	27869
807.33	27888
807.472	27823
807.614	27766
807.756	27736
807.898	27728
808.04	27663
808.182	27766
808.324	27736
808.465	27675
808.607	27926
808.749	28013
808.891	28131
809.033	28059
809.174	28116
809.316	27979
809.458	28021
809.6	28055
809.741	28196
809.883	28215
810.025	28447
810.166	28344
810.308	28325
810.45	28177
810.591	28223
810.733	28082
810.875	27991
811.016	27972
811.158	27987
811.299	28078
811.441	28112
811.582	28352
811.724	28051
811.865	28032
812.007	27991
812.148	28036
812.29	28078
812.431	28246
812.573	28382
812.714	28440
812.855	28649
812.997	28729
813.138	28869
813.279	28516
813.421	28615
813.562	28599
813.703	28424
813.845	28348
813.986	28044
814.127	27953
814.268	27660
814.41	27759
814.551	27823
814.692	27850
814.833	27751
814.974	27739
815.115	27755
815.256	27500
815.397	27595
815.539	27587
815.68	27610
815.821	27515
815.962	27504
816.103	27644
816.244	27363
816.385	27256
816.526	27211
816.666	27081
816.807	27085
816.948	27001
817.089	27074
817.23	27104
817.371	27116
817.512	26998
817.653	27017
817.793	26998
817.934	27127
818.075	27036
818.216	27013
818.356	26906
818.497	26880
818.638	26750
818.778	26849
818.919	26739
819.06	26937
819.2	26899
819.341	26967
819.481	26899
819.622	27104
819.762	27340
819.903	27192
820.043	27275
820.184	27157
820.324	27222
820.465	27298
820.605	27199
820.746	27070
820.886	26975
821.026	27055
821.167	27074
821.307	27119
821.447	26979
821.588	26883
821.728	26838
821.868	26716
822.008	26339
822.149	26469
822.289	26446
822.429	26332
822.569	26096
822.709	26077
822.849	26069
822.99	25883
823.13	25890
823.27	25845
823.41	25822
823.55	25693
823.69	25921
823.83	25837
823.97	25871
824.11	25609
824.25	25681
824.389	25499
824.529	25685
824.669	25639
824.809	25830
824.949	25712
825.089	25723
825.228	25772
825.368	25430
825.508	25533
825.648	25495
825.787	25540
825.927	25567
826.067	25403
826.206	25350
826.346	25567
826.485	25586
826.625	25514
826.765	25605
826.904	25510
827.044	25320
827.183	25293
827.323	25160
827.462	25236
827.601	25240
827.741	25179
827.88	25202
828.02	25152
828.159	25316
828.298	25160
828.437	25221
828.577	25118
828.716	25331
828.855	25046
828.994	24966
829.134	24951
829.273	25065
829.412	24992
829.551	24829
829.69	24852
829.829	24989
829.968	25008
830.107	24966
830.246	24859
830.385	24791
830.524	24875
830.663	24730
830.802	24578
830.941	24540
831.08	24445
831.219	24661
831.357	24563
831.496	24772
831.635	24494
831.774	24559
831.913	24464
832.051	24429
832.19	24167
832.329	24357
832.467	24209
832.606	24190
832.744	24102
832.883	24148
833.022	24163
833.16	24159
833.299	24216
833.437	24216
833.576	24178
833.714	24159
833.852	24350
833.991	24330
834.129	24327
834.267	24277
834.406	24258
834.544	24194
834.682	24239
834.821	24216
834.959	24357
835.097	24106
835.235	24308
835.373	24213
835.511	24129
835.65	24125
835.788	24102
835.926	23946
836.064	23912
836.202	23863
836.34	24049
836.478	24235
836.615	23923
836.753	24114
836.891	24155
837.029	24110
837.167	23973
837.305	23950
837.443	23832
837.58	23870
837.718	23912
837.856	23980
837.993	23855
838.131	23859
838.269	23840
838.406	23767
838.544	23756
838.681	23520
838.819	23680
838.956	23429
839.094	23402
839.231	23444
839.369	23623
839.506	23691
839.643	23554
839.781	23406
839.918	23315
840.055	23414
840.193	23398
840.33	23261
840.467	23284
840.604	23322
840.742	23478
840.879	23151
841.016	23189
841.153	23227
841.29	23372
841.427	23227
841.564	23315
841.701	23277
841.838	23140
841.975	23136
842.112	23189
842.249	23003
842.385	22999
842.522	23220
842.659	23052
842.796	22976
842.933	22999
843.069	23014
843.206	22930
843.343	23136
843.479	23025
843.616	23003
843.752	22702
843.889	22793
844.025	22949
844.162	22774
844.298	22809
844.435	22843
844.571	22797
844.708	22820
844.844	22889
844.98	22930
845.117	23029
845.253	22767
845.389	22653
845.525	22759
845.661	22630
845.798	22485
845.934	22569
846.07	22481
846.206	22607
846.342	22706
846.478	22592
846.614	22329
846.75	22158
846.886	22318
847.022	22455
847.158	22211
847.294	22234
847.429	22287
847.565	22253
847.701	22459
847.837	22059
847.972	21968
848.108	22086
848.244	22082
848.379	21930
848.515	21903
848.65	21747
848.786	21835
848.921	21922
849.057	21888
849.192	22010
849.328	21892
849.463	21854
849.598	21934
849.734	21675
849.869	21736
850.004	21622
850.14	21599
850.275	21728
850.41	21492
850.545	21606
850.68	21568
850.815	21644
850.95	21622
851.085	21778
851.22	21736
851.355	21648
851.49	21561
851.625	21530
851.76	21473
851.895	21393
852.03	21416
852.165	21660
852.299	21679
852.434	21675
852.569	21705
852.703	21648
852.838	21599
852.973	21785
853.107	21690
853.242	21568
853.376	21534
853.511	21260
853.645	21511
853.78	21450
853.914	21454
854.048	21374
854.183	21313
854.317	21481
854.451	21660
854.585	21435
854.72	21485
854.854	21606
854.988	21450
855.122	21450
855.256	21291
855.39	21393
855.524	21545
855.658	21622
855.792	21564
855.926	21481
856.06	21504
856.194	21515
856.327	21370
856.461	21302
856.595	21416
856.729	21435
856.862	21511
856.996	21511
857.13	21477
857.263	21610
857.397	21519
857.53	21477
857.664	21416
857.797	21466
857.931	21553
858.064	21325
858.197	21523
858.331	21294
858.464	21294
858.597	21268
858.731	21443
858.864	21466
858.997	21317
859.13	21329
859.263	21511
859.396	21420
859.529	21374
859.662	21428
859.795	21435
859.928	21412
860.061	21622
860.194	21587
860.327	21431
860.46	21389
860.592	21511
860.725	21622
860.858	21747
860.99	21526
861.123	21439
861.256	21332
861.388	21443
861.521	21972
861.653	21321
861.786	21146
861.918	21218
862.05	21218
862.183	21252
862.315	21355
862.447	21378
862.58	21294
862.712	21192
862.844	21123
862.976	21070
863.108	21272
863.24	21610
863.372	21047
863.504	21142
863.636	21211
863.768	21112
863.9	21104
864.032	21055
864.164	21150
864.296	21123
864.428	21230
864.559	21169
864.691	21218
864.823	21154
864.954	21150
865.086	21104
865.217	21005
865.349	21096
865.48	21017
865.612	21051
865.743	21169
865.875	21005
866.006	21009
866.137	21043
866.269	21024
866.4	20971
866.531	21036
866.662	20891
866.793	21017
866.924	20811
867.055	20967
867.186	21077
867.317	21013
867.448	20876
867.579	20929
867.71	20861
867.841	20906
867.972	20963
868.103	21043
868.233	20937
868.364	20956
868.495	21127
868.625	21100
868.756	21272
868.886	21150
869.017	21104
869.147	21306
869.278	21302
869.408	21264
869.539	21203
869.669	21317
869.799	21272
869.929	21275
870.06	21359
870.19	21549
870.32	21542
870.45	21625
870.58	21614
870.71	21701
870.84	21736
870.97	21572
871.1	21625
871.23	21816
871.36	21797
871.489	21625
871.619	21759
871.749	21846
871.879	21846
872.008	21979
872.138	21850
872.267	21774
872.397	21500
872.526	21739
872.656	21534
872.785	21698
872.915	21869
873.044	21831
873.173	21903
873.303	21873
873.432	21892
873.561	21918
873.69	21835
873.819	21789
873.948	21876
874.077	21778
874.206	21663
874.335	21835
874.464	21975
874.593	22070
874.722	22036
874.851	22051
874.979	22063
875.108	22112
875.237	21945
875.365	21972
875.494	21930
875.623	22040
875.751	22021
875.88	22055
876.008	22055
876.136	22303
876.265	22470
876.393	22565
876.521	22535
876.65	22542
876.778	22523
876.906	22371
877.034	22303
877.162	22390
877.29	22329
877.418	22409
877.546	22356
877.674	22379
877.802	22325
877.93	22382
878.058	22325
878.185	22314
878.313	22424
878.441	22257
878.568	22207
878.696	22226
878.824	22398
878.951	22367
879.079	22607
879.206	22694
879.333	22500
879.461	22428
879.588	22565
879.715	22516
879.842	22649
879.97	22329
880.097	22249
880.224	22128
880.351	22211
880.478	22200
880.605	22169
880.732	22173
880.859	22516
880.986	22101
881.112	22147
881.239	22086
881.366	21930
881.493	21956
881.619	21827
881.746	21827
881.872	21793
881.999	21755
882.125	21797
882.252	21633
882.378	21705
882.505	21960
882.631	21610
882.757	21473
882.883	21576
883.01	21443
883.136	21454
883.262	21401
883.388	21374
883.514	21542
883.64	21466
883.766	21458
883.892	21207
884.018	21249
884.143	21405
884.269	21389
884.395	21154
884.52	21093
884.646	21298
884.772	21051
884.897	21024
885.023	21203
885.148	21199
885.274	21325
885.399	21275
885.524	21161
885.65	21203
885.775	21089
885.9	21104
886.025	21214
886.15	21188
886.275	21032
886.4	20990
886.525	21043
886.65	21089
886.775	21020
886.9	21154
887.025	21279
887.149	21077
887.274	20994
887.399	20971
887.523	20849
887.648	20788
887.773	20743
887.897	20948
888.021	20853
888.146	20731
888.27	20990
888.395	20902
888.519	20998
888.643	20925
888.767	20963
888.891	20693
889.015	20735
889.139	20697
889.263	20644
889.387	20735
889.511	20857
889.635	20861
889.759	20571
889.883	20705
890.006	20701
890.13	20811
890.254	20530
890.377	20716
890.501	20427
890.624	20396
890.748	20514
890.871	20267
890.995	20240
891.118	20282
891.241	20259
891.364	20278
891.488	20434
891.611	20263
891.734	20313
891.857	20263
891.98	20259
892.103	20328
892.226	20267
892.349	20259
892.471	19978
892.594	20195
892.717	20233
892.839	20088
892.962	20195
893.085	20244
893.207	20161
893.33	20084
893.452	20081
893.575	20115
893.697	20138
893.819	20328
893.941	20336
894.064	20259
894.186	20062
894.308	20005
894.43	20191
894.552	20275
894.674	20214
894.796	20081
894.918	20161
895.04	20115
895.161	20195
895.283	20168
895.405	20016
895.526	20111
895.648	20153
895.769	20183
895.891	20252
896.012	20145
896.134	20221
896.255	20092
896.376	20172
896.498	20069
896.619	20100
896.74	20111
896.861	20149
896.982	20446
897.103	20518
897.224	20423
897.345	20393
897.466	20324
897.587	20355
897.708	20511
897.828	20412
897.949	20339
898.07	20237
898.19	20278
898.311	20431
898.431	20233
898.552	20313
898.672	20423
898.792	20381
898.913	20271
899.033	20328
899.153	20267
899.273	20001
899.393	20096
899.513	20187
899.633	20100
899.753	20119
899.873	19997
899.993	20126
900.113	20092
900.232	20111
900.352	20081
900.472	19913
900.591	19894
900.711	19898
900.83	19833
900.95	20092
901.069	19944
901.189	19791
901.308	19597
901.427	19487
901.546	19552
901.665	19533
901.784	19518
901.904	19419
902.023	19316
902.141	19072
902.26	19000
902.379	19046
902.498	19076
902.617	19019
902.735	19080
902.854	18951
902.973	18966
903.091	18700
903.21	18601
903.328	18589
903.446	18635
903.565	18509
903.683	18620
903.801	18410
903.919	18388
904.038	18486
904.156	18194
904.274	18190
904.392	18220
904.51	18304
904.627	18300
904.745	18262
904.863	18182
904.981	17901
905.098	17961
905.216	17847
905.334	17904
905.451	17958
905.569	17969
905.686	17958
905.803	17980
905.921	17676
906.038	17840
906.155	17718
906.272	17665
906.389	17672
906.506	17406
906.623	17482
906.74	17509
906.857	17353
906.974	17421
907.091	17452
907.208	17543
907.324	17421
907.441	17296
907.557	17242
907.674	17178
907.79	17128
907.907	17212
908.023	17143
908.139	17193
908.256	17079
908.372	17041
908.488	17003
908.604	16896
908.72	16809
908.836	16820
908.952	16866
909.068	16949
909.184	16934
909.3	16908
909.415	16889
909.531	16850
909.647	16679
909.762	16660
909.878	16538
909.993	16637
910.108	16607
910.224	16462
910.339	16675
910.454	16432
910.57	16497
910.685	16333
910.8	16531
910.915	16580
911.03	16257
911.145	16223
911.259	16131
911.374	16192
911.489	16093
911.604	16051
911.718	15899
911.833	15918
911.947	15789
912.062	15622
912.176	15960
912.291	15797
912.405	15915
912.519	16093
912.633	16048
912.748	15975
912.862	15918
912.976	15835
913.09	15564
913.204	15610
913.318	15717
913.431	15797
913.545	15793
913.659	15785
913.772	15671
913.886	15572
914	15549
914.113	15603
914.226	15625
914.34	15584
914.453	15526
914.566	15557
914.68	15496
914.793	15435
914.906	15203
915.019	15138
915.132	15005
915.245	15154
915.358	15104
915.47	15218
915.583	15051
915.696	15135
915.809	15230
915.921	15283
916.034	15001
916.146	15131
916.259	14937
916.371	15241
916.483	15062
916.595	14990
916.708	15116
916.82	14994
916.932	14960
917.044	14952
917.156	14933
917.268	14830
917.38	14792
917.491	14743
917.603	14743
917.715	14830
917.826	14864
917.938	14659
918.049	14541
918.161	14716
918.272	14979
918.384	14891
918.495	14613
918.606	14579
918.717	14602
918.828	14636
918.939	14587
919.05	14492
919.161	14629
919.272	14393
919.383	14412
919.494	14507
919.604	14781
919.715	14537
919.826	14347
919.936	14423
920.047	14537
920.157	14552
920.267	14727
920.378	14488
920.488	14503
920.598	14571
920.708	14845
920.818	14632
920.928	14667
921.038	14819
921.148	14686
921.258	14511
921.368	14446
921.477	14218
921.587	14267
921.697	14149
921.806	14195
921.916	14069
922.025	14012
922.134	13818
922.244	13841
922.353	13967
922.462	13769
922.571	13689
922.68	13521
922.789	13502
922.898	13658
923.007	13540
923.116	13525
923.224	13441
923.333	13453
923.442	13457
923.55	13297
923.659	13472
923.767	13426
923.876	13316
923.984	13346
924.092	13202
924.201	13316
924.309	13278
924.417	13297
924.525	13190
924.633	13213
924.741	14016
924.849	13012
924.956	13198
925.064	12970
925.172	12894
925.279	12897
925.387	12875
925.494	12894
925.602	13091
925.709	13004
925.816	12810
925.924	13000
926.031	12928
926.138	12939
926.245	12977
926.352	12905
926.459	12909
926.566	12954
926.673	12863
926.779	12711
926.886	12700
926.993	12563
927.099	12574
927.206	12559
927.312	12483
927.419	12597
927.525	12547
927.631	12547
927.737	12330
927.843	12376
927.95	12239
928.056	12338
928.162	12308
928.267	12296
928.373	12882
928.479	12395
928.585	12190
928.69	12251
928.796	12357
928.901	12205
929.007	12060
929.112	12285
929.218	12095
929.323	12041
929.428	11988
929.533	12076
929.638	11980
929.743	11977
929.848	12129
929.953	12011
930.058	11828
930.163	11745
930.267	11794
930.372	11916
930.477	11680
930.581	11828
930.685	11760
930.79	11543
930.894	11710
930.998	11630
931.103	11790
931.207	11421
931.311	11231
931.415	11254
931.519	11064
931.623	10991
