Data from test_V78500241_241.txt Node
Date: Fri Mar 25 15:11:32 CST 2022
User: usil
Spectrometer: V785-0024
Trigger mode: 0
Integration Time (sec): 4.000000E-1
Scans to average: 1
Nonlinearity correction enabled: false
Boxcar width: 0
Storing dark spectrum: false
XAxis mode: Wavelengths
Number of Pixels in Spectrum: 1024
>>>>>Begin Spectral Data<<<<<
801.071	28017
801.214	28074
801.356	27838
801.499	27835
801.641	27637
801.783	27660
801.926	27583
802.068	27641
802.211	27564
802.353	27340
802.496	27408
802.638	27298
802.78	27256
802.923	27211
803.065	27154
803.208	27131
803.35	27298
803.492	27306
803.635	27435
803.777	27408
803.919	27389
804.061	27892
804.204	27378
804.346	27207
804.488	27287
804.63	27230
804.773	27272
804.915	27359
805.057	27447
805.199	27401
805.341	27325
805.483	27580
805.626	27443
805.768	27439
805.91	27431
806.052	27359
806.194	27485
806.336	27583
806.478	27488
806.62	27435
806.762	27553
806.904	27819
807.046	28025
807.188	27846
807.33	27987
807.472	27960
807.614	27720
807.756	27854
807.898	27717
808.04	27679
808.182	27785
808.324	27557
808.465	27770
808.607	27842
808.749	27953
808.891	28063
809.033	28348
809.174	28223
809.316	28059
809.458	28021
809.6	28040
809.741	28158
809.883	28063
810.025	28386
810.166	28276
810.308	28360
810.45	28226
810.591	28188
810.733	28070
810.875	28044
811.016	28021
811.158	28025
811.299	28078
811.441	28044
811.582	28063
811.724	27949
811.865	27975
812.007	27934
812.148	27808
812.29	28040
812.431	28188
812.573	28234
812.714	28276
812.855	28527
812.997	28573
813.138	28535
813.279	28645
813.421	28550
813.562	28550
813.703	28390
813.845	28238
813.986	27869
814.127	27720
814.268	27682
814.41	27682
814.551	27545
814.692	27641
814.833	27564
814.974	27622
815.115	27595
815.256	27469
815.397	27488
815.539	27469
815.68	27458
815.821	27355
815.962	27382
816.103	27488
816.244	27256
816.385	27192
816.526	27074
816.666	26872
816.807	26849
816.948	26914
817.089	27020
817.23	26933
817.371	26857
817.512	26807
817.653	26933
817.793	26800
817.934	26857
818.075	26788
818.216	26940
818.356	26693
818.497	26735
818.638	26579
818.778	26549
818.919	26568
819.06	26598
819.2	26788
819.341	26750
819.481	26777
819.622	26925
819.762	27066
819.903	26982
820.043	26880
820.184	26933
820.324	26876
820.465	26986
820.605	26826
820.746	26845
820.886	26629
821.026	26838
821.167	26842
821.307	26815
821.447	26746
821.588	26762
821.728	26613
821.868	26389
822.008	26282
822.149	26294
822.289	26183
822.429	25947
822.569	25887
822.709	25871
822.849	25677
822.99	25639
823.13	25746
823.27	25689
823.41	25620
823.55	25559
823.69	25590
823.83	25434
823.97	25422
824.11	25384
824.25	25255
824.389	25316
824.529	25521
824.669	25358
824.809	25419
824.949	25426
825.089	25354
825.228	25407
825.368	25312
825.508	25274
825.648	25247
825.787	25183
825.927	25244
826.067	25171
826.206	25251
826.346	25304
826.485	25236
826.625	25148
826.765	25240
826.904	25141
827.044	25012
827.183	24894
827.323	24939
827.462	24821
827.601	24935
827.741	24871
827.88	24875
828.02	24757
828.159	24844
828.298	24829
828.437	24943
828.577	24856
828.716	24837
828.855	24749
828.994	24585
829.134	24544
829.273	24494
829.412	24608
829.551	24486
829.69	24616
829.829	24593
829.968	24654
830.107	24528
830.246	24604
830.385	24578
830.524	24513
830.663	24270
830.802	24258
830.941	24121
831.08	24102
831.219	24292
831.357	24258
831.496	24304
831.635	24114
831.774	23942
831.913	24102
832.051	23893
832.19	23923
832.329	23885
832.467	23870
832.606	23779
832.744	23817
832.883	23840
833.022	23779
833.16	23794
833.299	23870
833.437	23855
833.576	23832
833.714	23798
833.852	23802
833.991	23855
834.129	23950
834.267	24022
834.406	23832
834.544	23802
834.682	23859
834.821	23866
834.959	23935
835.097	23878
835.235	23824
835.373	23832
835.511	23809
835.65	23653
835.788	23619
835.926	23592
836.064	23478
836.202	23528
836.34	23729
836.478	23718
836.615	23748
836.753	23600
836.891	23821
837.029	23733
837.167	23707
837.305	23623
837.443	23444
837.58	23558
837.718	23524
837.856	23642
837.993	23395
838.131	23516
838.269	23356
838.406	23406
838.544	23250
838.681	23250
838.819	23162
838.956	22991
839.094	22896
839.231	22987
839.369	23060
839.506	23429
839.643	23208
839.781	22991
839.918	22930
840.055	22995
840.193	22816
840.33	22869
840.467	22873
840.604	22946
840.742	22957
840.879	22713
841.016	22866
841.153	22782
841.29	22877
841.427	22885
841.564	22946
841.701	22900
841.838	22752
841.975	22668
842.112	22713
842.249	22660
842.385	22557
842.522	22877
842.659	22527
842.796	22599
842.933	22489
843.069	22584
843.206	22447
843.343	22679
843.479	22531
843.616	22493
843.752	22367
843.889	22375
844.025	22546
844.162	22398
844.298	22428
844.435	22455
844.571	22280
844.708	22405
844.844	22413
844.98	22413
845.117	22424
845.253	22287
845.389	22253
845.525	22158
845.661	22188
845.798	22040
845.934	22128
846.07	22025
846.206	22181
846.342	22192
846.478	22067
846.614	21915
846.75	21739
846.886	21819
847.022	21865
847.158	21903
847.294	21816
847.429	21770
847.565	21709
847.701	21968
847.837	21618
847.972	21450
848.108	21538
848.244	21644
848.379	21507
848.515	21397
848.65	21317
848.786	21389
848.921	21329
849.057	21454
849.192	21420
849.328	21420
849.463	21272
849.598	21188
849.734	21279
849.869	21298
850.004	21294
850.14	21112
850.275	21150
850.41	20990
850.545	21112
850.68	20948
850.815	21150
850.95	21165
851.085	21241
851.22	21165
851.355	21226
851.49	21146
851.625	21085
851.76	20887
851.895	20982
852.03	20994
852.165	21112
852.299	21176
852.434	21252
852.569	21214
852.703	21123
852.838	21043
852.973	21207
853.107	21135
853.242	20963
853.376	20902
853.511	20868
853.645	20880
853.78	20975
853.914	20887
854.048	20845
854.183	20941
854.317	20872
854.451	21066
854.585	20952
854.72	20937
854.854	20971
854.988	20948
855.122	21051
855.256	20826
855.39	20948
855.524	21013
855.658	20933
855.792	20956
855.926	20982
856.06	20857
856.194	20902
856.327	20891
856.461	20979
856.595	20823
856.729	20941
856.862	20990
856.996	20906
857.13	20906
857.263	21062
857.397	20963
857.53	20902
857.664	20986
857.797	21096
857.931	21127
858.064	20937
858.197	20914
858.331	20921
858.464	20937
858.597	20735
858.731	20754
858.864	20925
858.997	20842
859.13	20819
859.263	20914
859.396	21017
859.529	20830
859.662	20910
859.795	20754
859.928	20826
860.061	21055
860.194	21165
860.327	21024
860.46	20902
860.592	20963
860.725	20979
860.858	21066
860.99	20929
861.123	20769
861.256	20762
861.388	20849
861.521	21538
861.653	20743
861.786	20613
861.918	20785
862.05	20750
862.183	20883
862.315	20876
862.447	20895
862.58	20868
862.712	20712
862.844	20621
862.976	20705
863.108	20568
863.24	21089
863.372	20556
863.504	20556
863.636	20480
863.768	20621
863.9	20629
864.032	20495
864.164	20609
864.296	20587
864.428	20587
864.559	20590
864.691	20651
864.823	20381
864.954	20480
865.086	20575
865.217	20575
865.349	20552
865.48	20492
865.612	20530
865.743	20583
865.875	20560
866.006	20480
866.137	20488
866.269	20393
866.4	20381
866.531	20408
866.662	20389
866.793	20332
866.924	20377
867.055	20446
867.186	20412
867.317	20408
867.448	20290
867.579	20339
867.71	20423
867.841	20286
867.972	20530
868.103	20389
868.233	20389
868.364	20537
868.495	20552
868.625	20625
868.756	20735
868.886	20594
869.017	20716
869.147	20830
869.278	20815
869.408	20727
869.539	20640
869.669	20819
869.799	20678
869.929	20788
870.06	20735
870.19	20971
870.32	20994
870.45	20899
870.58	21135
870.71	21089
870.84	21199
870.97	21123
871.1	20994
871.23	21294
871.36	21214
871.489	21127
871.619	21188
871.749	21199
871.879	21207
872.008	21230
872.138	21233
872.267	21157
872.397	21123
872.526	21066
872.656	21116
872.785	21161
872.915	21325
873.044	21348
873.173	21233
873.303	21378
873.432	21313
873.561	21443
873.69	21321
873.819	21237
873.948	21336
874.077	21348
874.206	21260
874.335	21359
874.464	21363
874.593	21466
874.722	21412
874.851	21549
874.979	21561
875.108	21591
875.237	21416
875.365	21329
875.494	21500
875.623	21622
875.751	21450
875.88	21717
876.008	21663
876.136	21789
876.265	21918
876.393	22010
876.521	21930
876.65	22112
876.778	21956
876.906	21892
877.034	21842
877.162	21850
877.29	21762
877.418	21747
877.546	21842
877.674	21850
877.802	21808
877.93	21895
878.058	21937
878.185	21751
878.313	21857
878.441	21812
878.568	21850
878.696	21869
878.824	21918
878.951	22017
879.079	22055
879.206	22219
879.333	22128
879.461	21873
879.588	22021
879.715	22036
879.842	22105
879.97	21865
880.097	21663
880.224	21743
880.351	21690
880.478	21667
880.605	21713
880.732	21728
880.859	21907
880.986	21675
881.112	21561
881.239	21553
881.366	21431
881.493	21424
881.619	21272
881.746	21226
881.872	21272
881.999	21294
882.125	21199
882.252	21329
882.378	21245
882.505	21466
882.631	21081
882.757	21055
882.883	21043
883.01	21085
883.136	20933
883.262	20914
883.388	20842
883.514	21009
883.64	21043
883.766	20948
883.892	20762
884.018	20929
884.143	20975
884.269	20952
884.395	20644
884.52	20678
884.646	20648
884.772	20617
884.897	20545
885.023	20587
885.148	20724
885.274	20682
885.399	20670
885.524	20701
885.65	20663
885.775	20579
885.9	20575
886.025	20674
886.15	20777
886.275	20590
886.4	20507
886.525	20579
886.65	20537
886.775	20606
886.9	20644
887.025	20811
887.149	20632
887.274	20400
887.399	20415
887.523	20336
887.648	20290
887.773	20347
887.897	20454
888.021	20347
888.146	20419
888.27	20549
888.395	20518
888.519	20389
888.643	20317
888.767	20450
888.891	20290
889.015	20206
889.139	20244
889.263	20191
889.387	20317
889.511	20419
889.635	20206
889.759	20301
889.883	20229
890.006	20237
890.13	20267
890.254	20176
890.377	20035
890.501	19868
890.624	19986
890.748	19967
890.871	19791
890.995	19826
891.118	19746
891.241	19780
891.364	19693
891.488	19928
891.611	19750
891.734	19746
891.857	19731
891.98	19765
892.103	19807
892.226	19704
892.349	19662
892.471	19563
892.594	19658
892.717	19620
892.839	19575
892.962	19639
893.085	19609
893.207	19708
893.33	19491
893.452	19609
893.575	19795
893.697	19639
893.819	19849
893.941	19769
894.064	19784
894.186	19613
894.308	19521
894.43	19799
894.552	19818
894.674	19723
894.796	19457
894.918	19575
895.04	19544
895.161	19753
895.283	19727
895.405	19704
895.526	19643
895.648	19685
895.769	19628
895.891	19803
896.012	19731
896.134	19696
896.255	19750
896.376	19578
896.498	19704
896.619	19742
896.74	19765
896.861	19769
896.982	20088
897.103	20256
897.224	20031
897.345	19852
897.466	19811
897.587	19875
897.708	20020
897.828	19940
897.949	19898
898.07	19807
898.19	19696
898.311	19932
898.431	19906
898.552	19902
898.672	19947
898.792	19932
898.913	19936
899.033	19811
899.153	19689
899.273	19632
899.393	19666
899.513	19624
899.633	19548
899.753	19712
899.873	19529
899.993	19719
900.113	19540
900.232	19635
900.352	19605
900.472	19518
900.591	19377
900.711	19491
900.83	19464
900.95	19445
901.069	19514
901.189	19407
901.308	19129
901.427	19004
901.546	19103
901.665	19095
901.784	18962
901.904	18776
902.023	18764
902.141	18604
902.26	18578
902.379	18627
902.498	18498
902.617	18464
902.735	18525
902.854	18475
902.973	18342
903.091	18110
903.21	18144
903.328	18194
903.446	18190
903.565	18015
903.683	18026
903.801	17916
903.919	18007
904.038	17954
904.156	17756
904.274	17798
904.392	17828
904.51	17680
904.627	17726
904.745	17882
904.863	17901
904.981	17562
905.098	17474
905.216	17436
905.334	17570
905.451	17543
905.569	17398
905.686	17493
905.803	17448
905.921	17277
906.038	17341
906.155	17254
906.272	17140
906.389	17174
906.506	17022
906.623	17022
906.74	16972
906.857	16858
906.974	16854
907.091	16961
907.208	17083
907.324	16934
907.441	16854
907.557	16858
907.674	16694
907.79	16679
907.907	16622
908.023	16630
908.139	16622
908.256	16596
908.372	16504
908.488	16573
908.604	16455
908.72	16432
908.836	16481
908.952	16402
909.068	16421
909.184	16485
909.3	16352
909.415	16519
909.531	16382
909.647	16097
909.762	15998
909.878	16025
909.993	16101
910.108	16055
910.224	15991
910.339	16006
910.454	16017
910.57	15922
910.685	15884
910.8	16090
910.915	16017
911.03	15956
911.145	15686
911.259	15789
911.374	15709
911.489	15648
911.604	15553
911.718	15428
911.833	15416
911.947	15355
912.062	15184
912.176	15344
912.291	15344
912.405	15424
912.519	15587
912.633	15530
912.748	15405
912.862	15367
912.976	15260
913.09	15211
913.204	15321
913.318	15291
913.431	15393
913.545	15340
913.659	15302
913.772	15237
913.886	15184
914	15055
914.113	15138
914.226	15138
914.34	15131
914.453	14986
914.566	15093
914.68	14929
914.793	14963
914.906	14861
915.019	14739
915.132	14617
915.245	14640
915.358	14739
915.47	14712
915.583	14731
915.696	14750
915.809	14819
915.921	14864
916.034	14579
916.146	14499
916.259	14594
916.371	14667
916.483	14670
916.595	14575
916.708	14541
916.82	14393
916.932	14488
917.044	14454
917.156	14431
917.268	14328
917.38	14370
917.491	14347
917.603	14366
917.715	14442
917.826	14328
917.938	14290
918.049	14229
918.161	14252
918.272	14389
918.384	14419
918.495	14221
918.606	14077
918.717	14016
918.828	14240
918.939	14145
919.05	13982
919.161	14126
919.272	13883
919.383	13928
919.494	14088
919.604	14252
919.715	14096
919.826	14024
919.936	14069
920.047	14199
920.157	14046
920.267	14259
920.378	14016
920.488	14024
920.598	14248
920.708	14343
920.818	14267
920.928	14240
921.038	14347
921.148	14309
921.258	13982
921.368	13928
921.477	13765
921.587	13879
921.697	13647
921.806	13845
921.916	13559
922.025	13506
922.134	13514
922.244	13343
922.353	13525
922.462	13362
922.571	13335
922.68	13122
922.789	13027
922.898	13095
923.007	12962
923.116	13103
923.224	13065
923.333	13088
923.442	12905
923.55	12913
923.659	12947
923.767	12924
923.876	12886
923.984	12951
924.092	12802
924.201	12905
924.309	12848
924.417	12886
924.525	12772
924.633	12802
924.741	13514
924.849	12646
924.956	12764
925.064	12582
925.172	12513
925.279	12570
925.387	12460
925.494	12521
925.602	12669
925.709	12547
925.816	12452
925.924	12448
926.031	12498
926.138	12464
926.245	12433
926.352	12433
926.459	12547
926.566	12490
926.673	12517
926.779	12311
926.886	12300
926.993	12114
927.099	12144
927.206	12095
927.312	12045
927.419	12140
927.525	12053
927.631	12155
927.737	12053
927.843	11950
927.95	11836
928.056	11961
928.162	11912
928.267	12019
928.373	12555
928.479	12026
928.585	11737
928.69	11901
928.796	11942
928.901	11847
929.007	11729
929.112	11722
929.218	11707
929.323	11672
929.428	11642
929.533	11783
929.638	11611
929.743	11733
929.848	11646
929.953	11665
930.058	11551
930.163	11353
930.267	11326
930.372	11509
930.477	11345
930.581	11539
930.685	11448
930.79	11166
930.894	11318
930.998	11296
931.103	11334
931.207	10942
931.311	10930
931.415	10885
931.519	10649
931.623	10641
