Data from test_V78500241_2424.txt Node
Date: Fri Mar 25 15:26:44 CST 2022
User: usil
Spectrometer: V785-0024
Trigger mode: 0
Integration Time (sec): 4.000000E-1
Scans to average: 1
Nonlinearity correction enabled: false
Boxcar width: 0
Storing dark spectrum: false
XAxis mode: Wavelengths
Number of Pixels in Spectrum: 1024
>>>>>Begin Spectral Data<<<<<
801.071	27218
801.214	27119
801.356	26937
801.499	26781
801.641	26716
801.783	26686
801.926	26876
802.068	26754
802.211	26724
802.353	26606
802.496	26530
802.638	26366
802.78	26298
802.923	26267
803.065	26233
803.208	26267
803.35	26244
803.492	26446
803.635	26549
803.777	26427
803.919	26442
804.061	26796
804.204	26621
804.346	26587
804.488	26492
804.63	26522
804.773	26495
804.915	26530
805.057	26678
805.199	26537
805.341	26609
805.483	26537
805.626	26762
805.768	26503
805.91	26598
806.052	26632
806.194	26674
806.336	26914
806.478	26674
806.62	26613
806.762	26796
806.904	26838
807.046	26963
807.188	27093
807.33	26929
807.472	27116
807.614	26998
807.756	27093
807.898	26918
808.04	26902
808.182	26887
808.324	26895
808.465	26990
808.607	27218
808.749	27294
808.891	27351
809.033	27424
809.174	27150
809.316	27127
809.458	27275
809.6	27268
809.741	27492
809.883	27412
810.025	27454
810.166	27648
810.308	27477
810.45	27408
810.591	27325
810.733	27169
810.875	27241
811.016	27123
811.158	27123
811.299	27275
811.441	27393
811.582	27336
811.724	27355
811.865	27192
812.007	27222
812.148	27306
812.29	27329
812.431	27412
812.573	27629
812.714	27641
812.855	27610
812.997	27876
813.138	27975
813.279	27884
813.421	27747
813.562	27774
813.703	27542
813.845	27450
813.986	27100
814.127	27074
814.268	26804
814.41	26986
814.551	26804
814.692	27017
814.833	26948
814.974	26902
815.115	26929
815.256	26792
815.397	26765
815.539	26811
815.68	26674
815.821	26522
815.962	26667
816.103	26625
816.244	26571
816.385	26488
816.526	26469
816.666	26313
816.807	26138
816.948	26218
817.089	26415
817.23	26157
817.371	26168
817.512	26195
817.653	26088
817.793	26016
817.934	26161
818.075	26271
818.216	26130
818.356	26119
818.497	26027
818.638	25928
818.778	25860
818.919	25951
819.06	25993
819.2	25902
819.341	26172
819.481	26176
819.622	26172
819.762	26400
819.903	26355
820.043	26317
820.184	26313
820.324	26195
820.465	26290
820.605	26183
820.746	26259
820.886	26229
821.026	26153
821.167	26218
821.307	26412
821.447	26183
821.588	26058
821.728	25974
821.868	25681
822.008	25700
822.149	25628
822.289	25624
822.429	25468
822.569	25308
822.709	25384
822.849	25187
822.99	25137
823.13	25107
823.27	25152
823.41	24970
823.55	24920
823.69	24966
823.83	24962
823.97	24821
824.11	24741
824.25	24601
824.389	24726
824.529	24719
824.669	24749
824.809	24901
824.949	24791
825.089	24943
825.228	24757
825.368	24692
825.508	24540
825.648	24627
825.787	24578
825.927	24616
826.067	24589
826.206	24505
826.346	24692
826.485	24650
826.625	24696
826.765	24665
826.904	24665
827.044	24334
827.183	24563
827.323	24353
827.462	24388
827.601	24372
827.741	24426
827.88	24376
828.02	24266
828.159	24258
828.298	24346
828.437	24372
828.577	24384
828.716	24395
828.855	24262
828.994	24091
829.134	23901
829.273	24076
829.412	24018
829.551	24011
829.69	24034
829.829	24114
829.968	24144
830.107	24129
830.246	24076
830.385	24030
830.524	23942
830.663	23824
830.802	23863
830.941	23646
831.08	23623
831.219	23646
831.357	23710
831.496	23965
831.635	23691
831.774	23623
831.913	23649
832.051	23467
832.19	23444
832.329	23512
832.467	23345
832.606	23246
832.744	23269
832.883	23402
833.022	23303
833.16	23296
833.299	23414
833.437	23433
833.576	23414
833.714	23455
833.852	23509
833.991	23433
834.129	23387
834.267	23463
834.406	23433
834.544	23315
834.682	23379
834.821	23497
834.959	23581
835.097	23398
835.235	23486
835.373	23512
835.511	23391
835.65	23155
835.788	23216
835.926	23143
836.064	22919
836.202	23041
836.34	23269
836.478	23391
836.615	23200
836.753	23269
836.891	23239
837.029	23235
837.167	23204
837.305	23269
837.443	23132
837.58	23128
837.718	23064
837.856	23140
837.993	23048
838.131	23159
838.269	22984
838.406	23022
838.544	22934
838.681	22843
838.819	22717
838.956	22500
839.094	22649
839.231	22535
839.369	22816
839.506	22995
839.643	22767
839.781	22683
839.918	22535
840.055	22565
840.193	22546
840.33	22478
840.467	22542
840.604	22436
840.742	22740
840.879	22314
841.016	22360
841.153	22390
841.29	22500
841.427	22557
841.564	22466
841.701	22531
841.838	22440
841.975	22398
842.112	22341
842.249	22246
842.385	22287
842.522	22424
842.659	22322
842.796	22139
842.933	22379
843.069	22154
843.206	22192
843.343	22265
843.479	22253
843.616	22207
843.752	22143
843.889	22017
844.025	22196
844.162	21994
844.298	22158
844.435	22013
844.571	22044
844.708	21994
844.844	22242
844.98	22280
845.117	22192
845.253	21857
845.389	21873
845.525	22040
845.661	21857
845.798	21804
845.934	21846
846.07	21736
846.206	21857
846.342	21960
846.478	21755
846.614	21599
846.75	21420
846.886	21462
847.022	21603
847.158	21568
847.294	21603
847.429	21614
847.565	21549
847.701	21759
847.837	21180
847.972	21283
848.108	21348
848.244	21199
848.379	21127
848.515	21142
848.65	21119
848.786	21157
848.921	21085
849.057	21192
849.192	21233
849.328	21222
849.463	21127
849.598	21123
849.734	21005
849.869	21001
850.004	20918
850.14	21043
850.275	20937
850.41	20823
850.545	20887
850.68	20739
850.815	20910
850.95	20960
851.085	21074
851.22	21009
851.355	20986
851.49	20937
851.625	20811
851.76	20826
851.895	20632
852.03	20807
852.165	20895
852.299	20872
852.434	20979
852.569	20933
852.703	20830
852.838	20990
852.973	20933
853.107	20929
853.242	20868
853.376	20689
853.511	20613
853.645	20648
853.78	20925
853.914	20739
854.048	20667
854.183	20644
854.317	20693
854.451	20826
854.585	20697
854.72	20594
854.854	20811
854.988	20499
855.122	20644
855.256	20434
855.39	20598
855.524	20651
855.658	20811
855.792	20678
855.926	20758
856.06	20712
856.194	20746
856.327	20522
856.461	20697
856.595	20579
856.729	20667
856.862	20834
856.996	20819
857.13	20762
857.263	20804
857.397	20712
857.53	20785
857.664	20686
857.797	20819
857.931	20815
858.064	20746
858.197	20724
858.331	20777
858.464	20636
858.597	20598
858.731	20678
858.864	20712
858.997	20625
859.13	20686
859.263	20705
859.396	20746
859.529	20727
859.662	20587
859.795	20659
859.928	20750
860.061	20788
860.194	20952
860.327	20773
860.46	20689
860.592	20705
860.725	20804
860.858	20811
860.99	20705
861.123	20689
861.256	20674
861.388	20621
861.521	21272
861.653	20507
861.786	20518
861.918	20587
862.05	20571
862.183	20541
862.315	20568
862.447	20739
862.58	20484
862.712	20465
862.844	20537
862.976	20518
863.108	20488
863.24	20788
863.372	20393
863.504	20427
863.636	20343
863.768	20442
863.9	20396
864.032	20415
864.164	20419
864.296	20415
864.428	20530
864.559	20476
864.691	20351
864.823	20404
864.954	20366
865.086	20370
865.217	20351
865.349	20176
865.48	20442
865.612	20385
865.743	20590
865.875	20320
866.006	20305
866.137	20267
866.269	20187
866.4	20282
866.531	20396
866.662	20271
866.793	20252
866.924	20328
867.055	20336
867.186	20400
867.317	20240
867.448	20134
867.579	20252
867.71	20134
867.841	20202
867.972	20214
868.103	20328
868.233	20153
868.364	20320
868.495	20385
868.625	20484
868.756	20552
868.886	20385
869.017	20533
869.147	20644
869.278	20678
869.408	20583
869.539	20488
869.669	20541
869.799	20568
869.929	20750
870.06	20686
870.19	20712
870.32	20769
870.45	20910
870.58	20819
870.71	20971
870.84	21024
870.97	20975
871.1	20849
871.23	21089
871.36	21146
871.489	20891
871.619	21089
871.749	21096
871.879	21089
872.008	21310
872.138	21055
872.267	21211
872.397	21043
872.526	20975
872.656	20948
872.785	21024
872.915	21192
873.044	21180
873.173	21157
873.303	21116
873.432	21298
873.561	21192
873.69	21146
873.819	21203
873.948	21226
874.077	21135
874.206	21039
874.335	21214
874.464	21325
874.593	21420
874.722	21306
874.851	21325
874.979	21252
875.108	21462
875.237	21412
875.365	21195
875.494	21389
875.623	21515
875.751	21424
875.88	21447
876.008	21447
876.136	21564
876.265	21682
876.393	21876
876.521	21854
876.65	21945
876.778	21797
876.906	21656
877.034	21667
877.162	21679
877.29	21637
877.418	21667
877.546	21800
877.674	21705
877.802	21671
877.93	21766
878.058	21671
878.185	21583
878.313	21644
878.441	21762
878.568	21507
878.696	21595
878.824	21743
878.951	21793
879.079	21865
879.206	21930
879.333	21827
879.461	21793
879.588	21850
879.715	21835
879.842	21922
879.97	21781
880.097	21519
880.224	21606
880.351	21523
880.478	21553
880.605	21488
880.732	21610
880.859	21838
880.986	21606
881.112	21660
881.239	21382
881.366	21291
881.493	21211
881.619	21081
881.746	21116
881.872	21287
881.999	21089
882.125	21180
882.252	21184
882.378	20982
882.505	21142
882.631	20902
882.757	20963
882.883	20895
883.01	20921
883.136	20872
883.262	20720
883.388	20689
883.514	20731
883.64	20788
883.766	20689
883.892	20579
884.018	20644
884.143	20731
884.269	20899
884.395	20511
884.52	20423
884.646	20526
884.772	20511
884.897	20351
885.023	20511
885.148	20663
885.274	20670
885.399	20632
885.524	20408
885.65	20587
885.775	20530
885.9	20514
886.025	20590
886.15	20530
886.275	20336
886.4	20362
886.525	20499
886.65	20313
886.775	20385
886.9	20583
887.025	20609
887.149	20476
887.274	20305
887.399	20294
887.523	20347
887.648	20256
887.773	20229
887.897	20366
888.021	20343
888.146	20240
888.27	20328
888.395	20351
888.519	20298
888.643	20263
888.767	20282
888.891	20073
889.015	20081
889.139	20126
889.263	20081
889.387	20145
889.511	20275
889.635	20176
889.759	20103
889.883	19978
890.006	20142
890.13	20046
890.254	20058
890.377	19864
890.501	19921
890.624	19761
890.748	19776
890.871	19734
890.995	19689
891.118	19601
891.241	19712
891.364	19594
891.488	19795
891.611	19704
891.734	19689
891.857	19689
891.98	19597
892.103	19708
892.226	19723
892.349	19540
892.471	19464
892.594	19533
892.717	19548
892.839	19582
892.962	19651
893.085	19578
893.207	19624
893.33	19525
893.452	19419
893.575	19544
893.697	19411
893.819	19776
893.941	19696
894.064	19723
894.186	19620
894.308	19464
894.43	19548
894.552	19723
894.674	19571
894.796	19449
894.918	19639
895.04	19521
895.161	19693
895.283	19670
895.405	19518
895.526	19571
895.648	19464
895.769	19674
895.891	19620
896.012	19624
896.134	19719
896.255	19499
896.376	19533
896.498	19518
896.619	19651
896.74	19540
896.861	19734
896.982	19879
897.103	19970
897.224	19845
897.345	19784
897.466	19765
897.587	19811
897.708	19849
897.828	19898
897.949	19689
898.07	19609
898.19	19845
898.311	19890
898.431	19738
898.552	19833
898.672	19875
898.792	19959
898.913	19807
899.033	19693
899.153	19613
899.273	19480
899.393	19537
899.513	19533
899.633	19552
899.753	19548
899.873	19400
899.993	19506
900.113	19537
900.232	19590
900.352	19521
900.472	19346
900.591	19335
900.711	19388
900.83	19415
900.95	19392
901.069	19392
901.189	19228
901.308	19069
901.427	18981
901.546	19015
901.665	19050
901.784	18943
901.904	18859
902.023	18639
902.141	18513
902.26	18585
902.379	18525
902.498	18441
902.617	18448
902.735	18528
902.854	18445
902.973	18338
903.091	18129
903.21	18106
903.328	18087
903.446	18076
903.565	17942
903.683	17904
903.801	17836
903.919	17863
904.038	17923
904.156	17710
904.274	17878
904.392	17680
904.51	17729
904.627	17714
904.745	17756
904.863	17695
904.981	17501
905.098	17387
905.216	17330
905.334	17356
905.451	17452
905.569	17452
905.686	17463
905.803	17463
905.921	17193
906.038	17379
906.155	17212
906.272	17056
906.389	17060
906.506	16915
906.623	16869
906.74	16942
906.857	16801
906.974	16866
907.091	16965
907.208	17010
907.324	16892
907.441	16835
907.557	16634
907.674	16755
907.79	16611
907.907	16596
908.023	16767
908.139	16618
908.256	16592
908.372	16626
908.488	16565
908.604	16341
908.72	16409
908.836	16421
908.952	16379
909.068	16466
909.184	16394
909.3	16367
909.415	16337
909.531	16284
909.647	16143
909.762	16067
909.878	16078
909.993	16101
910.108	16013
910.224	16116
910.339	16074
910.454	15956
910.57	15918
910.685	15804
910.8	16032
910.915	16010
911.03	15846
911.145	15679
911.259	15625
911.374	15682
911.489	15568
911.604	15580
911.718	15443
911.833	15447
911.947	15416
912.062	15291
912.176	15348
912.291	15450
912.405	15405
912.519	15622
912.633	15561
912.748	15511
912.862	15515
912.976	15294
913.09	15165
913.204	15188
913.318	15249
913.431	15435
913.545	15348
913.659	15435
913.772	15192
913.886	15097
914	15009
914.113	15123
914.226	15161
914.34	15226
914.453	14910
914.566	15066
914.68	14975
914.793	14861
914.906	14788
915.019	14701
915.132	14556
915.245	14731
915.358	14655
915.47	14686
915.583	14712
915.696	14689
915.809	14743
915.921	14765
916.034	14571
916.146	14511
916.259	14590
916.371	14693
916.483	14667
916.595	14549
916.708	14545
916.82	14579
916.932	14450
917.044	14446
917.156	14461
917.268	14347
917.38	14320
917.491	14240
917.603	14347
917.715	14442
917.826	14507
917.938	14263
918.049	14161
918.161	14374
918.272	14434
918.384	14450
918.495	14328
918.606	14172
918.717	14039
918.828	14107
918.939	14077
919.05	14046
919.161	14103
919.272	13894
919.383	13940
919.494	14107
919.604	14282
919.715	14180
919.826	13940
919.936	14024
920.047	14142
920.157	14103
920.267	14317
920.378	14164
920.488	14062
920.598	14233
920.708	14358
920.818	14210
920.928	14252
921.038	14381
921.148	14339
921.258	14050
921.368	14012
921.477	13841
921.587	13940
921.697	13708
921.806	13852
921.916	13651
922.025	13559
922.134	13464
922.244	13445
922.353	13521
922.462	13373
922.571	13282
922.68	13278
922.789	13057
922.898	13168
923.007	13122
923.116	13141
923.224	13183
923.333	13164
923.442	13004
923.55	12958
923.659	12981
923.767	13034
923.876	12932
923.984	13008
924.092	12890
924.201	12939
924.309	12863
924.417	12901
924.525	12867
924.633	12821
924.741	13761
924.849	12646
924.956	12798
925.064	12623
925.172	12570
925.279	12521
925.387	12574
925.494	12677
925.602	12749
925.709	12677
925.816	12536
925.924	12528
926.031	12589
926.138	12536
926.245	12585
926.352	12445
926.459	12604
926.566	12642
926.673	12498
926.779	12350
926.886	12372
926.993	12239
927.099	12152
927.206	12091
927.312	12155
927.419	12266
927.525	12247
927.631	12190
927.737	12133
927.843	12068
927.95	11954
928.056	12041
928.162	12030
928.267	12083
928.373	12669
928.479	12148
928.585	11863
928.69	11996
928.796	11988
928.901	11939
929.007	11745
929.112	11897
929.218	11859
929.323	11786
929.428	11771
929.533	11882
929.638	11653
929.743	11646
929.848	11836
929.953	11688
930.058	11615
930.163	11486
930.267	11436
930.372	11592
930.477	11478
930.581	11592
930.685	11501
930.79	11360
930.894	11395
930.998	11322
931.103	11448
931.207	11067
931.311	11010
931.415	10938
931.519	10801
931.623	10782
