Data from test_V78500241_3507.txt Node
Date: Fri Mar 25 15:34:16 CST 2022
User: usil
Spectrometer: V785-0024
Trigger mode: 0
Integration Time (sec): 4.000000E-1
Scans to average: 1
Nonlinearity correction enabled: false
Boxcar width: 0
Storing dark spectrum: false
XAxis mode: Wavelengths
Number of Pixels in Spectrum: 1024
>>>>>Begin Spectral Data<<<<<
801.071	27473
801.214	27264
801.356	27077
801.499	27074
801.641	26929
801.783	26937
801.926	26979
802.068	26838
802.211	26895
802.353	26598
802.496	26708
802.638	26549
802.78	26385
802.923	26313
803.065	26419
803.208	26374
803.35	26507
803.492	26693
803.635	26739
803.777	26609
803.919	26708
804.061	27039
804.204	26651
804.346	26617
804.488	26571
804.63	26670
804.773	26442
804.915	26640
805.057	26765
805.199	26606
805.341	26754
805.483	26918
805.626	26765
805.768	26750
805.91	26902
806.052	26819
806.194	26697
806.336	27047
806.478	26838
806.62	26857
806.762	26918
806.904	26899
807.046	27203
807.188	27233
807.33	27291
807.472	27245
807.614	27096
807.756	27218
807.898	27013
808.04	27028
808.182	27043
808.324	27085
808.465	27127
808.607	27237
808.749	27488
808.891	27458
809.033	27580
809.174	27443
809.316	27313
809.458	27469
809.6	27313
809.741	27622
809.883	27416
810.025	27568
810.166	27698
810.308	27504
810.45	27587
810.591	27545
810.733	27530
810.875	27370
811.016	27302
811.158	27317
811.299	27519
811.441	27526
811.582	27511
811.724	27169
811.865	27382
812.007	27462
812.148	27294
812.29	27458
812.431	27629
812.573	27667
812.714	27816
812.855	27850
812.997	27880
813.138	28131
813.279	28067
813.421	27945
813.562	27755
813.703	27709
813.845	27568
813.986	27256
814.127	27294
814.268	26979
814.41	26979
814.551	26876
814.692	27157
814.833	26990
814.974	26906
815.115	27028
815.256	26826
815.397	26948
815.539	26823
815.68	26781
815.821	26849
815.962	26731
816.103	26792
816.244	26686
816.385	26632
816.526	26617
816.666	26530
816.807	26343
816.948	26415
817.089	26400
817.23	26328
817.371	26381
817.512	26389
817.653	26347
817.793	26301
817.934	26484
818.075	26172
818.216	26332
818.356	26187
818.497	26282
818.638	25986
818.778	26096
818.919	26001
819.06	26248
819.2	26282
819.341	26248
819.481	26362
819.622	26267
819.762	26640
819.903	26480
820.043	26431
820.184	26377
820.324	26343
820.465	26446
820.605	26336
820.746	26404
820.886	26305
821.026	26396
821.167	26381
821.307	26457
821.447	26351
821.588	26309
821.728	25955
821.868	25868
822.008	25871
822.149	25833
822.289	25776
822.429	25430
822.569	25472
822.709	25563
822.849	25343
822.99	25251
823.13	25270
823.27	25160
823.41	25126
823.55	25008
823.69	25027
823.83	25095
823.97	25164
824.11	24954
824.25	24966
824.389	24814
824.529	24886
824.669	24981
824.809	25057
824.949	25042
825.089	25015
825.228	25080
825.368	24806
825.508	24677
825.648	24776
825.787	24764
825.927	24806
826.067	24639
826.206	24848
826.346	24867
826.485	24840
826.625	24840
826.765	24916
826.904	24779
827.044	24642
827.183	24639
827.323	24635
827.462	24585
827.601	24456
827.741	24494
827.88	24513
828.02	24330
828.159	24422
828.298	24372
828.437	24528
828.577	24494
828.716	24471
828.855	24319
828.994	24224
829.134	24270
829.273	24258
829.412	24235
829.551	24228
829.69	24247
829.829	24239
829.968	24186
830.107	24330
830.246	24334
830.385	24060
830.524	24072
830.663	23988
830.802	23885
830.941	23809
831.08	23870
831.219	23882
831.357	23665
831.496	24057
831.635	23908
831.774	23760
831.913	23699
832.051	23695
832.19	23452
832.329	23608
832.467	23531
832.606	23440
832.744	23505
832.883	23627
833.022	23364
833.16	23570
833.299	23505
833.437	23562
833.576	23566
833.714	23551
833.852	23646
833.991	23611
834.129	23748
834.267	23653
834.406	23687
834.544	23539
834.682	23467
834.821	23505
834.959	23657
835.097	23573
835.235	23600
835.373	23486
835.511	23539
835.65	23387
835.788	23455
835.926	23277
836.064	23216
836.202	23307
836.34	23459
836.478	23497
836.615	23303
836.753	23376
836.891	23349
837.029	23364
837.167	23467
837.305	23322
837.443	23220
837.58	23246
837.718	23242
837.856	23231
837.993	23181
838.131	23284
838.269	23242
838.406	23166
838.544	22999
838.681	22881
838.819	22957
838.956	22759
839.094	22774
839.231	22812
839.369	22877
839.506	23178
839.643	23014
839.781	22767
839.918	22786
840.055	22778
840.193	22744
840.33	22637
840.467	22755
840.604	22854
840.742	22877
840.879	22527
841.016	22565
841.153	22687
841.29	22782
841.427	22672
841.564	22698
841.701	22630
841.838	22668
841.975	22626
842.112	22561
842.249	22504
842.385	22352
842.522	22645
842.659	22489
842.796	22325
842.933	22485
843.069	22291
843.206	22341
843.343	22497
843.479	22405
843.616	22577
843.752	22177
843.889	22234
844.025	22455
844.162	22284
844.298	22436
844.435	22284
844.571	22185
844.708	22337
844.844	22322
844.98	22363
845.117	22333
845.253	22310
845.389	22036
845.525	22105
845.661	22010
845.798	21960
845.934	21991
846.07	21964
846.206	22032
846.342	21937
846.478	21884
846.614	21778
846.75	21720
846.886	21812
847.022	21800
847.158	21751
847.294	21762
847.429	21614
847.565	21625
847.701	22017
847.837	21424
847.972	21443
848.108	21542
848.244	21412
848.379	21428
848.515	21443
848.65	21275
848.786	21378
848.921	21302
849.057	21428
849.192	21458
849.328	21408
849.463	21313
849.598	21397
849.734	21222
849.869	21104
850.004	21070
850.14	21112
850.275	20994
850.41	21146
850.545	21062
850.68	21020
850.815	21146
850.95	21047
851.085	21146
851.22	21142
851.355	21207
851.49	20963
851.625	21017
851.76	20994
851.895	20990
852.03	20967
852.165	21028
852.299	21020
852.434	21108
852.569	21108
852.703	21096
852.838	20982
852.973	21176
853.107	21241
853.242	21036
853.376	20918
853.511	20720
853.645	20845
853.78	20944
853.914	20914
854.048	20765
854.183	20883
854.317	20887
854.451	21093
854.585	20895
854.72	20830
854.854	20792
854.988	20868
855.122	20918
855.256	20823
855.39	20838
855.524	20777
855.658	20845
855.792	20754
855.926	20895
856.06	20868
856.194	20864
856.327	20918
856.461	20670
856.595	20914
856.729	20872
856.862	21131
856.996	20845
857.13	20880
857.263	20937
857.397	21055
857.53	20887
857.664	20986
857.797	20956
857.931	21081
858.064	20891
858.197	20979
858.331	20891
858.464	20746
858.597	20788
858.731	20765
858.864	20834
858.997	20902
859.13	20754
859.263	20864
859.396	20880
859.529	20739
859.662	20762
859.795	20895
859.928	20834
860.061	20986
860.194	20971
860.327	20967
860.46	20754
860.592	20861
860.725	20960
860.858	20971
860.99	20842
861.123	20811
861.256	20769
861.388	20754
861.521	21549
861.653	20769
861.786	20720
861.918	20617
862.05	20735
862.183	20887
862.315	20781
862.447	20823
862.58	20815
862.712	20568
862.844	20488
862.976	20693
863.108	20568
863.24	21009
863.372	20590
863.504	20598
863.636	20636
863.768	20617
863.9	20587
864.032	20659
864.164	20492
864.296	20678
864.428	20579
864.559	20583
864.691	20590
864.823	20537
864.954	20552
865.086	20560
865.217	20415
865.349	20469
865.48	20400
865.612	20473
865.743	20659
865.875	20461
866.006	20473
866.137	20568
866.269	20480
866.4	20434
866.531	20427
866.662	20393
866.793	20541
866.924	20533
867.055	20465
867.186	20503
867.317	20347
867.448	20400
867.579	20393
867.71	20366
867.841	20400
867.972	20450
868.103	20412
868.233	20404
868.364	20583
868.495	20575
868.625	20621
868.756	20815
868.886	20636
869.017	20743
869.147	20712
869.278	20697
869.408	20785
869.539	20708
869.669	20678
869.799	20746
869.929	20834
870.06	20819
870.19	20971
870.32	20929
870.45	21066
870.58	21123
870.71	21226
870.84	21272
870.97	21028
871.1	21047
871.23	21085
871.36	21249
871.489	21165
871.619	21298
871.749	21252
871.879	21389
872.008	21367
872.138	21279
872.267	21298
872.397	21154
872.526	21116
872.656	21135
872.785	21184
872.915	21401
873.044	21420
873.173	21321
873.303	21332
873.432	21329
873.561	21458
873.69	21279
873.819	21317
873.948	21420
874.077	21165
874.206	21321
874.335	21310
874.464	21431
874.593	21545
874.722	21469
874.851	21587
874.979	21568
875.108	21553
875.237	21534
875.365	21348
875.494	21637
875.623	21686
875.751	21576
875.88	21534
876.008	21675
876.136	21755
876.265	22032
876.393	22032
876.521	22044
876.65	22010
876.778	22063
876.906	21918
877.034	21861
877.162	21850
877.29	21926
877.418	21903
877.546	21972
877.674	21930
877.802	21884
877.93	21857
878.058	21899
878.185	21816
878.313	21861
878.441	21876
878.568	21713
878.696	21808
878.824	22029
878.951	21915
879.079	22055
879.206	22059
879.333	22181
879.461	21854
879.588	22013
879.715	22010
879.842	22154
879.97	21835
880.097	21660
880.224	21705
880.351	21880
880.478	21869
880.605	21698
880.732	21652
880.859	22017
880.986	21781
881.112	21755
881.239	21545
881.366	21462
881.493	21416
881.619	21283
881.746	21344
881.872	21279
881.999	21245
882.125	21218
882.252	21450
882.378	21329
882.505	21412
882.631	21154
882.757	21169
882.883	21058
883.01	21157
883.136	20800
883.262	20899
883.388	20872
883.514	21161
883.64	21089
883.766	20967
883.892	20655
884.018	20670
884.143	20918
884.269	21024
884.395	20765
884.52	20731
884.646	20697
884.772	20621
884.897	20568
885.023	20552
885.148	20754
885.274	20731
885.399	20773
885.524	20648
885.65	20609
885.775	20746
885.9	20560
886.025	20697
886.15	20644
886.275	20575
886.4	20545
886.525	20590
886.65	20602
886.775	20587
886.9	20754
887.025	20807
887.149	20629
887.274	20396
887.399	20434
887.523	20461
887.648	20366
887.773	20381
887.897	20427
888.021	20419
888.146	20408
888.27	20476
888.395	20465
888.519	20480
888.643	20461
888.767	20469
888.891	20461
889.015	20301
889.139	20229
889.263	20240
889.387	20442
889.511	20400
889.635	20214
889.759	20206
889.883	20221
890.006	20218
890.13	20339
890.254	20164
890.377	20180
890.501	20100
890.624	20103
890.748	20054
890.871	19951
890.995	19723
891.118	19734
891.241	19868
891.364	19723
891.488	19928
891.611	19677
891.734	19791
891.857	19902
891.98	19875
892.103	19700
892.226	19894
892.349	19685
892.471	19544
892.594	19738
892.717	19655
892.839	19837
892.962	19689
893.085	19734
893.207	19727
893.33	19628
893.452	19780
893.575	19685
893.697	19681
893.819	19849
893.941	19978
894.064	19837
894.186	19677
894.308	19689
894.43	19803
894.552	19871
894.674	19788
894.796	19643
894.918	19712
895.04	19689
895.161	19731
895.283	19681
895.405	19715
895.526	19734
895.648	19643
895.769	19738
895.891	19761
896.012	19856
896.134	19776
896.255	19765
896.376	19643
896.498	19655
896.619	19738
896.74	19750
896.861	19712
896.982	20069
897.103	20206
897.224	20115
897.345	19940
897.466	19978
897.587	20043
897.708	20062
897.828	20001
897.949	19860
898.07	19833
898.19	19826
898.311	20088
898.431	19883
898.552	20024
898.672	20043
898.792	20138
898.913	19959
899.033	19826
899.153	19788
899.273	19689
899.393	19727
899.513	19696
899.633	19628
899.753	19632
899.873	19624
899.993	19795
900.113	19635
900.232	19700
900.352	19700
900.472	19487
900.591	19460
900.711	19460
900.83	19426
900.95	19480
901.069	19575
901.189	19331
901.308	19114
901.427	19103
901.546	19095
901.665	19118
901.784	19099
901.904	18928
902.023	18791
902.141	18719
902.26	18544
902.379	18684
902.498	18578
902.617	18547
902.735	18589
902.854	18623
902.973	18502
903.091	18258
903.21	18159
903.328	18285
903.446	18205
903.565	18083
903.683	18068
903.801	17992
903.919	17996
904.038	18121
904.156	17813
904.274	17923
904.392	17836
904.51	17836
904.627	17802
904.745	17904
904.863	17885
904.981	17714
905.098	17524
905.216	17562
905.334	17642
905.451	17596
905.569	17474
905.686	17459
905.803	17543
905.921	17341
906.038	17448
906.155	17402
906.272	17200
906.389	17189
906.506	17132
906.623	17071
906.74	17033
906.857	16957
906.974	16968
907.091	17151
907.208	17155
907.324	17010
907.441	16946
907.557	16816
907.674	16900
907.79	16618
907.907	16759
908.023	16736
908.139	16736
908.256	16755
908.372	16713
908.488	16630
908.604	16485
908.72	16573
908.836	16462
908.952	16542
909.068	16550
909.184	16634
909.3	16462
909.415	16546
909.531	16542
909.647	16181
909.762	16253
909.878	16253
909.993	16207
910.108	16154
910.224	16238
910.339	16230
910.454	16128
910.57	16013
910.685	16082
910.8	16196
910.915	16158
911.03	16025
911.145	15842
911.259	15835
911.374	15846
911.489	15778
911.604	15644
911.718	15587
911.833	15584
911.947	15435
912.062	15367
912.176	15572
912.291	15542
912.405	15553
912.519	15751
912.633	15713
912.748	15625
912.862	15526
912.976	15408
913.09	15348
913.204	15329
913.318	15408
913.431	15397
913.545	15572
913.659	15523
913.772	15317
913.886	15298
914	15161
914.113	15302
914.226	15291
914.34	15203
914.453	15100
914.566	15142
914.68	15089
914.793	15051
914.906	14914
915.019	14834
915.132	14765
915.245	14845
915.358	14823
915.47	14811
915.583	14792
915.696	14823
915.809	14876
915.921	14944
916.034	14765
916.146	14716
916.259	14697
916.371	14796
916.483	14754
916.595	14655
916.708	14579
916.82	14613
916.932	14651
917.044	14583
917.156	14613
917.268	14495
917.38	14484
917.491	14446
917.603	14484
917.715	14518
917.826	14552
917.938	14377
918.049	14320
918.161	14408
918.272	14514
918.384	14651
918.495	14495
918.606	14298
918.717	14153
918.828	14305
918.939	14305
919.05	14183
919.161	14210
919.272	13978
919.383	14088
919.494	14313
919.604	14442
919.715	14134
919.826	14149
919.936	14142
920.047	14282
920.157	14069
920.267	14298
920.378	14191
920.488	14145
920.598	14389
920.708	14503
920.818	14317
920.928	14324
921.038	14480
921.148	14480
921.258	14210
921.368	14088
921.477	13883
921.587	13875
921.697	13753
921.806	13944
921.916	13814
922.025	13677
922.134	13624
922.244	13495
922.353	13571
922.462	13483
922.571	13403
922.68	13282
922.789	13270
922.898	13240
923.007	13202
923.116	13365
923.224	13194
923.333	13240
923.442	13034
923.55	13080
923.659	13034
923.767	13065
923.876	13065
923.984	13088
924.092	12985
924.201	12996
924.309	12993
924.417	13023
924.525	12882
924.633	12943
924.741	13670
924.849	12623
924.956	12821
925.064	12642
925.172	12646
925.279	12608
925.387	12673
925.494	12658
925.602	12837
925.709	12745
925.816	12540
925.924	12593
926.031	12726
926.138	12642
926.245	12612
926.352	12532
926.459	12616
926.566	12642
926.673	12521
926.779	12483
926.886	12399
926.993	12327
927.099	12273
927.206	12243
927.312	12228
927.419	12281
927.525	12281
927.631	12300
927.737	12205
927.843	12102
927.95	12053
928.056	11965
928.162	12098
928.267	12251
928.373	12570
928.479	12171
928.585	11916
928.69	12011
928.796	12057
928.901	11927
929.007	11764
929.112	11813
929.218	11859
929.323	11836
929.428	11764
929.533	11969
929.638	11847
929.743	11741
929.848	11824
929.953	11722
930.058	11718
930.163	11482
930.267	11532
930.372	11646
930.477	11539
930.581	11707
930.685	11592
930.79	11444
930.894	11398
930.998	11391
931.103	11482
931.207	11098
931.311	11037
931.415	11010
931.519	10736
931.623	10706
