Data from test_V78500241_1877.txt Node
Date: Fri Mar 25 15:22:55 CST 2022
User: usil
Spectrometer: V785-0024
Trigger mode: 0
Integration Time (sec): 4.000000E-1
Scans to average: 1
Nonlinearity correction enabled: false
Boxcar width: 0
Storing dark spectrum: false
XAxis mode: Wavelengths
Number of Pixels in Spectrum: 1024
>>>>>Begin Spectral Data<<<<<
801.071	27808
801.214	27800
801.356	27591
801.499	27587
801.641	27420
801.783	27336
801.926	27492
802.068	27348
802.211	27351
802.353	27192
802.496	27142
802.638	27020
802.78	26986
802.923	27020
803.065	27100
803.208	26994
803.35	27066
803.492	27211
803.635	27412
803.777	27089
803.919	27272
804.061	27473
804.204	27325
804.346	27211
804.488	27165
804.63	27275
804.773	27279
804.915	27230
805.057	27416
805.199	27275
805.341	27264
805.483	27340
805.626	27344
805.768	27291
805.91	27439
806.052	27420
806.194	27287
806.336	27488
806.478	27424
806.62	27367
806.762	27462
806.904	27644
807.046	27899
807.188	27759
807.33	27846
807.472	27724
807.614	27709
807.756	27766
807.898	27717
808.04	27629
808.182	27610
808.324	27603
808.465	27523
808.607	27766
808.749	28040
808.891	28150
809.033	28090
809.174	28055
809.316	27998
809.458	27987
809.6	28067
809.741	28078
809.883	28185
810.025	28280
810.166	28325
810.308	28348
810.45	28207
810.591	28128
810.733	27991
810.875	27926
811.016	27914
811.158	27800
811.299	27998
811.441	28185
811.582	28158
811.724	27937
811.865	27911
812.007	28097
812.148	27987
812.29	27994
812.431	28192
812.573	28356
812.714	28421
812.855	28428
812.997	28546
813.138	28755
813.279	28721
813.421	28630
813.562	28535
813.703	28242
813.845	28295
813.986	27968
814.127	27861
814.268	27660
814.41	27705
814.551	27603
814.692	27808
814.833	27682
814.974	27641
815.115	27835
815.256	27557
815.397	27572
815.539	27561
815.68	27538
815.821	27378
815.962	27599
816.103	27458
816.244	27355
816.385	27264
816.526	27211
816.666	26979
816.807	26944
816.948	27108
817.089	27039
817.23	27020
817.371	26887
817.512	27020
817.653	27017
817.793	26811
817.934	27180
818.075	26921
818.216	26971
818.356	26895
818.497	26849
818.638	26682
818.778	26724
818.919	26830
819.06	26785
819.2	26986
819.341	27005
819.481	26994
819.622	27017
819.762	27431
819.903	27283
820.043	27279
820.184	27123
820.324	26910
820.465	27157
820.605	27104
820.746	27058
820.886	26918
821.026	27043
821.167	26975
821.307	27108
821.447	27009
821.588	26952
821.728	26872
821.868	26663
822.008	26560
822.149	26461
822.289	26484
822.429	26263
822.569	26214
822.709	26126
822.849	26024
822.99	26031
823.13	26005
823.27	25932
823.41	25841
823.55	25746
823.69	25826
823.83	25670
823.97	25738
824.11	25552
824.25	25594
824.389	25620
824.529	25708
824.669	25620
824.809	25791
824.949	25742
825.089	25731
825.228	25704
825.368	25548
825.508	25548
825.648	25419
825.787	25533
825.927	25594
826.067	25506
826.206	25491
826.346	25586
826.485	25540
826.625	25529
826.765	25521
826.904	25491
827.044	25335
827.183	25217
827.323	25179
827.462	25297
827.601	25282
827.741	25198
827.88	25206
828.02	25088
828.159	25129
828.298	25171
828.437	25335
828.577	25183
828.716	25266
828.855	25160
828.994	24886
829.134	24863
829.273	25042
829.412	24913
829.551	24810
829.69	24894
829.829	24840
829.968	25038
830.107	25023
830.246	24909
830.385	24863
830.524	24768
830.663	24802
830.802	24700
830.941	24578
831.08	24494
831.219	24525
831.357	24509
831.496	24661
831.635	24525
831.774	24467
831.913	24479
832.051	24384
832.19	24323
832.329	24292
832.467	24148
832.606	24144
832.744	24197
832.883	24171
833.022	24133
833.16	24266
833.299	24239
833.437	24273
833.576	24258
833.714	24327
833.852	24224
833.991	24270
834.129	24384
834.267	24304
834.406	24247
834.544	24308
834.682	24235
834.821	24197
834.959	24494
835.097	24235
835.235	24311
835.373	24300
835.511	24330
835.65	24220
835.788	24167
835.926	24026
836.064	23996
836.202	23916
836.34	24243
836.478	24171
836.615	24114
836.753	24098
836.891	24159
837.029	24106
837.167	23958
837.305	23999
837.443	24034
837.58	24041
837.718	23950
837.856	24053
837.993	23870
838.131	23904
838.269	23817
838.406	24011
838.544	23847
838.681	23585
838.819	23676
838.956	23395
839.094	23440
839.231	23467
839.369	23600
839.506	23794
839.643	23623
839.781	23490
839.918	23303
840.055	23391
840.193	23444
840.33	23337
840.467	23284
840.604	23414
840.742	23695
840.879	23292
841.016	23277
841.153	23284
841.29	23429
841.427	23406
841.564	23356
841.701	23311
841.838	23273
841.975	23315
842.112	23315
842.249	23109
842.385	23102
842.522	23341
842.659	23223
842.796	23223
842.933	23105
843.069	23056
843.206	23098
843.343	23025
843.479	23204
843.616	23056
843.752	22930
843.889	22900
844.025	22976
844.162	22824
844.298	23086
844.435	22919
844.571	22866
844.708	22938
844.844	22927
844.98	22949
845.117	22957
845.253	22843
845.389	22801
845.525	22809
845.661	22740
845.798	22615
845.934	22691
846.07	22641
846.206	22687
846.342	22763
846.478	22641
846.614	22375
846.75	22299
846.886	22356
847.022	22447
847.158	22405
847.294	22470
847.429	22542
847.565	22363
847.701	22470
847.837	22200
847.972	21968
848.108	22253
848.244	22200
848.379	21994
848.515	21949
848.65	21956
848.786	21934
848.921	21884
849.057	21922
849.192	21949
849.328	21846
849.463	21949
849.598	21816
849.734	21770
849.869	21861
850.004	21747
850.14	21743
850.275	21747
850.41	21572
850.545	21812
850.68	21652
850.815	21755
850.95	21751
851.085	21960
851.22	21835
851.355	21770
851.49	21648
851.625	21679
851.76	21728
851.895	21534
852.03	21466
852.165	21736
852.299	21892
852.434	21755
852.569	21717
852.703	21770
852.838	21842
852.973	21819
853.107	21850
853.242	21633
853.376	21595
853.511	21447
853.645	21587
853.78	21743
853.914	21420
854.048	21473
854.183	21549
854.317	21561
854.451	21682
854.585	21618
854.72	21469
854.854	21614
854.988	21488
855.122	21583
855.256	21469
855.39	21507
855.524	21545
855.658	21545
855.792	21519
855.926	21439
856.06	21553
856.194	21660
856.327	21599
856.461	21447
856.595	21454
856.729	21618
856.862	21561
856.996	21420
857.13	21622
857.263	21637
857.397	21511
857.53	21542
857.664	21481
857.797	21622
857.931	21599
858.064	21504
858.197	21713
858.331	21454
858.464	21367
858.597	21462
858.731	21523
858.864	21447
858.997	21488
859.13	21534
859.263	21534
859.396	21561
859.529	21382
859.662	21507
859.795	21473
859.928	21610
860.061	21701
860.194	21682
860.327	21622
860.46	21469
860.592	21603
860.725	21736
860.858	21705
860.99	21553
861.123	21393
861.256	21500
861.388	21523
861.521	22181
861.653	21424
861.786	21332
861.918	21466
862.05	21469
862.183	21408
862.315	21428
862.447	21530
862.58	21428
862.712	21165
862.844	21192
862.976	21458
863.108	21302
863.24	21568
863.372	21241
863.504	21199
863.636	21359
863.768	21344
863.9	21287
864.032	21245
864.164	21176
864.296	21370
864.428	21389
864.559	21252
864.691	21348
864.823	21173
864.954	21275
865.086	21226
865.217	21131
865.349	21108
865.48	21161
865.612	21150
865.743	21192
865.875	21104
866.006	21154
866.137	21131
866.269	21081
866.4	21207
866.531	21047
866.662	20941
866.793	20967
866.924	21070
867.055	21108
867.186	21089
867.317	21112
867.448	20910
867.579	21150
867.71	20921
867.841	20933
867.972	20971
868.103	21020
868.233	21062
868.364	21039
868.495	21123
868.625	21218
868.756	21443
868.886	21291
869.017	21233
869.147	21443
869.278	21275
869.408	21382
869.539	21329
869.669	21336
869.799	21355
869.929	21363
870.06	21431
870.19	21572
870.32	21572
870.45	21637
870.58	21660
870.71	21888
870.84	21793
870.97	21641
871.1	21732
871.23	21930
871.36	21861
871.489	21804
871.619	21907
871.749	21831
871.879	22090
872.008	22032
872.138	21941
872.267	21960
872.397	21850
872.526	21793
872.656	21686
872.785	21724
872.915	21884
873.044	21983
873.173	21869
873.303	21960
873.432	21983
873.561	21975
873.69	22002
873.819	21937
873.948	22040
874.077	21888
874.206	21911
874.335	21899
874.464	22063
874.593	22143
874.722	22204
874.851	22109
874.979	22322
875.108	22166
875.237	21949
875.365	22029
875.494	22093
875.623	22280
875.751	22105
875.88	22158
876.008	22265
876.136	22337
876.265	22622
876.393	22679
876.521	22561
876.65	22672
876.778	22561
876.906	22451
877.034	22375
877.162	22622
877.29	22504
877.418	22516
877.546	22596
877.674	22500
877.802	22421
877.93	22436
878.058	22386
878.185	22341
878.313	22512
878.441	22500
878.568	22310
878.696	22485
878.824	22523
878.951	22474
879.079	22531
879.206	22790
879.333	22660
879.461	22542
879.588	22641
879.715	22771
879.842	22812
879.97	22527
880.097	22394
880.224	22447
880.351	22402
880.478	22428
880.605	22318
880.732	22322
880.859	22474
880.986	22367
881.112	22424
881.239	22287
881.366	21994
881.493	21972
881.619	21907
881.746	22059
881.872	21873
881.999	21838
882.125	21823
882.252	21888
882.378	21800
882.505	21983
882.631	21728
882.757	21743
882.883	21705
883.01	21530
883.136	21549
883.262	21534
883.388	21435
883.514	21519
883.64	21641
883.766	21473
883.892	21367
884.018	21336
884.143	21526
884.269	21443
884.395	21268
884.52	21192
884.646	21252
884.772	21142
884.897	21165
885.023	21291
885.148	21393
885.274	21306
885.399	21226
885.524	21150
885.65	21272
885.775	21298
885.9	21313
886.025	21283
886.15	21393
886.275	21176
886.4	21211
886.525	21264
886.65	21100
886.775	21142
886.9	21302
887.025	21382
887.149	21051
887.274	20918
887.399	20925
887.523	20960
887.648	20891
887.773	20876
887.897	21157
888.021	21036
888.146	20895
888.27	21116
888.395	21066
888.519	21100
888.643	20998
888.767	20906
888.891	21005
889.015	20864
889.139	20914
889.263	20804
889.387	20834
889.511	20948
889.635	20937
889.759	20667
889.883	20724
890.006	20876
890.13	20914
890.254	20720
890.377	20750
890.501	20484
890.624	20514
890.748	20644
890.871	20526
890.995	20290
891.118	20309
891.241	20336
891.364	20381
891.488	20434
891.611	20419
891.734	20400
891.857	20412
891.98	20389
892.103	20450
892.226	20290
892.349	20412
892.471	20214
892.594	20294
892.717	20225
892.839	20149
892.962	20275
893.085	20233
893.207	20191
893.33	20157
893.452	20180
893.575	20358
893.697	20221
893.819	20328
893.941	20484
894.064	20431
894.186	20157
894.308	20145
894.43	20358
894.552	20271
894.674	20294
894.796	20233
894.918	20103
895.04	20183
895.161	20298
895.283	20282
895.405	20199
895.526	20214
895.648	20206
895.769	20199
895.891	20282
896.012	20282
896.134	20305
896.255	20301
896.376	20214
896.498	20225
896.619	20282
896.74	20210
896.861	20278
896.982	20583
897.103	20693
897.224	20465
897.345	20465
897.466	20396
897.587	20469
897.708	20560
897.828	20431
897.949	20511
898.07	20408
898.19	20423
898.311	20461
898.431	20408
898.552	20492
898.672	20518
898.792	20484
898.913	20332
899.033	20313
899.153	20294
899.273	20221
899.393	20164
899.513	20324
899.633	20161
899.753	20126
899.873	20115
899.993	20122
900.113	20172
900.232	20149
900.352	20149
900.472	19955
900.591	19959
900.711	20065
900.83	19830
900.95	20043
901.069	20103
901.189	19868
901.308	19685
901.427	19491
901.546	19571
901.665	19601
901.784	19590
901.904	19426
902.023	19335
902.141	19088
902.26	18993
902.379	19156
902.498	19091
902.617	19046
902.735	19050
902.854	19012
902.973	19000
903.091	18776
903.21	18749
903.328	18741
903.446	18639
903.565	18464
903.683	18509
903.801	18502
903.919	18437
904.038	18471
904.156	18372
904.274	18471
904.392	18407
904.51	18228
904.627	18266
904.745	18388
904.863	18357
904.981	18129
905.098	17946
905.216	17920
905.334	17882
905.451	17973
905.569	17946
905.686	18053
905.803	17969
905.921	17893
906.038	17897
906.155	17798
906.272	17699
906.389	17729
906.506	17497
906.623	17551
906.74	17429
906.857	17448
906.974	17474
907.091	17562
907.208	17638
907.324	17539
907.441	17455
907.557	17189
907.674	17246
907.79	17178
907.907	17254
908.023	17269
908.139	17242
908.256	17231
908.372	17181
908.488	17155
908.604	17056
908.72	16927
908.836	16892
908.952	16930
909.068	16915
909.184	16972
909.3	16930
909.415	17033
909.531	16850
909.647	16744
909.762	16736
909.878	16630
909.993	16584
910.108	16660
910.224	16664
910.339	16717
910.454	16531
910.57	16424
910.685	16360
910.8	16607
910.915	16626
911.03	16466
911.145	16306
911.259	16188
911.374	16112
911.489	16143
911.604	16051
911.718	15945
911.833	16101
911.947	15873
912.062	15717
912.176	15903
912.291	15994
912.405	15994
912.519	16124
912.633	16128
912.748	16036
912.862	15949
912.976	15918
913.09	15751
913.204	15812
913.318	15865
913.431	15907
913.545	15857
913.659	15873
913.772	15770
913.886	15606
914	15637
914.113	15633
914.226	15774
914.34	15644
914.453	15492
914.566	15603
914.68	15507
914.793	15439
914.906	15332
915.019	15199
915.132	15085
915.245	15260
915.358	15302
915.47	15249
915.583	15188
915.696	15230
915.809	15272
915.921	15363
916.034	15108
916.146	15119
916.259	15062
916.371	15188
916.483	15252
916.595	15074
916.708	14998
916.82	14956
916.932	15032
917.044	14998
917.156	14975
917.268	14826
917.38	14883
917.491	14823
917.603	14849
917.715	14902
917.826	14956
917.938	14781
918.049	14693
918.161	14735
918.272	14929
918.384	14811
918.495	14861
918.606	14636
918.717	14625
918.828	14678
918.939	14678
919.05	14495
919.161	14571
919.272	14476
919.383	14404
919.494	14682
919.604	14811
919.715	14621
919.826	14442
919.936	14514
920.047	14674
920.157	14522
920.267	14849
920.378	14587
920.488	14606
920.598	14621
920.708	14720
920.818	14743
920.928	14617
921.038	14887
921.148	14750
921.258	14541
921.368	14488
921.477	14290
921.587	14324
921.697	14244
921.806	14423
921.916	14180
922.025	14027
922.134	13959
922.244	13871
922.353	13925
922.462	13868
922.571	13746
922.68	13643
922.789	13616
922.898	13632
923.007	13544
923.116	13609
923.224	13567
923.333	13556
923.442	13464
923.55	13384
923.659	13441
923.767	13533
923.876	13365
923.984	13514
924.092	13301
924.201	13274
924.309	13339
924.417	13324
924.525	13251
924.633	13209
924.741	14233
924.849	13088
924.956	13240
925.064	12977
925.172	13065
925.279	12966
925.387	13080
925.494	13019
925.602	13046
925.709	13042
925.816	12958
925.924	13008
926.031	13031
926.138	12951
926.245	13012
926.352	12783
926.459	12993
926.566	13000
926.673	12901
926.779	12696
926.886	12757
926.993	12623
927.099	12642
927.206	12460
927.312	12525
927.419	12612
927.525	12532
927.631	12486
927.737	12460
927.843	12456
927.95	12350
928.056	12315
928.162	12441
928.267	12391
928.373	13027
928.479	12437
928.585	12243
928.69	12353
928.796	12361
928.901	12197
929.007	12163
929.112	12194
929.218	12228
929.323	12087
929.428	12136
929.533	12190
929.638	12034
929.743	12057
929.848	12102
929.953	12060
930.058	11999
930.163	11756
930.267	11828
930.372	11946
930.477	11802
930.581	11908
930.685	11847
930.79	11733
930.894	11710
930.998	11642
931.103	11760
931.207	11425
931.311	11376
931.415	11223
931.519	11025
931.623	11109
