Data from test_V78500241_708.txt Node
Date: Fri Mar 25 15:14:47 CST 2022
User: usil
Spectrometer: V785-0024
Trigger mode: 0
Integration Time (sec): 4.000000E-1
Scans to average: 1
Nonlinearity correction enabled: false
Boxcar width: 0
Storing dark spectrum: false
XAxis mode: Wavelengths
Number of Pixels in Spectrum: 1024
>>>>>Begin Spectral Data<<<<<
801.071	28044
801.214	27960
801.356	27724
801.499	27599
801.641	27534
801.783	27591
801.926	27663
802.068	27401
802.211	27420
802.353	27382
802.496	27226
802.638	27051
802.78	27275
802.923	27157
803.065	27218
803.208	27192
803.35	27211
803.492	27283
803.635	27321
803.777	27165
803.919	27401
804.061	27648
804.204	27488
804.346	27374
804.488	27405
804.63	27363
804.773	27214
804.915	27397
805.057	27351
805.199	27382
805.341	27393
805.483	27492
805.626	27477
805.768	27313
805.91	27523
806.052	27348
806.194	27427
806.336	27610
806.478	27580
806.62	27511
806.762	27603
806.904	27728
807.046	27812
807.188	27816
807.33	27926
807.472	28002
807.614	27937
807.756	27926
807.898	27724
808.04	27610
808.182	27660
808.324	27709
808.465	27739
808.607	27869
808.749	28010
808.891	28147
809.033	28303
809.174	28318
809.316	28200
809.458	28249
809.6	28143
809.741	28200
809.883	28390
810.025	28516
810.166	28523
810.308	28337
810.45	28367
810.591	28360
810.733	28143
810.875	28139
811.016	28128
811.158	28021
811.299	28246
811.441	28291
811.582	28394
811.724	28181
811.865	28055
812.007	28162
812.148	28280
812.29	28173
812.431	28405
812.573	28497
812.714	28443
812.855	28687
812.997	28725
813.138	28850
813.279	28797
813.421	28702
813.562	28550
813.703	28565
813.845	28462
813.986	28074
814.127	27895
814.268	27865
814.41	27842
814.551	27854
814.692	27968
814.833	27857
814.974	27819
815.115	27884
815.256	27766
815.397	27709
815.539	27656
815.68	27622
815.821	27675
815.962	27591
816.103	27713
816.244	27553
816.385	27435
816.526	27336
816.666	27214
816.807	27077
816.948	27230
817.089	27165
817.23	27184
817.371	27138
817.512	27150
817.653	27302
817.793	27066
817.934	27096
818.075	27112
818.216	27226
818.356	27222
818.497	26914
818.638	26857
818.778	26998
818.919	26910
819.06	26929
819.2	26990
819.341	27180
819.481	27199
819.622	27382
819.762	27496
819.903	27336
820.043	27249
820.184	27211
820.324	27188
820.465	27207
820.605	27226
820.746	27176
820.886	27036
821.026	27241
821.167	27211
821.307	27283
821.447	27146
821.588	26990
821.728	26963
821.868	26815
822.008	26590
822.149	26693
822.289	26583
822.429	26187
822.569	26267
822.709	26248
822.849	26180
822.99	26214
823.13	26008
823.27	26065
823.41	25951
823.55	25871
823.69	26069
823.83	26001
823.97	25925
824.11	25704
824.25	25723
824.389	25795
824.529	25890
824.669	25700
824.809	25818
824.949	25803
825.089	25890
825.228	25799
825.368	25601
825.508	25632
825.648	25746
825.787	25647
825.927	25601
826.067	25670
826.206	25712
826.346	25776
826.485	25761
826.625	25582
826.765	25746
826.904	25799
827.044	25327
827.183	25396
827.323	25346
827.462	25499
827.601	25422
827.741	25297
827.88	25434
828.02	25236
828.159	25293
828.298	25327
828.437	25365
828.577	25312
828.716	25400
828.855	25324
828.994	25031
829.134	25061
829.273	25156
829.412	24989
829.551	25004
829.69	25023
829.829	25023
829.968	25232
830.107	25019
830.246	24966
830.385	25038
830.524	24970
830.663	24939
830.802	24779
830.941	24646
831.08	24593
831.219	24779
831.357	24768
831.496	24859
831.635	24753
831.774	24635
831.913	24585
832.051	24395
832.19	24384
832.329	24498
832.467	24403
832.606	24315
832.744	24228
832.883	24350
833.022	24281
833.16	24266
833.299	24388
833.437	24410
833.576	24448
833.714	24403
833.852	24315
833.991	24369
834.129	24502
834.267	24365
834.406	24460
834.544	24452
834.682	24498
834.821	24350
834.959	24517
835.097	24308
835.235	24460
835.373	24346
835.511	24357
835.65	24270
835.788	24205
835.926	24110
836.064	24068
836.202	24049
836.34	24129
836.478	24258
836.615	24144
836.753	24136
836.891	24270
837.029	24361
837.167	24136
837.305	24064
837.443	24072
837.58	24125
837.718	23935
837.856	24152
837.993	23946
838.131	24003
838.269	24003
838.406	24018
838.544	23832
838.681	23680
838.819	23573
838.956	23570
839.094	23570
839.231	23638
839.369	23589
839.506	23961
839.643	23714
839.781	23570
839.918	23528
840.055	23459
840.193	23486
840.33	23364
840.467	23433
840.604	23429
840.742	23802
840.879	23258
841.016	23265
841.153	23356
841.29	23497
841.427	23372
841.564	23417
841.701	23356
841.838	23433
841.975	23265
842.112	23288
842.249	23299
842.385	23041
842.522	23387
842.659	23143
842.796	23296
842.933	23239
843.069	23216
843.206	23166
843.343	23273
843.479	23121
843.616	23121
843.752	23003
843.889	22999
844.025	23204
844.162	22915
844.298	23056
844.435	23006
844.571	22790
844.708	23052
844.844	23147
844.98	23208
845.117	23052
845.253	22843
845.389	22790
845.525	22801
845.661	22881
845.798	22843
845.934	22706
846.07	22634
846.206	22717
846.342	22896
846.478	22812
846.614	22542
846.75	22303
846.886	22424
847.022	22443
847.158	22542
847.294	22329
847.429	22386
847.565	22443
847.701	22561
847.837	22249
847.972	22131
848.108	22249
848.244	22112
848.379	22025
848.515	21983
848.65	21960
848.786	22044
848.921	22090
849.057	22059
849.192	22204
849.328	22116
849.463	22010
849.598	21922
849.734	21880
849.869	21781
850.004	21736
850.14	21739
850.275	21800
850.41	21720
850.545	21739
850.68	21747
850.815	21812
850.95	21781
851.085	22067
851.22	21892
851.355	21770
851.49	21705
851.625	21873
851.76	21701
851.895	21652
852.03	21656
852.165	21759
852.299	21759
852.434	21808
852.569	21850
852.703	21778
852.838	21831
852.973	21819
853.107	21941
853.242	21701
853.376	21587
853.511	21534
853.645	21603
853.78	21778
853.914	21618
854.048	21641
854.183	21595
854.317	21561
854.451	21720
854.585	21587
854.72	21576
854.854	21660
854.988	21648
855.122	21568
855.256	21408
855.39	21553
855.524	21675
855.658	21580
855.792	21641
855.926	21576
856.06	21599
856.194	21690
856.327	21603
856.461	21568
856.595	21492
856.729	21572
856.862	21747
856.996	21652
857.13	21648
857.263	21690
857.397	21656
857.53	21648
857.664	21557
857.797	21637
857.931	21656
858.064	21675
858.197	21595
858.331	21534
858.464	21477
858.597	21504
858.731	21542
858.864	21633
858.997	21610
859.13	21599
859.263	21625
859.396	21660
859.529	21561
859.662	21595
859.795	21504
859.928	21572
860.061	21675
860.194	21739
860.327	21667
860.46	21709
860.592	21709
860.725	21774
860.858	21724
860.99	21644
861.123	21481
861.256	21534
861.388	21568
861.521	22459
861.653	21534
861.786	21397
861.918	21367
862.05	21576
862.183	21405
862.315	21534
862.447	21622
862.58	21526
862.712	21283
862.844	21249
862.976	21477
863.108	21389
863.24	21580
863.372	21214
863.504	21348
863.636	21287
863.768	21283
863.9	21325
864.032	21268
864.164	21321
864.296	21260
864.428	21583
864.559	21291
864.691	21386
864.823	21230
864.954	21245
865.086	21256
865.217	21218
865.349	21203
865.48	21203
865.612	21104
865.743	21340
865.875	21287
866.006	21077
866.137	21176
866.269	21199
866.4	21184
866.531	21138
866.662	21036
866.793	21150
866.924	21192
867.055	21157
867.186	21108
867.317	21032
867.448	21020
867.579	21089
867.71	20948
867.841	21089
867.972	21142
868.103	21093
868.233	21039
868.364	21131
868.495	21294
868.625	21332
868.756	21496
868.886	21150
869.017	21428
869.147	21435
869.278	21477
869.408	21344
869.539	21374
869.669	21477
869.799	21291
869.929	21435
870.06	21435
870.19	21648
870.32	21724
870.45	21789
870.58	21804
870.71	21762
870.84	21800
870.97	21778
871.1	21899
871.23	21987
871.36	21953
871.489	21953
871.619	21892
871.749	21895
871.879	21895
872.008	22013
872.138	21937
872.267	21876
872.397	21797
872.526	21766
872.656	21781
872.785	21835
872.915	21960
873.044	22059
873.173	21911
873.303	22048
873.432	22097
873.561	22173
873.69	22032
873.819	21899
873.948	22017
874.077	22006
874.206	21915
874.335	22010
874.464	22147
874.593	22166
874.722	22276
874.851	22226
874.979	22112
875.108	22257
875.237	22067
875.365	22067
875.494	22238
875.623	22314
875.751	22143
875.88	22246
876.008	22257
876.136	22440
876.265	22580
876.393	22687
876.521	22706
876.65	22733
876.778	22626
876.906	22645
877.034	22535
877.162	22546
877.29	22573
877.418	22516
877.546	22592
877.674	22603
877.802	22592
877.93	22565
878.058	22527
878.185	22344
878.313	22478
878.441	22462
878.568	22367
878.696	22489
878.824	22653
878.951	22546
879.079	22786
879.206	22820
879.333	22687
879.461	22508
879.588	22660
879.715	22618
879.842	22828
879.97	22580
880.097	22360
880.224	22348
880.351	22405
880.478	22246
880.605	22337
880.732	22303
880.859	22615
880.986	22318
881.112	22413
881.239	22246
881.366	22147
881.493	22036
881.619	21903
881.746	21888
881.872	21956
881.999	21876
882.125	21895
882.252	22032
882.378	21968
882.505	21915
882.631	21835
882.757	21660
882.883	21618
883.01	21511
883.136	21466
883.262	21542
883.388	21412
883.514	21587
883.64	21641
883.766	21606
883.892	21363
884.018	21492
884.143	21553
884.269	21583
884.395	21325
884.52	21245
884.646	21306
884.772	21123
884.897	21055
885.023	21268
885.148	21294
885.274	21492
885.399	21382
885.524	21291
885.65	21195
885.775	21332
885.9	21138
886.025	21348
886.15	21260
886.275	21157
886.4	21233
886.525	21222
886.65	21074
886.775	21169
886.9	21298
887.025	21336
887.149	21207
887.274	21154
887.399	21074
887.523	20998
887.648	21047
887.773	20914
887.897	21070
888.021	21020
888.146	20967
888.27	21051
888.395	21108
888.519	21009
888.643	21036
888.767	21058
888.891	20971
889.015	20902
889.139	20982
889.263	20864
889.387	20849
889.511	21036
889.635	20971
889.759	20883
889.883	20823
890.006	20811
890.13	20925
890.254	20758
890.377	20743
890.501	20568
890.624	20492
890.748	20598
890.871	20511
890.995	20396
891.118	20355
891.241	20492
891.364	20400
891.488	20393
891.611	20469
891.734	20423
891.857	20419
891.98	20488
892.103	20423
892.226	20389
892.349	20366
892.471	20195
892.594	20347
892.717	20362
892.839	20252
892.962	20309
893.085	20434
893.207	20240
893.33	20221
893.452	20256
893.575	20161
893.697	20282
893.819	20427
893.941	20583
894.064	20476
894.186	20298
894.308	20145
894.43	20294
894.552	20568
894.674	20408
894.796	20301
894.918	20294
895.04	20339
895.161	20381
895.283	20358
895.405	20138
895.526	20286
895.648	20294
895.769	20351
895.891	20244
896.012	20381
896.134	20317
896.255	20252
896.376	20362
896.498	20347
896.619	20336
896.74	20328
896.861	20317
896.982	20724
897.103	20731
897.224	20560
897.345	20575
897.466	20385
897.587	20579
897.708	20564
897.828	20415
897.949	20454
898.07	20362
898.19	20412
898.311	20533
898.431	20336
898.552	20454
898.672	20655
898.792	20575
898.913	20499
899.033	20404
899.153	20465
899.273	20221
899.393	20301
899.513	20370
899.633	20336
899.753	20324
899.873	20221
899.993	20339
900.113	20214
900.232	20309
900.352	20138
900.472	20244
900.591	20062
900.711	20126
900.83	20077
900.95	20225
901.069	20286
901.189	19898
901.308	19776
901.427	19559
901.546	19681
901.665	19712
901.784	19628
901.904	19556
902.023	19483
902.141	19266
902.26	19133
902.379	19263
902.498	19217
902.617	19194
902.735	19274
902.854	19107
902.973	19042
903.091	18897
903.21	18760
903.328	18894
903.446	18810
903.565	18585
903.683	18582
903.801	18410
903.919	18616
904.038	18639
904.156	18414
904.274	18486
904.392	18319
904.51	18300
904.627	18441
904.745	18391
904.863	18426
904.981	18315
905.098	18053
905.216	18038
905.334	18045
905.451	18068
905.569	17984
905.686	18171
905.803	18079
905.921	17889
906.038	18098
906.155	17828
906.272	17764
906.389	17745
906.506	17558
906.623	17707
906.74	17562
906.857	17493
906.974	17512
907.091	17608
907.208	17687
907.324	17577
907.441	17452
907.557	17288
907.674	17311
907.79	17216
907.907	17250
908.023	17246
908.139	17322
908.256	17273
908.372	17124
908.488	17189
908.604	17105
908.72	17056
908.836	17006
908.952	17083
909.068	17064
909.184	17048
909.3	16968
909.415	16972
909.531	16984
909.647	16767
909.762	16812
909.878	16710
909.993	16706
910.108	16615
910.224	16706
910.339	16725
910.454	16626
910.57	16493
910.685	16470
910.8	16786
910.915	16691
911.03	16516
911.145	16318
911.259	16371
911.374	16356
911.489	16257
911.604	16207
911.718	16093
911.833	16120
911.947	15835
912.062	15869
912.176	15926
912.291	15972
912.405	15991
912.519	16268
912.633	16192
912.748	16010
912.862	16021
912.976	15918
913.09	15743
913.204	15895
913.318	15854
913.431	16010
913.545	15880
913.659	15949
913.772	15793
913.886	15698
914	15713
914.113	15808
914.226	15816
914.34	15762
914.453	15549
914.566	15599
914.68	15557
914.793	15538
914.906	15310
915.019	15245
915.132	15272
915.245	15252
915.358	15264
915.47	15256
915.583	15214
915.696	15321
915.809	15351
915.921	15397
916.034	15245
916.146	15165
916.259	15127
916.371	15264
916.483	15226
916.595	15070
916.708	15085
916.82	15135
916.932	15024
917.044	15032
917.156	15047
917.268	14918
917.38	14975
917.491	14944
917.603	14944
917.715	14944
917.826	15017
917.938	14921
918.049	14823
918.161	14842
918.272	15013
918.384	14906
918.495	14891
918.606	14815
918.717	14602
918.828	14644
918.939	14640
919.05	14617
919.161	14644
919.272	14552
919.383	14389
919.494	14807
919.604	14948
919.715	14697
919.826	14556
919.936	14594
920.047	14750
920.157	14678
920.267	14826
920.378	14667
920.488	14682
920.598	14826
920.708	14944
920.818	14785
920.928	14788
921.038	15032
921.148	14796
921.258	14590
921.368	14488
921.477	14423
921.587	14492
921.697	14248
921.806	14412
921.916	14317
922.025	14073
922.134	14012
922.244	13921
922.353	14046
922.462	13871
922.571	13772
922.68	13666
922.789	13624
922.898	13685
923.007	13632
923.116	13651
923.224	13624
923.333	13628
923.442	13506
923.55	13510
923.659	13571
923.767	13540
923.876	13476
923.984	13506
924.092	13312
924.201	13441
924.309	13411
924.417	13403
924.525	13377
924.633	13339
924.741	14050
924.849	13137
924.956	13221
925.064	13183
925.172	13012
925.279	13080
925.387	13137
925.494	13084
925.602	13244
925.709	13103
925.816	12970
925.924	12973
926.031	13149
926.138	12996
926.245	13107
926.352	12962
926.459	12993
926.566	13069
926.673	12977
926.779	12798
926.886	12791
926.993	12665
927.099	12635
927.206	12604
927.312	12574
927.419	12688
927.525	12669
927.631	12692
927.737	12445
927.843	12483
927.95	12414
928.056	12441
928.162	12551
928.267	12483
928.373	13076
928.479	12566
928.585	12209
928.69	12384
928.796	12441
928.901	12273
929.007	12163
929.112	12300
929.218	12289
929.323	12228
929.428	12178
929.533	12319
929.638	12076
929.743	12110
929.848	12163
929.953	12133
930.058	11878
930.163	11893
930.267	11866
930.372	11965
930.477	11729
930.581	12011
930.685	11855
930.79	11764
930.894	11809
930.998	11771
931.103	11824
931.207	11414
931.311	11417
931.415	11284
931.519	11128
931.623	11193
