Data from test_V78500241_2283.txt Node
Date: Fri Mar 25 15:25:45 CST 2022
User: usil
Spectrometer: V785-0024
Trigger mode: 0
Integration Time (sec): 4.000000E-1
Scans to average: 1
Nonlinearity correction enabled: false
Boxcar width: 0
Storing dark spectrum: false
XAxis mode: Wavelengths
Number of Pixels in Spectrum: 1024
>>>>>Begin Spectral Data<<<<<
801.071	27610
801.214	27682
801.356	27458
801.499	27203
801.641	27367
801.783	27329
801.926	27325
802.068	27237
802.211	27066
802.353	26944
802.496	27020
802.638	26899
802.78	26952
802.923	26686
803.065	26750
803.208	26845
803.35	26963
803.492	27039
803.635	27116
803.777	26975
803.919	27096
804.061	27291
804.204	27070
804.346	27062
804.488	26960
804.63	26982
804.773	26963
804.915	26910
805.057	27188
805.199	27085
805.341	27036
805.483	27256
805.626	27199
805.768	27112
805.91	27211
806.052	27119
806.194	26994
806.336	27325
806.478	27226
806.62	27150
806.762	27264
806.904	27447
807.046	27660
807.188	27633
807.33	27549
807.472	27644
807.614	27492
807.756	27439
807.898	27485
808.04	27378
808.182	27519
808.324	27507
808.465	27515
808.607	27728
808.749	27652
808.891	27998
809.033	28036
809.174	27888
809.316	27861
809.458	27812
809.6	27743
809.741	27991
809.883	28044
810.025	28059
810.166	28185
810.308	28109
810.45	27899
810.591	27975
810.733	27808
810.875	27774
811.016	27690
811.158	27743
811.299	27884
811.441	27945
811.582	28063
811.724	27869
811.865	27724
812.007	27838
812.148	27709
812.29	27759
812.431	27983
812.573	28158
812.714	28291
812.855	28329
812.997	28516
813.138	28527
813.279	28413
813.421	28257
813.562	28306
813.703	28105
813.845	27998
813.986	27747
814.127	27545
814.268	27553
814.41	27481
814.551	27526
814.692	27553
814.833	27469
814.974	27504
815.115	27534
815.256	27431
815.397	27374
815.539	27393
815.68	27218
815.821	27226
815.962	27329
816.103	27260
816.244	27081
816.385	27081
816.526	27085
816.666	26891
816.807	26727
816.948	26902
817.089	26967
817.23	26792
817.371	26872
817.512	26781
817.653	26625
817.793	26716
817.934	26727
818.075	26807
818.216	26883
818.356	26746
818.497	26587
818.638	26488
818.778	26427
818.919	26518
819.06	26484
819.2	26625
819.341	26670
819.481	26625
819.622	26948
819.762	27093
819.903	26986
820.043	26933
820.184	26826
820.324	26849
820.465	27093
820.605	26876
820.746	26834
820.886	26838
821.026	26758
821.167	26754
821.307	26819
821.447	26872
821.588	26724
821.728	26587
821.868	26389
822.008	26271
822.149	26183
822.289	26214
822.429	25997
822.569	25883
822.709	25879
822.849	25738
822.99	25761
823.13	25811
823.27	25601
823.41	25396
823.55	25438
823.69	25533
823.83	25575
823.97	25548
824.11	25324
824.25	25316
824.389	25335
824.529	25354
824.669	25266
824.809	25525
824.949	25441
825.089	25339
825.228	25430
825.368	25179
825.508	25137
825.648	25137
825.787	25255
825.927	25304
826.067	25240
826.206	25198
826.346	25362
826.485	25308
826.625	25350
826.765	25221
826.904	25278
827.044	25076
827.183	24867
827.323	24840
827.462	24962
827.601	24825
827.741	24996
827.88	24954
828.02	24882
828.159	24951
828.298	25050
828.437	24977
828.577	24821
828.716	24909
828.855	24875
828.994	24726
829.134	24585
829.273	24719
829.412	24536
829.551	24650
829.69	24760
829.829	24642
829.968	24696
830.107	24825
830.246	24692
830.385	24612
830.524	24483
830.663	24448
830.802	24365
830.941	24209
831.08	24266
831.219	24296
831.357	24346
831.496	24426
831.635	24228
831.774	24114
831.913	24144
832.051	24038
832.19	23988
832.329	24091
832.467	24007
832.606	23817
832.744	23863
832.883	23916
833.022	24041
833.16	23942
833.299	23996
833.437	24098
833.576	23954
833.714	23912
833.852	24045
833.991	24083
834.129	24136
834.267	24083
834.406	23992
834.544	24030
834.682	24072
834.821	23988
834.959	24117
835.097	23904
835.235	23863
835.373	23916
835.511	24007
835.65	23760
835.788	23748
835.926	23630
836.064	23668
836.202	23570
836.34	23828
836.478	23874
836.615	23714
836.753	23741
836.891	23942
837.029	23847
837.167	23851
837.305	23760
837.443	23581
837.58	23638
837.718	23684
837.856	23680
837.993	23516
838.131	23570
838.269	23589
838.406	23531
838.544	23524
838.681	23376
838.819	23284
838.956	23048
839.094	23170
839.231	23269
839.369	23417
839.506	23520
839.643	23288
839.781	23200
839.918	23052
840.055	22961
840.193	23094
840.33	23029
840.467	23052
840.604	23117
840.742	23269
840.879	22908
841.016	22984
841.153	22953
841.29	23117
841.427	23105
841.564	23029
841.701	23067
841.838	22957
841.975	22965
842.112	23033
842.249	22972
842.385	22782
842.522	23041
842.659	22869
842.796	22778
842.933	22744
843.069	22790
843.206	22702
843.343	22858
843.479	22721
843.616	22896
843.752	22569
843.889	22481
844.025	22683
844.162	22622
844.298	22580
844.435	22557
844.571	22694
844.708	22557
844.844	22691
844.98	22577
845.117	22649
845.253	22512
845.389	22322
845.525	22459
845.661	22382
845.798	22242
845.934	22371
846.07	22162
846.206	22356
846.342	22348
846.478	22310
846.614	22078
846.75	21994
846.886	22101
847.022	22185
847.158	22055
847.294	22017
847.429	22025
847.565	22021
847.701	22367
847.837	21838
847.972	21610
848.108	21793
848.244	21804
848.379	21724
848.515	21557
848.65	21648
848.786	21637
848.921	21599
849.057	21675
849.192	21838
849.328	21656
849.463	21557
849.598	21572
849.734	21416
849.869	21534
850.004	21378
850.14	21454
850.275	21447
850.41	21264
850.545	21332
850.68	21382
850.815	21553
850.95	21386
851.085	21519
851.22	21526
851.355	21496
851.49	21416
851.625	21302
851.76	21389
851.895	21332
852.03	21287
852.165	21428
852.299	21321
852.434	21306
852.569	21431
852.703	21332
852.838	21485
852.973	21500
853.107	21481
853.242	21188
853.376	21298
853.511	21119
853.645	21199
853.78	21294
853.914	21176
854.048	21169
854.183	21043
854.317	21287
854.451	21287
854.585	21275
854.72	21154
854.854	21367
854.988	21119
855.122	21275
855.256	21039
855.39	21218
855.524	21237
855.658	21211
855.792	21291
855.926	21184
856.06	21218
856.194	21302
856.327	21055
856.461	21039
856.595	21176
856.729	21199
856.862	21275
856.996	21188
857.13	21283
857.263	21310
857.397	21313
857.53	21146
857.664	21321
857.797	21336
857.931	21325
858.064	21214
858.197	21405
858.331	21176
858.464	21081
858.597	21104
858.731	21249
858.864	21218
858.997	21138
859.13	21268
859.263	21009
859.396	21241
859.529	21211
859.662	21184
859.795	21188
859.928	21184
860.061	21325
860.194	21458
860.327	21211
860.46	21146
860.592	21294
860.725	21370
860.858	21264
860.99	21123
861.123	21055
861.256	21138
861.388	21173
861.521	21991
861.653	21100
861.786	21005
861.918	21123
862.05	21055
862.183	21070
862.315	21317
862.447	21199
862.58	21154
862.712	21013
862.844	20876
862.976	21036
863.108	21036
863.24	21203
863.372	20986
863.504	20929
863.636	20876
863.768	20967
863.9	20830
864.032	20925
864.164	20868
864.296	20933
864.428	21047
864.559	20895
864.691	21024
864.823	20880
864.954	20853
865.086	20887
865.217	20777
865.349	20800
865.48	20769
865.612	21005
865.743	20895
865.875	20735
866.006	20788
866.137	20861
866.269	20804
866.4	20788
866.531	20807
866.662	20762
866.793	20724
866.924	20678
867.055	20769
867.186	20765
867.317	20659
867.448	20621
867.579	20773
867.71	20693
867.841	20708
867.972	20686
868.103	20648
868.233	20746
868.364	20788
868.495	20876
868.625	20979
868.756	21077
868.886	20921
869.017	20960
869.147	21127
869.278	21085
869.408	21043
869.539	20990
869.669	21093
869.799	21055
869.929	21100
870.06	21085
870.19	21279
870.32	21287
870.45	21370
870.58	21382
870.71	21325
870.84	21488
870.97	21363
871.1	21313
871.23	21504
871.36	21606
871.489	21367
871.619	21530
871.749	21641
871.879	21610
872.008	21660
872.138	21515
872.267	21557
872.397	21477
872.526	21420
872.656	21458
872.785	21325
872.915	21496
873.044	21637
873.173	21603
873.303	21736
873.432	21686
873.561	21766
873.69	21629
873.819	21511
873.948	21656
874.077	21538
874.206	21587
874.335	21583
874.464	21789
874.593	21789
874.722	21865
874.851	21915
874.979	21869
875.108	21835
875.237	21770
875.365	21835
875.494	21838
875.623	22006
875.751	21827
875.88	21755
876.008	21838
876.136	21930
876.265	22196
876.393	22322
876.521	22413
876.65	22356
876.778	22253
876.906	22177
877.034	22063
877.162	22086
877.29	22192
877.418	22128
877.546	22109
877.674	22242
877.802	22086
877.93	22120
878.058	22169
878.185	21979
878.313	22063
878.441	22131
878.568	21926
878.696	22207
878.824	22238
878.951	22306
879.079	22284
879.206	22443
879.333	22344
879.461	22139
879.588	22223
879.715	22325
879.842	22462
879.97	22363
880.097	22070
880.224	22010
880.351	22059
880.478	21899
880.605	22040
880.732	21998
880.859	22158
880.986	22101
881.112	21865
881.239	21850
881.366	21694
881.493	21766
881.619	21595
881.746	21473
881.872	21591
881.999	21428
882.125	21633
882.252	21625
882.378	21576
882.505	21603
882.631	21378
882.757	21211
882.883	21363
883.01	21279
883.136	21180
883.262	21062
883.388	21195
883.514	21180
883.64	21393
883.766	21047
883.892	20941
884.018	21108
884.143	21119
884.269	21351
884.395	21013
884.52	20861
884.646	20998
884.772	20982
884.897	20804
885.023	20963
885.148	21074
885.274	20963
885.399	21066
885.524	20902
885.65	20967
885.775	20967
885.9	20834
886.025	21001
886.15	20921
886.275	20929
886.4	20819
886.525	20876
886.65	20872
886.775	20826
886.9	20982
887.025	21070
887.149	20906
887.274	20674
887.399	20594
887.523	20769
887.648	20640
887.773	20579
887.897	20705
888.021	20674
888.146	20636
888.27	20750
888.395	20746
888.519	20785
888.643	20758
888.767	20632
888.891	20678
889.015	20473
889.139	20530
889.263	20522
889.387	20457
889.511	20678
889.635	20629
889.759	20522
889.883	20488
890.006	20511
890.13	20648
890.254	20328
890.377	20454
890.501	20214
890.624	20111
890.748	20271
890.871	20187
890.995	20016
891.118	19989
891.241	20046
891.364	19978
891.488	20153
891.611	19982
891.734	20069
891.857	20111
891.98	20153
892.103	20126
892.226	20035
892.349	19955
892.471	19788
892.594	19951
892.717	19989
892.839	19951
892.962	19986
893.085	20103
893.207	19890
893.33	19928
893.452	19993
893.575	20035
893.697	19967
893.819	20035
893.941	20046
894.064	20088
894.186	19898
894.308	19849
894.43	20122
894.552	20077
894.674	19928
894.796	19833
894.918	19974
895.04	19959
895.161	20172
895.283	20050
895.405	19951
895.526	20096
895.648	19986
895.769	20001
895.891	19917
896.012	20115
896.134	19989
896.255	20027
896.376	19799
896.498	19925
896.619	20024
896.74	19928
896.861	20138
896.982	20328
897.103	20488
897.224	20317
897.345	20195
897.466	20187
897.587	20202
897.708	20324
897.828	20309
897.949	20199
898.07	20073
898.19	20248
898.311	20278
898.431	20183
898.552	20237
898.672	20324
898.792	20271
898.913	20218
899.033	20122
899.153	20088
899.273	19917
899.393	20020
899.513	20092
899.633	20031
899.753	20031
899.873	19856
899.993	19951
900.113	19860
900.232	20027
900.352	19898
900.472	19822
900.591	19731
900.711	19814
900.83	19693
900.95	19811
901.069	19887
901.189	19556
901.308	19510
901.427	19350
901.546	19373
901.665	19434
901.784	19472
901.904	19213
902.023	19179
902.141	18954
902.26	18943
902.379	18981
902.498	18829
902.617	18821
902.735	18958
902.854	18787
902.973	18829
903.091	18563
903.21	18490
903.328	18445
903.446	18330
903.565	18407
903.683	18330
903.801	18262
903.919	18148
904.038	18372
904.156	18163
904.274	18171
904.392	18167
904.51	18072
904.627	18110
904.745	18064
904.863	18213
904.981	17939
905.098	17707
905.216	17767
905.334	17802
905.451	17817
905.569	17726
905.686	17779
905.803	17718
905.921	17657
906.038	17630
906.155	17608
906.272	17425
906.389	17543
906.506	17303
906.623	17185
906.74	17250
906.857	17204
906.974	17254
907.091	17417
907.208	17356
907.324	17299
907.441	17246
907.557	16999
907.674	17117
907.79	16946
907.907	17006
908.023	17048
908.139	16991
908.256	16972
908.372	16953
908.488	16805
908.604	16675
908.72	16717
908.836	16797
908.952	16778
909.068	16793
909.184	16805
909.3	16679
909.415	16755
909.531	16607
909.647	16424
909.762	16413
909.878	16455
909.993	16470
910.108	16386
910.224	16432
910.339	16379
910.454	16333
910.57	16287
910.685	16124
910.8	16432
910.915	16447
911.03	16234
911.145	16036
911.259	16166
911.374	16067
911.489	15876
911.604	15930
911.718	15850
911.833	15857
911.947	15652
912.062	15599
912.176	15568
912.291	15846
912.405	15770
912.519	15964
912.633	15956
912.748	15903
912.862	15781
912.976	15675
913.09	15580
913.204	15549
913.318	15633
913.431	15751
913.545	15656
913.659	15667
913.772	15507
913.886	15466
914	15462
914.113	15511
914.226	15557
914.34	15477
914.453	15294
914.566	15389
914.68	15249
914.793	15230
914.906	15127
915.019	15001
915.132	15066
915.245	14929
915.358	15017
915.47	14975
915.583	15005
915.696	15028
915.809	15154
915.921	15161
916.034	15032
916.146	14937
916.259	14883
916.371	14921
916.483	14986
916.595	14872
916.708	14830
916.82	14853
916.932	14861
917.044	14800
917.156	14842
917.268	14621
917.38	14716
917.491	14571
917.603	14651
917.715	14720
917.826	14705
917.938	14621
918.049	14571
918.161	14655
918.272	14765
918.384	14773
918.495	14682
918.606	14560
918.717	14343
918.828	14499
918.939	14476
919.05	14385
919.161	14370
919.272	14271
919.383	14336
919.494	14423
919.604	14651
919.715	14389
919.826	14286
919.936	14385
920.047	14495
920.157	14332
920.267	14560
920.378	14431
920.488	14351
920.598	14556
920.708	14579
920.818	14587
920.928	14602
921.038	14651
921.148	14750
921.258	14336
921.368	14317
921.477	14149
921.587	14077
921.697	14081
921.806	14119
921.916	14008
922.025	13868
922.134	13852
922.244	13693
922.353	13868
922.462	13594
922.571	13605
922.68	13483
922.789	13510
922.898	13514
923.007	13358
923.116	13495
923.224	13445
923.333	13449
923.442	13278
923.55	13304
923.659	13316
923.767	13369
923.876	13213
923.984	13308
924.092	13107
924.201	13202
924.309	13118
924.417	13202
924.525	13084
924.633	12970
924.741	13921
924.849	12977
924.956	12970
925.064	12886
925.172	12817
925.279	12806
925.387	12878
925.494	12886
925.602	12966
925.709	12916
925.816	12795
925.924	12821
926.031	12897
926.138	12753
926.245	12878
926.352	12696
926.459	12779
926.566	12897
926.673	12707
926.779	12601
926.886	12700
926.993	12426
927.099	12494
927.206	12391
927.312	12323
927.419	12517
927.525	12372
927.631	12467
927.737	12292
927.843	12300
927.95	12136
928.056	12205
928.162	12232
928.267	12296
928.373	12840
928.479	12292
928.585	12072
928.69	12194
928.796	12216
928.901	12102
929.007	12007
929.112	12201
929.218	12095
929.323	11961
929.428	11946
929.533	12159
929.638	11851
929.743	11927
929.848	11920
929.953	11939
930.058	11817
930.163	11680
930.267	11649
930.372	11859
930.477	11646
930.581	11874
930.685	11722
930.79	11539
930.894	11680
930.998	11471
931.103	11623
931.207	11277
931.311	11261
931.415	11121
931.519	11025
931.623	10934
