Data from test_V78500241_173.txt Node
Date: Fri Mar 25 15:11:03 CST 2022
User: usil
Spectrometer: V785-0024
Trigger mode: 0
Integration Time (sec): 4.000000E-1
Scans to average: 1
Nonlinearity correction enabled: false
Boxcar width: 0
Storing dark spectrum: false
XAxis mode: Wavelengths
Number of Pixels in Spectrum: 1024
>>>>>Begin Spectral Data<<<<<
801.071	28025
801.214	27831
801.356	27698
801.499	27705
801.641	27557
801.783	27595
801.926	27545
802.068	27515
802.211	27424
802.353	27359
802.496	27386
802.638	27195
802.78	27169
802.923	27199
803.065	27039
803.208	27066
803.35	27222
803.492	27260
803.635	27249
803.777	27169
803.919	27214
804.061	27812
804.204	27264
804.346	27127
804.488	27146
804.63	27138
804.773	27005
804.915	27321
805.057	27466
805.199	27039
805.341	27325
805.483	27260
805.626	27332
805.768	27157
805.91	27363
806.052	27313
806.194	27214
806.336	27382
806.478	27374
806.62	27488
806.762	27473
806.904	27530
807.046	27724
807.188	27698
807.33	27774
807.472	27781
807.614	27553
807.756	27641
807.898	27557
808.04	27591
808.182	27386
808.324	27637
808.465	27587
808.607	27717
808.749	27953
808.891	27888
809.033	28025
809.174	27869
809.316	27831
809.458	27838
809.6	27793
809.741	27911
809.883	27926
810.025	28158
810.166	28044
810.308	28131
810.45	27888
810.591	28032
810.733	27838
810.875	27793
811.016	27701
811.158	27717
811.299	27781
811.441	28036
811.582	27865
811.724	27690
811.865	27743
812.007	27861
812.148	27713
812.29	27876
812.431	28112
812.573	28265
812.714	28128
812.855	28287
812.997	28356
813.138	28424
813.279	28447
813.421	28238
813.562	28306
813.703	28090
813.845	27899
813.986	27686
814.127	27542
814.268	27545
814.41	27447
814.551	27332
814.692	27458
814.833	27298
814.974	27321
815.115	27443
815.256	27374
815.397	27233
815.539	27272
815.68	27089
815.821	27180
815.962	27313
816.103	27207
816.244	26952
816.385	26880
816.526	26998
816.666	26853
816.807	26564
816.948	26659
817.089	26655
817.23	26705
817.371	26613
817.512	26617
817.653	26499
817.793	26526
817.934	26583
818.075	26651
818.216	26659
818.356	26499
818.497	26484
818.638	26267
818.778	26218
818.919	26218
819.06	26461
819.2	26499
819.341	26492
819.481	26602
819.622	26621
819.762	26944
819.903	26765
820.043	26689
820.184	26560
820.324	26495
820.465	26720
820.605	26724
820.746	26697
820.886	26320
821.026	26556
821.167	26507
821.307	26606
821.447	26568
821.588	26476
821.728	26252
821.868	26221
822.008	25906
822.149	25864
822.289	25966
822.429	25830
822.569	25620
822.709	25597
822.849	25552
822.99	25369
823.13	25327
823.27	25297
823.41	25171
823.55	25206
823.69	25381
823.83	25316
823.97	25263
824.11	24970
824.25	24985
824.389	25004
824.529	25091
824.669	25019
824.809	25053
824.949	25187
825.089	25156
825.228	24985
825.368	24897
825.508	24837
825.648	24757
825.787	24939
825.927	24996
826.067	24886
826.206	24730
826.346	24711
826.485	24867
826.625	24844
826.765	24951
826.904	25004
827.044	24669
827.183	24505
827.323	24502
827.462	24650
827.601	24445
827.741	24490
827.88	24536
828.02	24433
828.159	24525
828.298	24620
828.437	24502
828.577	24490
828.716	24669
828.855	24505
828.994	24338
829.134	24254
829.273	24300
829.412	24281
829.551	24155
829.69	24292
829.829	24247
829.968	24315
830.107	24262
830.246	24148
830.385	24171
830.524	24064
830.663	24030
830.802	23988
830.941	23923
831.08	23680
831.219	23904
831.357	23961
831.496	23999
831.635	23809
831.774	23745
831.913	23657
832.051	23630
832.19	23554
832.329	23570
832.467	23531
832.606	23337
832.744	23402
832.883	23421
833.022	23455
833.16	23467
833.299	23471
833.437	23547
833.576	23493
833.714	23402
833.852	23600
833.991	23478
834.129	23577
834.267	23558
834.406	23554
834.544	23497
834.682	23501
834.821	23433
834.959	23592
835.097	23349
835.235	23528
835.373	23425
835.511	23368
835.65	23337
835.788	23307
835.926	23193
836.064	23071
836.202	23140
836.34	23471
836.478	23531
836.615	23261
836.753	23448
836.891	23360
837.029	23387
837.167	23280
837.305	23258
837.443	23185
837.58	23151
837.718	23315
837.856	23170
837.993	23265
838.131	23143
838.269	22987
838.406	22987
838.544	23003
838.681	22687
838.819	22786
838.956	22713
839.094	22550
839.231	22611
839.369	22733
839.506	22915
839.643	22858
839.781	22546
839.918	22588
840.055	22573
840.193	22474
840.33	22599
840.467	22489
840.604	22653
840.742	22809
840.879	22394
841.016	22538
841.153	22417
841.29	22698
841.427	22489
841.564	22451
841.701	22546
841.838	22485
841.975	22451
842.112	22382
842.249	22257
842.385	22112
842.522	22489
842.659	22318
842.796	22215
842.933	22276
843.069	22249
843.206	22143
843.343	22249
843.479	22177
843.616	22200
843.752	22017
843.889	22040
844.025	22063
844.162	21888
844.298	21907
844.435	21968
844.571	21960
844.708	22002
844.844	22116
844.98	22219
845.117	22112
845.253	21838
845.389	21838
845.525	21861
845.661	21785
845.798	21618
845.934	21857
846.07	21644
846.206	21724
846.342	21918
846.478	21633
846.614	21538
846.75	21401
846.886	21428
847.022	21534
847.158	21466
847.294	21458
847.429	21431
847.565	21488
847.701	21686
847.837	21203
847.972	21131
848.108	21199
848.244	21165
848.379	20979
848.515	20979
848.65	20944
848.786	20998
848.921	21055
849.057	21173
849.192	21058
849.328	21005
849.463	21005
849.598	20948
849.734	20861
849.869	20872
850.004	20773
850.14	20857
850.275	20758
850.41	20651
850.545	20701
850.68	20625
850.815	20697
850.95	20674
851.085	20868
851.22	20754
851.355	20712
851.49	20815
851.625	20670
851.76	20651
851.895	20667
852.03	20594
852.165	20674
852.299	20743
852.434	20849
852.569	20636
852.703	20731
852.838	20899
852.973	20849
853.107	20914
853.242	20495
853.376	20484
853.511	20423
853.645	20522
853.78	20880
853.914	20537
854.048	20503
854.183	20484
854.317	20720
854.451	20670
854.585	20575
854.72	20476
854.854	20579
854.988	20507
855.122	20385
855.256	20374
855.39	20412
855.524	20590
855.658	20621
855.792	20587
855.926	20556
856.06	20583
856.194	20549
856.327	20613
856.461	20446
856.595	20438
856.729	20609
856.862	20629
856.996	20503
857.13	20571
857.263	20632
857.397	20632
857.53	20495
857.664	20549
857.797	20598
857.931	20583
858.064	20522
858.197	20492
858.331	20438
858.464	20450
858.597	20434
858.731	20339
858.864	20480
858.997	20442
859.13	20488
859.263	20533
859.396	20571
859.529	20366
859.662	20438
859.795	20431
859.928	20442
860.061	20598
860.194	20625
860.327	20564
860.46	20454
860.592	20682
860.725	20617
860.858	20640
860.99	20404
861.123	20423
861.256	20351
861.388	20446
861.521	21306
861.653	20294
861.786	20191
861.918	20267
862.05	20442
862.183	20442
862.315	20351
862.447	20571
862.58	20533
862.712	20362
862.844	20225
862.976	20229
863.108	20290
863.24	20518
863.372	20168
863.504	20149
863.636	20237
863.768	20138
863.9	20176
864.032	20115
864.164	20088
864.296	20164
864.428	20252
864.559	20225
864.691	20221
864.823	20187
864.954	20119
865.086	20187
865.217	20069
865.349	19993
865.48	20043
865.612	20081
865.743	20168
865.875	20088
866.006	19921
866.137	20115
866.269	20176
866.4	20039
866.531	19909
866.662	19951
866.793	19982
866.924	19963
867.055	20126
867.186	20050
867.317	20005
867.448	19909
867.579	19925
867.71	19955
867.841	20012
867.972	20043
868.103	19963
868.233	19909
868.364	20027
868.495	20115
868.625	20324
868.756	20313
868.886	20195
869.017	20214
869.147	20290
869.278	20358
869.408	20195
869.539	20294
869.669	20393
869.799	20282
869.929	20400
870.06	20286
870.19	20541
870.32	20476
870.45	20571
870.58	20655
870.71	20701
870.84	20625
870.97	20564
871.1	20575
871.23	20750
871.36	20762
871.489	20655
871.619	20785
871.749	20807
871.879	20838
872.008	20937
872.138	20902
872.267	20876
872.397	20659
872.526	20522
872.656	20609
872.785	20651
872.915	20952
873.044	20914
873.173	20967
873.303	20906
873.432	21036
873.561	20956
873.69	20891
873.819	20853
873.948	20975
874.077	20967
874.206	20815
874.335	20834
874.464	20952
874.593	20998
874.722	20967
874.851	21116
874.979	21150
875.108	21123
875.237	21081
875.365	21017
875.494	21043
875.623	21180
875.751	21070
875.88	21142
876.008	21135
876.136	21348
876.265	21542
876.393	21614
876.521	21561
876.65	21576
876.778	21587
876.906	21477
877.034	21359
877.162	21583
877.29	21336
877.418	21595
877.546	21439
877.674	21504
877.802	21439
877.93	21450
878.058	21397
878.185	21359
878.313	21351
878.441	21466
878.568	21321
878.696	21405
878.824	21443
878.951	21576
879.079	21473
879.206	21895
879.333	21667
879.461	21545
879.588	21458
879.715	21641
879.842	21835
879.97	21568
880.097	21348
880.224	21180
880.351	21252
880.478	21317
880.605	21287
880.732	21325
880.859	21454
880.986	21241
881.112	21291
881.239	21279
881.366	21036
881.493	20861
881.619	20857
881.746	20861
881.872	20804
881.999	20899
882.125	20834
882.252	20941
882.378	20849
882.505	21051
882.631	20686
882.757	20640
882.883	20598
883.01	20678
883.136	20564
883.262	20571
883.388	20473
883.514	20560
883.64	20636
883.766	20503
883.892	20381
884.018	20518
884.143	20613
884.269	20705
884.395	20248
884.52	20195
884.646	20294
884.772	20313
884.897	20202
885.023	20202
885.148	20252
885.274	20446
885.399	20320
885.524	20206
885.65	20343
885.775	20240
885.9	20206
886.025	20358
886.15	20343
886.275	20202
886.4	20115
886.525	20164
886.65	20145
886.775	20103
886.9	20370
887.025	20377
887.149	20259
887.274	20062
887.399	20031
887.523	20031
887.648	20035
887.773	20050
887.897	20027
888.021	20073
888.146	19932
888.27	20073
888.395	20115
888.519	19993
888.643	20077
888.767	20130
888.891	19970
889.015	19670
889.139	19868
889.263	19727
889.387	20046
889.511	20012
889.635	19993
889.759	19799
889.883	19769
890.006	19769
890.13	19837
890.254	19662
890.377	19681
890.501	19518
890.624	19491
890.748	19537
890.871	19571
890.995	19324
891.118	19312
891.241	19320
891.364	19434
891.488	19540
891.611	19407
891.734	19327
891.857	19502
891.98	19381
892.103	19563
892.226	19362
892.349	19373
892.471	19331
892.594	19297
892.717	19278
892.839	19308
892.962	19236
893.085	19365
893.207	19369
893.33	19122
893.452	19225
893.575	19285
893.697	19266
893.819	19445
893.941	19400
894.064	19476
894.186	19240
894.308	19221
894.43	19499
894.552	19457
894.674	19400
894.796	19301
894.918	19304
895.04	19369
895.161	19457
895.283	19228
895.405	19316
895.526	19339
895.648	19217
895.769	19403
895.891	19255
896.012	19346
896.134	19263
896.255	19308
896.376	19225
896.498	19304
896.619	19514
896.74	19316
896.861	19476
896.982	19723
897.103	19921
897.224	19651
897.345	19597
897.466	19468
897.587	19590
897.708	19681
897.828	19643
897.949	19472
898.07	19430
898.19	19586
898.311	19544
898.431	19449
898.552	19499
898.672	19708
898.792	19563
898.913	19525
899.033	19571
899.153	19335
899.273	19206
899.393	19377
899.513	19209
899.633	19266
899.753	19266
899.873	19263
899.993	19259
900.113	19236
900.232	19217
900.352	19194
900.472	19034
900.591	19099
900.711	19137
900.83	19042
900.95	19240
901.069	19114
901.189	19046
901.308	18806
901.427	18654
901.546	18772
901.665	18779
901.784	18661
901.904	18464
902.023	18418
902.141	18403
902.26	18235
902.379	18372
902.498	18171
902.617	18171
902.735	18163
902.854	18095
902.973	18110
903.091	17920
903.21	17912
903.328	17779
903.446	17790
903.565	17733
903.683	17646
903.801	17558
903.919	17615
904.038	17604
904.156	17376
904.274	17528
904.392	17440
904.51	17512
904.627	17383
904.745	17406
904.863	17573
904.981	17273
905.098	17121
905.216	17071
905.334	17071
905.451	17166
905.569	17109
905.686	17143
905.803	17086
905.921	16911
906.038	16873
906.155	16877
906.272	16797
906.389	16774
906.506	16683
906.623	16554
906.74	16660
906.857	16455
906.974	16656
907.091	16725
907.208	16782
907.324	16664
907.441	16512
907.557	16508
907.674	16306
907.79	16310
907.907	16322
908.023	16394
908.139	16211
908.256	16253
908.372	16306
908.488	16318
908.604	16067
908.72	16109
908.836	16090
908.952	15998
909.068	16078
909.184	16261
909.3	16017
909.415	16105
909.531	16055
909.647	15812
909.762	15751
909.878	15770
909.993	15686
910.108	15743
910.224	15732
910.339	15610
910.454	15682
910.57	15557
910.685	15538
910.8	15736
910.915	15762
911.03	15557
911.145	15439
911.259	15313
911.374	15302
911.489	15386
911.604	15237
911.718	15188
911.833	15169
911.947	15009
912.062	14933
912.176	15081
912.291	15112
912.405	15192
912.519	15226
912.633	15264
912.748	15104
912.862	15024
912.976	14899
913.09	14857
913.204	14902
913.318	14887
913.431	14994
913.545	14986
913.659	15047
913.772	14925
913.886	14743
914	14712
914.113	14830
914.226	14758
914.34	14811
914.453	14625
914.566	14727
914.68	14667
914.793	14632
914.906	14381
915.019	14450
915.132	14305
915.245	14355
915.358	14450
915.47	14305
915.583	14408
915.696	14438
915.809	14495
915.921	14571
916.034	14305
916.146	14225
916.259	14290
916.371	14381
916.483	14256
916.595	14290
916.708	14172
916.82	14218
916.932	14088
917.044	14145
917.156	14168
917.268	14050
917.38	14115
917.491	13974
917.603	14001
917.715	14115
917.826	14084
917.938	14081
918.049	13879
918.161	14008
918.272	14153
918.384	14157
918.495	14035
918.606	13864
918.717	13753
918.828	13696
918.939	13769
919.05	13685
919.161	13791
919.272	13628
919.383	13715
919.494	13811
919.604	14020
919.715	13795
919.826	13723
919.936	13753
920.047	13868
920.157	13708
920.267	13993
920.378	13712
920.488	13731
920.598	13894
920.708	14054
920.818	13868
920.928	13925
921.038	14073
921.148	14005
921.258	13681
921.368	13601
921.477	13578
921.587	13460
921.697	13377
921.806	13483
921.916	13388
922.025	13183
922.134	13206
922.244	13084
922.353	13206
922.462	13160
922.571	12973
922.68	12787
922.789	12787
922.898	12753
923.007	12738
923.116	12798
923.224	12821
923.333	12817
923.442	12764
923.55	12658
923.659	12764
923.767	12681
923.876	12589
923.984	12650
924.092	12559
924.201	12563
924.309	12608
924.417	12502
924.525	12456
924.633	12566
924.741	13274
924.849	12258
924.956	12490
925.064	12391
925.172	12197
925.279	12254
925.387	12410
925.494	12346
925.602	12395
925.709	12426
925.816	12175
925.924	12285
926.031	12296
926.138	12258
926.245	12300
926.352	12182
926.459	12213
926.566	12270
926.673	12136
926.779	12041
926.886	12053
926.993	11805
927.099	11874
927.206	11802
927.312	11748
927.419	11882
927.525	11889
927.631	11920
927.737	11843
927.843	11630
927.95	11547
928.056	11688
928.162	11657
928.267	11703
928.373	12243
928.479	11771
928.585	11566
928.69	11672
928.796	11676
928.901	11501
929.007	11459
929.112	11581
929.218	11581
929.323	11433
929.428	11414
929.533	11512
929.638	11292
929.743	11334
929.848	11516
929.953	11417
930.058	11242
930.163	11121
930.267	11117
930.372	11299
930.477	11079
930.581	11334
930.685	11094
930.79	10866
930.894	10968
930.998	10999
931.103	11109
931.207	10797
931.311	10698
931.415	10531
931.519	10379
931.623	10386
