Data from test_V78500241_596.txt Node
Date: Fri Mar 25 15:14:00 CST 2022
User: usil
Spectrometer: V785-0024
Trigger mode: 0
Integration Time (sec): 4.000000E-1
Scans to average: 1
Nonlinearity correction enabled: false
Boxcar width: 0
Storing dark spectrum: false
XAxis mode: Wavelengths
Number of Pixels in Spectrum: 1024
>>>>>Begin Spectral Data<<<<<
801.071	27351
801.214	27264
801.356	27123
801.499	27039
801.641	26853
801.783	26864
801.926	27184
802.068	26944
802.211	26857
802.353	26670
802.496	26511
802.638	26629
802.78	26530
802.923	26351
803.065	26511
803.208	26583
803.35	26598
803.492	26686
803.635	26712
803.777	26533
803.919	26697
804.061	26979
804.204	26800
804.346	26499
804.488	26560
804.63	26655
804.773	26724
804.915	26568
805.057	26701
805.199	26629
805.341	26819
805.483	26686
805.626	26739
805.768	26659
805.91	26640
806.052	26883
806.194	26670
806.336	27028
806.478	26807
806.62	26796
806.762	26937
806.904	27005
807.046	27287
807.188	27298
807.33	27169
807.472	27287
807.614	27157
807.756	27207
807.898	27009
808.04	26914
808.182	27020
808.324	27055
808.465	27127
808.607	27272
808.749	27245
808.891	27427
809.033	27431
809.174	27595
809.316	27321
809.458	27443
809.6	27462
809.741	27462
809.883	27523
810.025	27622
810.166	27648
810.308	27701
810.45	27568
810.591	27553
810.733	27507
810.875	27488
811.016	27233
811.158	27367
811.299	27454
811.441	27485
811.582	27408
811.724	27485
811.865	27332
812.007	27344
812.148	27397
812.29	27447
812.431	27644
812.573	27663
812.714	27850
812.855	27979
812.997	28112
813.138	28105
813.279	28032
813.421	27941
813.562	27865
813.703	27831
813.845	27504
813.986	27313
814.127	27199
814.268	27055
814.41	27036
814.551	26933
814.692	27138
814.833	27024
814.974	27127
815.115	27104
815.256	26963
815.397	26910
815.539	26994
815.68	26807
815.821	26842
815.962	26838
816.103	26857
816.244	26800
816.385	26667
816.526	26629
816.666	26492
816.807	26434
816.948	26393
817.089	26469
817.23	26385
817.371	26419
817.512	26560
817.653	26389
817.793	26290
817.934	26332
818.075	26324
818.216	26431
818.356	26332
818.497	26278
818.638	26027
818.778	26164
818.919	26134
819.06	26130
819.2	26210
819.341	26320
819.481	26252
819.622	26396
819.762	26617
819.903	26693
820.043	26457
820.184	26575
820.324	26503
820.465	26549
820.605	26549
820.746	26336
820.886	26313
821.026	26389
821.167	26499
821.307	26480
821.447	26518
821.588	26275
821.728	26271
821.868	25894
822.008	25879
822.149	25841
822.289	25780
822.429	25571
822.569	25563
822.709	25537
822.849	25343
822.99	25343
823.13	25358
823.27	25282
823.41	25088
823.55	25137
823.69	25187
823.83	25240
823.97	25206
824.11	24962
824.25	24981
824.389	24977
824.529	25069
824.669	24996
824.809	25187
824.949	25084
825.089	25072
825.228	24909
825.368	24863
825.508	24867
825.648	24924
825.787	24871
825.927	24913
826.067	24817
826.206	24772
826.346	24814
826.485	24768
826.625	24825
826.765	24882
826.904	24859
827.044	24650
827.183	24601
827.323	24483
827.462	24566
827.601	24540
827.741	24612
827.88	24544
828.02	24429
828.159	24566
828.298	24574
828.437	24669
828.577	24422
828.716	24559
828.855	24490
828.994	24228
829.134	24220
829.273	24281
829.412	24376
829.551	24079
829.69	24213
829.829	24277
829.968	24258
830.107	24285
830.246	24247
830.385	24182
830.524	24186
830.663	24129
830.802	23996
830.941	23847
831.08	23813
831.219	23885
831.357	23882
831.496	24144
831.635	23927
831.774	23764
831.913	23851
832.051	23665
832.19	23558
832.329	23592
832.467	23710
832.606	23577
832.744	23665
832.883	23566
833.022	23501
833.16	23539
833.299	23684
833.437	23596
833.576	23653
833.714	23665
833.852	23630
833.991	23615
834.129	23684
834.267	23627
834.406	23672
834.544	23505
834.682	23661
834.821	23566
834.959	23878
835.097	23482
835.235	23505
835.373	23566
835.511	23535
835.65	23452
835.788	23410
835.926	23318
836.064	23227
836.202	23280
836.34	23414
836.478	23406
836.615	23391
836.753	23471
836.891	23539
837.029	23497
837.167	23429
837.305	23311
837.443	23341
837.58	23280
837.718	23360
837.856	23337
837.993	23166
838.131	23360
838.269	23208
838.406	23056
838.544	23143
838.681	23033
838.819	23010
838.956	22793
839.094	22824
839.231	22854
839.369	22949
839.506	23220
839.643	22858
839.781	22767
839.918	22721
840.055	22824
840.193	22748
840.33	22561
840.467	22664
840.604	22675
840.742	22843
840.879	22535
841.016	22687
841.153	22481
841.29	22759
841.427	22675
841.564	22641
841.701	22607
841.838	22736
841.975	22618
842.112	22516
842.249	22512
842.385	22390
842.522	22531
842.659	22508
842.796	22561
842.933	22611
843.069	22432
843.206	22375
843.343	22485
843.479	22459
843.616	22367
843.752	22322
843.889	22306
844.025	22375
844.162	22223
844.298	22291
844.435	22268
844.571	22204
844.708	22318
844.844	22325
844.98	22173
845.117	22523
845.253	22048
845.389	22051
845.525	22154
845.661	22131
845.798	21979
845.934	21998
846.07	21915
846.206	21926
846.342	22200
846.478	21979
846.614	21838
846.75	21694
846.886	21660
847.022	21739
847.158	21705
847.294	21694
847.429	21751
847.565	21591
847.701	21884
847.837	21412
847.972	21306
848.108	21526
848.244	21515
848.379	21378
848.515	21329
848.65	21275
848.786	21408
848.921	21336
849.057	21405
849.192	21272
849.328	21298
849.463	21332
849.598	21249
849.734	21260
849.869	21116
850.004	21047
850.14	21127
850.275	21074
850.41	21051
850.545	21119
850.68	21009
850.815	21051
850.95	21085
851.085	21245
851.22	21184
851.355	21096
851.49	21005
851.625	21024
851.76	20975
851.895	21009
852.03	21055
852.165	21062
852.299	21173
852.434	21093
852.569	21009
852.703	21108
852.838	21154
852.973	21093
853.107	21154
853.242	21043
853.376	20899
853.511	20861
853.645	20838
853.78	20986
853.914	20914
854.048	20788
854.183	20830
854.317	20902
854.451	20925
854.585	20906
854.72	20883
854.854	21032
854.988	20823
855.122	20864
855.256	20674
855.39	20861
855.524	21032
855.658	20914
855.792	20914
855.926	20868
856.06	20937
856.194	20982
856.327	20853
856.461	20895
856.595	20857
856.729	20982
856.862	21039
856.996	20941
857.13	20960
857.263	21131
857.397	20979
857.53	20857
857.664	20967
857.797	20880
857.931	20937
858.064	20842
858.197	20960
858.331	20868
858.464	20807
858.597	20708
858.731	20891
858.864	20845
858.997	20773
859.13	20986
859.263	20925
859.396	21013
859.529	20792
859.662	20849
859.795	20883
859.928	20861
860.061	21070
860.194	21268
860.327	20967
860.46	20941
860.592	21051
860.725	20960
860.858	20948
860.99	20902
861.123	20823
861.256	20861
861.388	20735
861.521	21705
861.653	20838
861.786	20651
861.918	20720
862.05	20739
862.183	20750
862.315	20906
862.447	20857
862.58	20853
862.712	20571
862.844	20545
862.976	20655
863.108	20640
863.24	21036
863.372	20461
863.504	20541
863.636	20575
863.768	20682
863.9	20621
864.032	20412
864.164	20522
864.296	20594
864.428	20712
864.559	20587
864.691	20800
864.823	20530
864.954	20530
865.086	20545
865.217	20674
865.349	20320
865.48	20549
865.612	20518
865.743	20655
865.875	20606
866.006	20438
866.137	20564
866.269	20518
866.4	20465
866.531	20377
866.662	20358
866.793	20518
866.924	20370
867.055	20461
867.186	20454
867.317	20427
867.448	20381
867.579	20396
867.71	20370
867.841	20233
867.972	20423
868.103	20347
868.233	20454
868.364	20609
868.495	20621
868.625	20758
868.756	20712
868.886	20640
869.017	20617
869.147	20826
869.278	20849
869.408	20743
869.539	20754
869.669	20731
869.799	20640
869.929	20800
870.06	20769
870.19	20933
870.32	20933
870.45	21180
870.58	21085
870.71	21294
870.84	21104
870.97	20986
871.1	21135
871.23	21279
871.36	21275
871.489	21127
871.619	21173
871.749	21264
871.879	21241
872.008	21458
872.138	21207
872.267	21230
872.397	21218
872.526	21070
872.656	21085
872.785	21077
872.915	21260
873.044	21344
873.173	21393
873.303	21325
873.432	21439
873.561	21302
873.69	21351
873.819	21287
873.948	21359
874.077	21218
874.206	21211
874.335	21329
874.464	21382
874.593	21496
874.722	21488
874.851	21618
874.979	21580
875.108	21519
875.237	21443
875.365	21420
875.494	21500
875.623	21610
875.751	21466
875.88	21458
876.008	21587
876.136	21728
876.265	21903
876.393	22067
876.521	21899
876.65	22032
876.778	21911
876.906	21865
877.034	21892
877.162	21888
877.29	21781
877.418	21918
877.546	21835
877.674	21975
877.802	21918
877.93	21892
878.058	21800
878.185	21816
878.313	21892
878.441	21766
878.568	21785
878.696	21827
878.824	21888
878.951	21915
879.079	22025
879.206	22112
879.333	22162
879.461	21880
879.588	21975
879.715	22006
879.842	22131
879.97	21934
880.097	21720
880.224	21606
880.351	21690
880.478	21747
880.605	21751
880.732	21679
880.859	21991
880.986	21732
881.112	21671
881.239	21515
881.366	21416
881.493	21336
881.619	21249
881.746	21298
881.872	21370
881.999	21264
882.125	21093
882.252	21310
882.378	21237
882.505	21268
882.631	21173
882.757	21074
882.883	21024
883.01	21009
883.136	20910
883.262	20826
883.388	20682
883.514	20914
883.64	21020
883.766	20910
883.892	20724
884.018	20876
884.143	20895
884.269	21024
884.395	20735
884.52	20514
884.646	20594
884.772	20480
884.897	20492
885.023	20644
885.148	20777
885.274	20697
885.399	20750
885.524	20667
885.65	20651
885.775	20636
885.9	20663
886.025	20625
886.15	20648
886.275	20473
886.4	20503
886.525	20533
886.65	20590
886.775	20484
886.9	20659
887.025	20868
887.149	20678
887.274	20442
887.399	20320
887.523	20313
887.648	20278
887.773	20298
887.897	20404
888.021	20377
888.146	20298
888.27	20465
888.395	20545
888.519	20465
888.643	20385
888.767	20438
888.891	20271
889.015	20168
889.139	20233
889.263	20191
889.387	20415
889.511	20355
889.635	20370
889.759	20153
889.883	20195
890.006	20180
890.13	20381
890.254	20126
890.377	20077
890.501	19894
890.624	19932
890.748	20016
890.871	19791
890.995	19868
891.118	19738
891.241	19803
891.364	19818
891.488	19993
891.611	19788
891.734	19795
891.857	19807
891.98	19757
892.103	19879
892.226	19674
892.349	19712
892.471	19639
892.594	19696
892.717	19788
892.839	19510
892.962	19643
893.085	19738
893.207	19693
893.33	19556
893.452	19674
893.575	19639
893.697	19491
893.819	19814
893.941	19883
894.064	19814
894.186	19632
894.308	19594
894.43	19757
894.552	19845
894.674	19712
894.796	19578
894.918	19681
895.04	19719
895.161	19742
895.283	19849
895.405	19624
895.526	19708
895.648	19647
895.769	19635
895.891	19670
896.012	19772
896.134	19719
896.255	19712
896.376	19632
896.498	19575
896.619	19700
896.74	19639
896.861	19731
896.982	20065
897.103	20100
897.224	20008
897.345	19936
897.466	19830
897.587	19856
897.708	20012
897.828	19925
897.949	19830
898.07	19658
898.19	19879
898.311	20016
898.431	19807
898.552	19955
898.672	19898
898.792	19894
898.913	19849
899.033	19731
899.153	19761
899.273	19514
899.393	19670
899.513	19609
899.633	19689
899.753	19708
899.873	19708
899.993	19647
900.113	19559
900.232	19571
900.352	19506
900.472	19624
900.591	19457
900.711	19434
900.83	19529
900.95	19556
901.069	19571
901.189	19384
901.308	19194
901.427	19084
901.546	18958
901.665	19148
901.784	19129
901.904	18882
902.023	18741
902.141	18730
902.26	18593
902.379	18677
902.498	18509
902.617	18551
902.735	18623
902.854	18608
902.973	18547
903.091	18262
903.21	18273
903.328	18266
903.446	18114
903.565	18038
903.683	17973
903.801	17958
903.919	18003
904.038	18057
904.156	17821
904.274	17958
904.392	17775
904.51	17775
904.627	17726
904.745	17828
904.863	17931
904.981	17661
905.098	17444
905.216	17501
905.334	17455
905.451	17573
905.569	17463
905.686	17436
905.803	17562
905.921	17299
906.038	17387
906.155	17288
906.272	17258
906.389	17159
906.506	17094
906.623	17052
906.74	17025
906.857	16904
906.974	16946
907.091	17143
907.208	17075
907.324	17041
907.441	16991
907.557	16771
907.674	16740
907.79	16622
907.907	16702
908.023	16763
908.139	16702
908.256	16615
908.372	16577
908.488	16694
908.604	16592
908.72	16588
908.836	16451
908.952	16443
909.068	16462
909.184	16580
909.3	16443
909.415	16516
909.531	16363
909.647	16143
909.762	16223
909.878	16211
909.993	16234
910.108	16204
910.224	16177
910.339	16116
910.454	16078
910.57	16135
910.685	15911
910.8	16128
910.915	16147
911.03	16036
911.145	15736
911.259	15911
911.374	15838
911.489	15705
911.604	15614
911.718	15488
911.833	15599
911.947	15408
912.062	15329
912.176	15454
912.291	15542
912.405	15485
912.519	15644
912.633	15778
912.748	15507
912.862	15458
912.976	15412
913.09	15222
913.204	15336
913.318	15367
913.431	15424
913.545	15405
913.659	15504
913.772	15363
913.886	15207
914	15127
914.113	15237
914.226	15306
914.34	15188
914.453	15005
914.566	15131
914.68	15066
914.793	14994
914.906	14804
915.019	14743
915.132	14682
915.245	14815
915.358	14781
915.47	14845
915.583	14746
915.696	14758
915.809	14883
915.921	14880
916.034	14743
916.146	14682
916.259	14640
916.371	14746
916.483	14689
916.595	14571
916.708	14583
916.82	14625
916.932	14602
917.044	14549
917.156	14549
917.268	14446
917.38	14473
917.491	14442
917.603	14431
917.715	14598
917.826	14606
917.938	14385
918.049	14282
918.161	14343
918.272	14526
918.384	14545
918.495	14396
918.606	14347
918.717	14100
918.828	14320
918.939	14164
919.05	14164
919.161	14267
919.272	13982
919.383	14100
919.494	14294
919.604	14366
919.715	14252
919.826	14077
919.936	14145
920.047	14195
920.157	14164
920.267	14389
920.378	14206
920.488	14130
920.598	14305
920.708	14545
920.818	14298
920.928	14263
921.038	14488
921.148	14499
921.258	14092
921.368	14073
921.477	13967
921.587	13799
921.697	13837
921.806	13917
921.916	13814
922.025	13643
922.134	13628
922.244	13556
922.353	13457
922.462	13502
922.571	13472
922.68	13228
922.789	13206
922.898	13266
923.007	13232
923.116	13301
923.224	13232
923.333	13175
923.442	13046
923.55	13084
923.659	13038
923.767	13031
923.876	12928
923.984	13065
924.092	12977
924.201	12989
924.309	13072
924.417	13031
924.525	12787
924.633	12977
924.741	13708
924.849	12654
924.956	12829
925.064	12650
925.172	12585
925.279	12635
925.387	12692
925.494	12578
925.602	12757
925.709	12726
925.816	12502
925.924	12623
926.031	12749
926.138	12601
926.245	12578
926.352	12528
926.459	12642
926.566	12627
926.673	12494
926.779	12407
926.886	12372
926.993	12300
927.099	12281
927.206	12133
927.312	12144
927.419	12304
927.525	12308
927.631	12346
927.737	12106
927.843	12136
927.95	12003
928.056	11942
928.162	12098
928.267	12072
928.373	12681
928.479	12121
928.585	11893
928.69	12019
928.796	11969
928.901	11912
929.007	11760
929.112	11969
929.218	11847
929.323	11809
929.428	11798
929.533	11927
929.638	11646
929.743	11707
929.848	11813
929.953	11786
930.058	11661
930.163	11440
930.267	11463
930.372	11623
930.477	11497
930.581	11688
930.685	11474
930.79	11330
930.894	11410
930.998	11356
931.103	11478
931.207	11136
931.311	11033
931.415	11083
931.519	10774
931.623	10793
