Data from test_V78500241_3445.txt Node
Date: Fri Mar 25 15:33:50 CST 2022
User: usil
Spectrometer: V785-0024
Trigger mode: 0
Integration Time (sec): 4.000000E-1
Scans to average: 1
Nonlinearity correction enabled: false
Boxcar width: 0
Storing dark spectrum: false
XAxis mode: Wavelengths
Number of Pixels in Spectrum: 1024
>>>>>Begin Spectral Data<<<<<
801.071	27412
801.214	27340
801.356	27032
801.499	27074
801.641	26845
801.783	26895
801.926	26876
802.068	26651
802.211	26682
802.353	26743
802.496	26693
802.638	26686
802.78	26602
802.923	26358
803.065	26457
803.208	26488
803.35	26537
803.492	26689
803.635	26579
803.777	26514
803.919	26701
804.061	27081
804.204	26682
804.346	26606
804.488	26530
804.63	26667
804.773	26518
804.915	26632
805.057	26762
805.199	26602
805.341	26636
805.483	26830
805.626	26727
805.768	26724
805.91	26743
806.052	26636
806.194	26689
806.336	26788
806.478	26720
806.62	26807
806.762	26914
806.904	27043
807.046	27154
807.188	27237
807.33	27043
807.472	27264
807.614	27116
807.756	27104
807.898	26967
808.04	26944
808.182	26933
808.324	26960
808.465	27142
808.607	27203
808.749	27485
808.891	27306
809.033	27564
809.174	27389
809.316	27351
809.458	27287
809.6	27416
809.741	27450
809.883	27393
810.025	27610
810.166	27682
810.308	27797
810.45	27610
810.591	27572
810.733	27294
810.875	27291
811.016	27287
811.158	27230
811.299	27313
811.441	27466
811.582	27450
811.724	27511
811.865	27272
812.007	27378
812.148	27386
812.29	27367
812.431	27450
812.573	27618
812.714	27709
812.855	27797
812.997	27766
813.138	28143
813.279	28006
813.421	27880
813.562	27766
813.703	27785
813.845	27431
813.986	27252
814.127	27195
814.268	26948
814.41	27104
814.551	27028
814.692	27013
814.833	26807
814.974	26982
815.115	26952
815.256	26902
815.397	26727
815.539	26929
815.68	26659
815.821	26621
815.962	26845
816.103	26720
816.244	26720
816.385	26629
816.526	26507
816.666	26374
816.807	26332
816.948	26393
817.089	26431
817.23	26343
817.371	26252
817.512	26122
817.653	26191
817.793	26187
817.934	26191
818.075	26336
818.216	26267
818.356	26134
818.497	26058
818.638	25860
818.778	25940
818.919	26012
819.06	26039
819.2	26168
819.341	26191
819.481	26191
819.622	26400
819.762	26682
819.903	26461
820.043	26488
820.184	26453
820.324	26278
820.465	26438
820.605	26309
820.746	26351
820.886	26161
821.026	26381
821.167	26278
821.307	26214
821.447	26229
821.588	26202
821.728	26039
821.868	25898
822.008	25704
822.149	25765
822.289	25693
822.429	25487
822.569	25449
822.709	25434
822.849	25301
822.99	25133
823.13	25312
823.27	25137
823.41	24905
823.55	24973
823.69	24992
823.83	25031
823.97	25042
824.11	24913
824.25	24852
824.389	24833
824.529	24787
824.669	24779
824.809	24882
824.949	24890
825.089	25053
825.228	24871
825.368	24696
825.508	24738
825.648	24817
825.787	24779
825.927	24871
826.067	24688
826.206	24696
826.346	24848
826.485	24886
826.625	24772
826.765	24745
826.904	24760
827.044	24517
827.183	24525
827.323	24448
827.462	24483
827.601	24395
827.741	24437
827.88	24471
828.02	24429
828.159	24422
828.298	24414
828.437	24540
828.577	24490
828.716	24448
828.855	24323
828.994	24194
829.134	24148
829.273	24163
829.412	24053
829.551	24068
829.69	24053
829.829	24053
829.968	24190
830.107	24152
830.246	24083
830.385	24163
830.524	24034
830.663	24041
830.802	23901
830.941	23756
831.08	23764
831.219	23813
831.357	23847
831.496	23977
831.635	23783
831.774	23649
831.913	23604
832.051	23551
832.19	23490
832.329	23573
832.467	23528
832.606	23463
832.744	23505
832.883	23486
833.022	23398
833.16	23425
833.299	23467
833.437	23490
833.576	23539
833.714	23444
833.852	23573
833.991	23535
834.129	23596
834.267	23478
834.406	23520
834.544	23642
834.682	23531
834.821	23509
834.959	23718
835.097	23512
835.235	23600
835.373	23387
835.511	23414
835.65	23406
835.788	23372
835.926	23136
836.064	23200
836.202	23246
836.34	23364
836.478	23383
836.615	23239
836.753	23353
836.891	23391
837.029	23341
837.167	23349
837.305	23296
837.443	23292
837.58	23128
837.718	23216
837.856	23364
837.993	23121
838.131	23261
838.269	23124
838.406	23193
838.544	23094
838.681	22869
838.819	22744
838.956	22740
839.094	22767
839.231	22653
839.369	22873
839.506	23037
839.643	22976
839.781	22915
839.918	22649
840.055	22683
840.193	22637
840.33	22561
840.467	22656
840.604	22687
840.742	22866
840.879	22474
841.016	22615
841.153	22489
841.29	22820
841.427	22630
841.564	22656
841.701	22634
841.838	22641
841.975	22561
842.112	22519
842.249	22569
842.385	22413
842.522	22603
842.659	22436
842.796	22318
842.933	22322
843.069	22261
843.206	22333
843.343	22360
843.479	22318
843.616	22367
843.752	22188
843.889	22272
844.025	22265
844.162	22116
844.298	22257
844.435	22181
844.571	22097
844.708	22207
844.844	22356
844.98	22295
845.117	22223
845.253	22090
845.389	22074
845.525	22246
845.661	21953
845.798	21956
845.934	21979
846.07	21838
846.206	21949
846.342	22013
846.478	22006
846.614	21778
846.75	21644
846.886	21583
847.022	21717
847.158	21629
847.294	21747
847.429	21614
847.565	21507
847.701	21926
847.837	21272
847.972	21405
848.108	21504
848.244	21393
848.379	21256
848.515	21283
848.65	21233
848.786	21214
848.921	21249
849.057	21302
849.192	21367
849.328	21245
849.463	21218
849.598	21135
849.734	20994
849.869	21176
850.004	21017
850.14	21013
850.275	20948
850.41	20887
850.545	20986
850.68	20990
850.815	21074
850.95	20998
851.085	21051
851.22	21131
851.355	21058
851.49	20994
851.625	21051
851.76	20826
851.895	20933
852.03	20982
852.165	20967
852.299	20921
852.434	21051
852.569	21043
852.703	20906
852.838	21020
852.973	21150
853.107	21119
853.242	20891
853.376	20883
853.511	20773
853.645	20861
853.78	20838
853.914	20834
854.048	20861
854.183	20796
854.317	20864
854.451	21157
854.585	20876
854.72	20868
854.854	20830
854.988	20853
855.122	20781
855.256	20807
855.39	20701
855.524	20941
855.658	20918
855.792	20838
855.926	20735
856.06	20910
856.194	20941
856.327	20735
856.461	20845
856.595	20765
856.729	20697
856.862	20944
856.996	20857
857.13	20834
857.263	20986
857.397	20998
857.53	20762
857.664	20785
857.797	20849
857.931	20906
858.064	20868
858.197	20895
858.331	20792
858.464	20739
858.597	20674
858.731	20906
858.864	20781
858.997	20750
859.13	20746
859.263	20872
859.396	20937
859.529	20853
859.662	20701
859.795	20781
859.928	20864
860.061	20990
860.194	21066
860.327	20941
860.46	20861
860.592	20883
860.725	20952
860.858	20906
860.99	20834
861.123	20765
861.256	20792
861.388	20941
861.521	21504
861.653	20659
861.786	20632
861.918	20629
862.05	20701
862.183	20762
862.315	20804
862.447	20785
862.58	20765
862.712	20579
862.844	20613
862.976	20663
863.108	20552
863.24	20960
863.372	20434
863.504	20492
863.636	20465
863.768	20507
863.9	20526
864.032	20488
864.164	20434
864.296	20476
864.428	20712
864.559	20621
864.691	20796
864.823	20701
864.954	20568
865.086	20473
865.217	20545
865.349	20434
865.48	20499
865.612	20488
865.743	20606
865.875	20488
866.006	20579
866.137	20431
866.269	20507
866.4	20442
866.531	20324
866.662	20423
866.793	20423
866.924	20480
867.055	20492
867.186	20469
867.317	20370
867.448	20336
867.579	20362
867.71	20278
867.841	20256
867.972	20377
868.103	20374
868.233	20457
868.364	20317
868.495	20400
868.625	20568
868.756	20708
868.886	20537
869.017	20564
869.147	20708
869.278	20796
869.408	20655
869.539	20678
869.669	20762
869.799	20765
869.929	20712
870.06	20743
870.19	20861
870.32	21024
870.45	20956
870.58	21093
870.71	21138
870.84	21165
870.97	21047
871.1	21100
871.23	21226
871.36	21241
871.489	21146
871.619	21207
871.749	21150
871.879	21264
872.008	21264
872.138	21176
872.267	21233
872.397	21161
872.526	21055
872.656	21066
872.785	20937
872.915	21298
873.044	21233
873.173	21180
873.303	21241
873.432	21344
873.561	21283
873.69	21211
873.819	21245
873.948	21306
874.077	21321
874.206	21203
874.335	21127
874.464	21382
874.593	21401
874.722	21454
874.851	21454
874.979	21466
875.108	21504
875.237	21485
875.365	21386
875.494	21545
875.623	21591
875.751	21431
875.88	21511
876.008	21686
876.136	21724
876.265	21941
876.393	21937
876.521	21953
876.65	21972
876.778	21895
876.906	21797
877.034	21876
877.162	21797
877.29	21838
877.418	21869
877.546	21903
877.674	21892
877.802	21823
877.93	21804
878.058	21895
878.185	21732
878.313	21785
878.441	21888
878.568	21618
878.696	21850
878.824	21861
878.951	21949
879.079	21956
879.206	22162
879.333	21987
879.461	22002
879.588	21960
879.715	22059
879.842	22051
879.97	21960
880.097	21660
880.224	21713
880.351	21747
880.478	21694
880.605	21667
880.732	21694
880.859	21865
880.986	21857
881.112	21717
881.239	21553
881.366	21359
881.493	21370
881.619	21195
881.746	21291
881.872	21245
881.999	21214
882.125	21081
882.252	21329
882.378	21192
882.505	21389
882.631	21085
882.757	21055
882.883	21104
883.01	20963
883.136	20872
883.262	20944
883.388	20716
883.514	20994
883.64	21089
883.766	20815
883.892	20674
884.018	20735
884.143	20960
884.269	20948
884.395	20735
884.52	20590
884.646	20606
884.772	20594
884.897	20457
885.023	20689
885.148	20727
885.274	20826
885.399	20678
885.524	20621
885.65	20651
885.775	20659
885.9	20575
886.025	20670
886.15	20556
886.275	20587
886.4	20549
886.525	20682
886.65	20469
886.775	20492
886.9	20750
887.025	20750
887.149	20678
887.274	20488
887.399	20393
887.523	20377
887.648	20294
887.773	20267
887.897	20511
888.021	20442
888.146	20347
888.27	20412
888.395	20385
888.519	20533
888.643	20473
888.767	20396
888.891	20339
889.015	20172
889.139	20275
889.263	20168
889.387	20415
889.511	20423
889.635	20324
889.759	20096
889.883	20096
890.006	20320
890.13	20339
890.254	20176
890.377	20157
890.501	19932
890.624	19902
890.748	20065
890.871	19818
890.995	19837
891.118	19803
891.241	19830
891.364	19753
891.488	19887
891.611	19624
891.734	19734
891.857	19807
891.98	19753
892.103	19772
892.226	19712
892.349	19700
892.471	19559
892.594	19750
892.717	19651
892.839	19662
892.962	19750
893.085	19746
893.207	19651
893.33	19441
893.452	19624
893.575	19860
893.697	19700
893.819	19845
893.941	19959
894.064	19814
894.186	19605
894.308	19616
894.43	19795
894.552	19788
894.674	19738
894.796	19601
894.918	19666
895.04	19643
895.161	19757
895.283	19750
895.405	19639
895.526	19643
895.648	19586
895.769	19605
895.891	19624
896.012	19811
896.134	19712
896.255	19719
896.376	19563
896.498	19750
896.619	19662
896.74	19658
896.861	19738
896.982	20020
897.103	20221
897.224	19959
897.345	19974
897.466	19856
897.587	19830
897.708	20046
897.828	19921
897.949	19890
898.07	19753
898.19	19814
898.311	19993
898.431	19871
898.552	19925
898.672	19997
898.792	19955
898.913	19879
899.033	19849
899.153	19616
899.273	19708
899.393	19738
899.513	19674
899.633	19731
899.753	19655
899.873	19613
899.993	19708
900.113	19670
900.232	19616
900.352	19582
900.472	19502
900.591	19468
900.711	19567
900.83	19472
900.95	19499
901.069	19483
901.189	19354
901.308	19099
901.427	19065
901.546	19012
901.665	19069
901.784	19027
901.904	18802
902.023	18783
902.141	18570
902.26	18608
902.379	18627
902.498	18627
902.617	18460
902.735	18593
902.854	18578
902.973	18391
903.091	18247
903.21	18262
903.328	18136
903.446	18171
903.565	18072
903.683	18064
903.801	17984
903.919	18030
904.038	17973
904.156	17923
904.274	18011
904.392	17809
904.51	17802
904.627	17783
904.745	17832
904.863	17786
904.981	17665
905.098	17558
905.216	17402
905.334	17524
905.451	17551
905.569	17376
905.686	17520
905.803	17493
905.921	17204
906.038	17353
906.155	17318
906.272	17064
906.389	17189
906.506	17033
906.623	17048
906.74	17048
906.857	16866
906.974	16885
907.091	17071
907.208	17121
907.324	17098
907.441	16930
907.557	16748
907.674	16759
907.79	16615
907.907	16740
908.023	16752
908.139	16744
908.256	16599
908.372	16634
908.488	16679
908.604	16546
908.72	16519
908.836	16405
908.952	16405
909.068	16546
909.184	16478
909.3	16535
909.415	16436
909.531	16466
909.647	16249
909.762	16200
909.878	16128
909.993	16116
910.108	16147
910.224	16147
910.339	16196
910.454	15998
910.57	15987
910.685	15945
910.8	16234
910.915	16120
911.03	15922
911.145	15888
911.259	15736
911.374	15724
911.489	15648
911.604	15595
911.718	15549
911.833	15629
911.947	15454
912.062	15454
912.176	15485
912.291	15523
912.405	15496
912.519	15580
912.633	15625
912.748	15561
912.862	15443
912.976	15370
913.09	15195
913.204	15252
913.318	15378
913.431	15378
913.545	15401
913.659	15481
913.772	15325
913.886	15180
914	15241
914.113	15279
914.226	15291
914.34	15192
914.453	15085
914.566	15260
914.68	15123
914.793	14971
914.906	14872
915.019	14727
915.132	14735
915.245	14750
915.358	14735
915.47	14758
915.583	14712
915.696	14659
915.809	14952
915.921	14876
916.034	14716
916.146	14636
916.259	14621
916.371	14769
916.483	14743
916.595	14602
916.708	14549
916.82	14522
916.932	14594
917.044	14575
917.156	14526
917.268	14480
917.38	14473
917.491	14408
917.603	14473
917.715	14522
917.826	14461
917.938	14377
918.049	14324
918.161	14377
918.272	14533
918.384	14469
918.495	14332
918.606	14290
918.717	14134
918.828	14252
918.939	14221
919.05	14088
919.161	14202
919.272	14077
919.383	14020
919.494	14138
919.604	14366
919.715	14206
919.826	14043
919.936	14123
920.047	14183
920.157	14275
920.267	14366
920.378	14244
920.488	14183
920.598	14271
920.708	14461
920.818	14271
920.928	14381
921.038	14476
921.148	14385
921.258	14206
921.368	14020
921.477	13951
921.587	13849
921.697	13753
921.806	13928
921.916	13712
922.025	13636
922.134	13502
922.244	13476
922.353	13643
922.462	13480
922.571	13419
922.68	13202
922.789	13213
922.898	13202
923.007	13164
923.116	13255
923.224	13247
923.333	13107
923.442	13031
923.55	13057
923.659	13053
923.767	13053
923.876	12996
923.984	13057
924.092	12890
924.201	13031
924.309	13042
924.417	12943
924.525	12867
924.633	12935
924.741	13841
924.849	12730
924.956	12791
925.064	12578
925.172	12578
925.279	12597
925.387	12688
925.494	12639
925.602	12837
925.709	12658
925.816	12460
925.924	12517
926.031	12700
926.138	12616
926.245	12612
926.352	12437
926.459	12639
926.566	12635
926.673	12532
926.779	12399
926.886	12437
926.993	12266
927.099	12285
927.206	12201
927.312	12251
927.419	12308
927.525	12281
927.631	12266
927.737	12216
927.843	12068
927.95	11969
928.056	12038
928.162	12045
928.267	12079
928.373	12684
928.479	12186
928.585	11874
928.69	12003
928.796	12060
928.901	11946
929.007	11920
929.112	11927
929.218	11828
929.323	11863
929.428	11843
929.533	11999
929.638	11741
929.743	11729
929.848	11733
929.953	11824
930.058	11691
930.163	11452
930.267	11512
930.372	11623
930.477	11535
930.581	11729
930.685	11558
930.79	11356
930.894	11497
930.998	11379
931.103	11387
931.207	11231
931.311	11124
931.415	10938
931.519	10790
931.623	10755
