Data from test_V78500241_2318.txt Node
Date: Fri Mar 25 15:25:59 CST 2022
User: usil
Spectrometer: V785-0024
Trigger mode: 0
Integration Time (sec): 4.000000E-1
Scans to average: 1
Nonlinearity correction enabled: false
Boxcar width: 0
Storing dark spectrum: false
XAxis mode: Wavelengths
Number of Pixels in Spectrum: 1024
>>>>>Begin Spectral Data<<<<<
801.071	27351
801.214	27310
801.356	27188
801.499	27154
801.641	26891
801.783	26975
801.926	26952
802.068	26998
802.211	26830
802.353	26819
802.496	26518
802.638	26495
802.78	26568
802.923	26461
803.065	26263
803.208	26507
803.35	26560
803.492	26708
803.635	26746
803.777	26598
803.919	26697
804.061	26990
804.204	26861
804.346	26659
804.488	26571
804.63	26743
804.773	26587
804.915	26625
805.057	26765
805.199	26655
805.341	26842
805.483	26769
805.626	26899
805.768	26682
805.91	26708
806.052	26880
806.194	26777
806.336	27028
806.478	26868
806.62	26853
806.762	26937
806.904	26887
807.046	27230
807.188	27294
807.33	27165
807.472	27298
807.614	27157
807.756	27180
807.898	27089
808.04	27043
808.182	27024
808.324	27066
808.465	26990
808.607	27287
808.749	27439
808.891	27542
809.033	27572
809.174	27447
809.316	27237
809.458	27382
809.6	27264
809.741	27393
809.883	27504
810.025	27667
810.166	27667
810.308	27652
810.45	27648
810.591	27660
810.733	27545
810.875	27393
811.016	27211
811.158	27351
811.299	27519
811.441	27545
811.582	27397
811.724	27412
811.865	27329
812.007	27302
812.148	27367
812.29	27431
812.431	27644
812.573	27720
812.714	27717
812.855	27884
812.997	27956
813.138	28120
813.279	28086
813.421	27823
813.562	27899
813.703	27698
813.845	27648
813.986	27389
814.127	27093
814.268	27085
814.41	27108
814.551	27142
814.692	27127
814.833	27055
814.974	27100
815.115	27005
815.256	26986
815.397	26944
815.539	26960
815.68	26750
815.821	26731
815.962	26891
816.103	26811
816.244	26632
816.385	26640
816.526	26655
816.666	26396
816.807	26351
816.948	26393
817.089	26347
817.23	26278
817.371	26389
817.512	26328
817.653	26450
817.793	26263
817.934	26400
818.075	26385
818.216	26191
818.356	26355
818.497	26145
818.638	26103
818.778	25993
818.919	26138
819.06	26084
819.2	26092
819.341	26339
819.481	26252
819.622	26556
819.762	26670
819.903	26560
820.043	26590
820.184	26465
820.324	26571
820.465	26484
820.605	26408
820.746	26358
820.886	26218
821.026	26476
821.167	26408
821.307	26438
821.447	26298
821.588	26240
821.728	26138
821.868	26001
822.008	25883
822.149	25769
822.289	25784
822.429	25472
822.569	25571
822.709	25468
822.849	25335
822.99	25247
823.13	25343
823.27	25110
823.41	25008
823.55	25164
823.69	25213
823.83	25103
823.97	25091
824.11	24966
824.25	24760
824.389	24928
824.529	25069
824.669	24935
824.809	24985
824.949	24913
825.089	25099
825.228	24981
825.368	24806
825.508	24760
825.648	24833
825.787	24764
825.927	24779
826.067	24734
826.206	24749
826.346	24802
826.485	24867
826.625	24738
826.765	25019
826.904	24798
827.044	24502
827.183	24730
827.323	24403
827.462	24654
827.601	24540
827.741	24475
827.88	24441
828.02	24422
828.159	24437
828.298	24521
828.437	24429
828.577	24445
828.716	24623
828.855	24471
828.994	24213
829.134	24216
829.273	24289
829.412	24247
829.551	24133
829.69	24159
829.829	24178
829.968	24235
830.107	24262
830.246	24270
830.385	24239
830.524	24057
830.663	24007
830.802	24015
830.941	23859
831.08	23847
831.219	23882
831.357	24022
831.496	24140
831.635	23752
831.774	23710
831.913	23767
832.051	23604
832.19	23600
832.329	23547
832.467	23467
832.606	23398
832.744	23528
832.883	23364
833.022	23364
833.16	23372
833.299	23524
833.437	23524
833.576	23547
833.714	23448
833.852	23722
833.991	23707
834.129	23653
834.267	23627
834.406	23547
834.544	23604
834.682	23516
834.821	23524
834.959	23714
835.097	23440
835.235	23630
835.373	23474
835.511	23463
835.65	23478
835.788	23497
835.926	23189
836.064	23235
836.202	23223
836.34	23353
836.478	23474
836.615	23315
836.753	23341
836.891	23543
837.029	23410
837.167	23200
837.305	23337
837.443	23246
837.58	23208
837.718	23311
837.856	23216
837.993	23326
838.131	23170
838.269	23204
838.406	23181
838.544	22995
838.681	22801
838.819	22908
838.956	22702
839.094	22691
839.231	22881
839.369	22839
839.506	23166
839.643	22942
839.781	22733
839.918	22801
840.055	22725
840.193	22740
840.33	22672
840.467	22668
840.604	22580
840.742	22873
840.879	22470
841.016	22580
841.153	22489
841.29	22710
841.427	22637
841.564	22611
841.701	22489
841.838	22569
841.975	22424
842.112	22554
842.249	22440
842.385	22405
842.522	22481
842.659	22478
842.796	22375
842.933	22344
843.069	22276
843.206	22443
843.343	22424
843.479	22455
843.616	22440
843.752	22207
843.889	22249
844.025	22291
844.162	22215
844.298	22169
844.435	22188
844.571	22128
844.708	22238
844.844	22291
844.98	22360
845.117	22219
845.253	22013
845.389	21998
845.525	22036
845.661	21956
845.798	21949
845.934	21918
846.07	21937
846.206	21922
846.342	21994
846.478	21854
846.614	21644
846.75	21580
846.886	21603
847.022	21660
847.158	21720
847.294	21652
847.429	21587
847.565	21629
847.701	21922
847.837	21363
847.972	21386
848.108	21447
848.244	21389
848.379	21249
848.515	21116
848.65	21222
848.786	21184
848.921	21287
849.057	21302
849.192	21249
849.328	21321
849.463	21154
849.598	21173
849.734	21058
849.869	20990
850.004	20975
850.14	21005
850.275	20990
850.41	20834
850.545	20842
850.68	21013
850.815	20956
850.95	20952
851.085	21154
851.22	21165
851.355	21020
851.49	20960
851.625	21062
851.76	20868
851.895	20921
852.03	20811
852.165	20998
852.299	20887
852.434	20952
852.569	21096
852.703	21013
852.838	21096
852.973	21104
853.107	20963
853.242	20864
853.376	20868
853.511	20705
853.645	20746
853.78	20876
853.914	20857
854.048	20762
854.183	20727
854.317	20773
854.451	20998
854.585	20830
854.72	20861
854.854	20883
854.988	20712
855.122	20823
855.256	20739
855.39	20800
855.524	20845
855.658	20861
855.792	20788
855.926	20887
856.06	20868
856.194	20952
856.327	20777
856.461	20743
856.595	20743
856.729	20750
856.862	20948
856.996	20929
857.13	20830
857.263	20815
857.397	20921
857.53	20899
857.664	20838
857.797	20868
857.931	20952
858.064	20899
858.197	20845
858.331	20781
858.464	20765
858.597	20701
858.731	20701
858.864	20746
858.997	20731
859.13	20781
859.263	20750
859.396	20811
859.529	20845
859.662	20788
859.795	20777
859.928	20853
860.061	20979
860.194	21055
860.327	20906
860.46	20739
860.592	20872
860.725	20902
860.858	20975
860.99	20765
861.123	20762
861.256	20804
861.388	20830
861.521	21553
861.653	20651
861.786	20537
861.918	20724
862.05	20746
862.183	20594
862.315	20826
862.447	20773
862.58	20689
862.712	20514
862.844	20507
862.976	20629
863.108	20632
863.24	21043
863.372	20579
863.504	20393
863.636	20442
863.768	20461
863.9	20518
864.032	20442
864.164	20434
864.296	20473
864.428	20587
864.559	20568
864.691	20427
864.823	20598
864.954	20514
865.086	20541
865.217	20454
865.349	20377
865.48	20442
865.612	20415
865.743	20602
865.875	20332
866.006	20446
866.137	20473
866.269	20480
866.4	20309
866.531	20465
866.662	20298
866.793	20454
866.924	20267
867.055	20336
867.186	20389
867.317	20320
867.448	20187
867.579	20351
867.71	20259
867.841	20336
867.972	20301
868.103	20317
868.233	20556
868.364	20370
868.495	20476
868.625	20446
868.756	20800
868.886	20461
869.017	20613
869.147	20686
869.278	20686
869.408	20613
869.539	20678
869.669	20689
869.799	20659
869.929	20636
870.06	20613
870.19	20880
870.32	20998
870.45	20712
870.58	21013
870.71	21116
870.84	20967
870.97	20994
871.1	20979
871.23	21222
871.36	21192
871.489	21005
871.619	21233
871.749	21089
871.879	21294
872.008	21268
872.138	21218
872.267	21207
872.397	21089
872.526	21043
872.656	20998
872.785	21112
872.915	21287
873.044	21321
873.173	21127
873.303	21287
873.432	21161
873.561	21332
873.69	21249
873.819	21211
873.948	21348
874.077	21226
874.206	21264
874.335	21218
874.464	21317
874.593	21412
874.722	21481
874.851	21458
874.979	21492
875.108	21568
875.237	21496
875.365	21389
875.494	21500
875.623	21530
875.751	21447
875.88	21519
876.008	21667
876.136	21576
876.265	21895
876.393	21941
876.521	22032
876.65	21953
876.778	21895
876.906	21873
877.034	21797
877.162	21899
877.29	21739
877.418	21903
877.546	21717
877.674	21873
877.802	21709
877.93	21861
878.058	21793
878.185	21671
878.313	21762
878.441	21774
878.568	21739
878.696	21671
878.824	21785
878.951	21838
879.079	22013
879.206	22211
879.333	21956
879.461	21785
879.588	21960
879.715	22025
879.842	22074
879.97	21846
880.097	21656
880.224	21618
880.351	21747
880.478	21633
880.605	21682
880.732	21652
880.859	21892
880.986	21599
881.112	21705
881.239	21469
881.366	21306
881.493	21325
881.619	21169
881.746	21214
881.872	21252
881.999	21249
882.125	21188
882.252	21207
882.378	21176
882.505	21272
882.631	21047
882.757	20990
882.883	21047
883.01	20864
883.136	20929
883.262	20781
883.388	20716
883.514	20918
883.64	20963
883.766	20815
883.892	20670
884.018	20667
884.143	20948
884.269	20887
884.395	20667
884.52	20632
884.646	20674
884.772	20518
884.897	20541
885.023	20651
885.148	20712
885.274	20746
885.399	20602
885.524	20682
885.65	20663
885.775	20556
885.9	20575
886.025	20735
886.15	20533
886.275	20545
886.4	20427
886.525	20568
886.65	20530
886.775	20450
886.9	20602
887.025	20921
887.149	20632
887.274	20427
887.399	20286
887.523	20431
887.648	20286
887.773	20229
887.897	20377
888.021	20267
888.146	20347
888.27	20461
888.395	20358
888.519	20389
888.643	20347
888.767	20431
888.891	20248
889.015	20275
889.139	20183
889.263	20138
889.387	20195
889.511	20199
889.635	20343
889.759	20145
889.883	20077
890.006	20103
890.13	20267
890.254	19993
890.377	20126
890.501	19974
890.624	19921
890.748	19967
890.871	19814
890.995	19776
891.118	19639
891.241	19784
891.364	19811
891.488	19856
891.611	19791
891.734	19689
891.857	19803
891.98	19677
892.103	19780
892.226	19765
892.349	19658
892.471	19480
892.594	19643
892.717	19674
892.839	19651
892.962	19677
893.085	19708
893.207	19613
893.33	19559
893.452	19590
893.575	19544
893.697	19590
893.819	19803
893.941	19852
894.064	19700
894.186	19594
894.308	19499
894.43	19700
894.552	19750
894.674	19715
894.796	19597
894.918	19529
895.04	19556
895.161	19643
895.283	19715
895.405	19575
895.526	19632
895.648	19556
895.769	19655
895.891	19632
896.012	19719
896.134	19704
896.255	19635
896.376	19624
896.498	19696
896.619	19674
896.74	19491
896.861	19746
896.982	19913
897.103	20145
897.224	19989
897.345	19883
897.466	19681
897.587	19932
897.708	19902
897.828	19826
897.949	19765
898.07	19708
898.19	19772
898.311	19974
898.431	19803
898.552	19734
898.672	19868
898.792	19970
898.913	19898
899.033	19814
899.153	19639
899.273	19472
899.393	19734
899.513	19780
899.633	19552
899.753	19693
899.873	19647
899.993	19738
900.113	19628
900.232	19738
900.352	19597
900.472	19525
900.591	19400
900.711	19438
900.83	19403
900.95	19605
901.069	19540
901.189	19274
901.308	19118
901.427	19042
901.546	19038
901.665	19061
901.784	19080
901.904	18913
902.023	18760
902.141	18623
902.26	18604
902.379	18631
902.498	18464
902.617	18452
902.735	18646
902.854	18433
902.973	18506
903.091	18319
903.21	18209
903.328	18186
903.446	17999
903.565	18003
903.683	18167
903.801	17923
903.919	18098
904.038	17973
904.156	17836
904.274	17783
904.392	17843
904.51	17767
904.627	17817
904.745	17817
904.863	17809
904.981	17551
905.098	17474
905.216	17410
905.334	17501
905.451	17554
905.569	17493
905.686	17554
905.803	17444
905.921	17349
906.038	17356
906.155	17242
906.272	17041
906.389	17132
906.506	17006
906.623	16938
906.74	16968
906.857	16957
906.974	16866
907.091	17102
907.208	17113
907.324	17041
907.441	16911
907.557	16763
907.674	16748
907.79	16668
907.907	16691
908.023	16729
908.139	16672
908.256	16653
908.372	16577
908.488	16607
908.604	16440
908.72	16333
908.836	16481
908.952	16421
909.068	16443
909.184	16653
909.3	16333
909.415	16390
909.531	16371
909.647	16192
909.762	16173
909.878	16097
909.993	16211
910.108	16131
910.224	16109
910.339	16048
910.454	16002
910.57	15983
910.685	15876
910.8	16177
910.915	16124
911.03	16013
911.145	15789
911.259	15701
911.374	15736
911.489	15762
911.604	15576
911.718	15401
911.833	15466
911.947	15408
912.062	15287
912.176	15519
912.291	15511
912.405	15485
912.519	15698
912.633	15690
912.748	15500
912.862	15466
912.976	15378
913.09	15275
913.204	15317
913.318	15302
913.431	15492
913.545	15344
913.659	15363
913.772	15306
913.886	15142
914	15108
914.113	15214
914.226	15264
914.34	15176
914.453	14986
914.566	15161
914.68	14986
914.793	14994
914.906	14773
915.019	14720
915.132	14640
915.245	14727
915.358	14864
915.47	14670
915.583	14731
915.696	14743
915.809	14887
915.921	14891
916.034	14750
916.146	14610
916.259	14571
916.371	14743
916.483	14682
916.595	14610
916.708	14503
916.82	14556
916.932	14533
917.044	14587
917.156	14473
917.268	14450
917.38	14412
917.491	14514
917.603	14370
917.715	14488
917.826	14484
917.938	14275
918.049	14294
918.161	14294
918.272	14530
918.384	14484
918.495	14385
918.606	14191
918.717	14180
918.828	14115
918.939	14157
919.05	14103
919.161	14096
919.272	13989
919.383	14039
919.494	14084
919.604	14286
919.715	14149
919.826	14130
919.936	14046
920.047	14252
920.157	14157
920.267	14206
920.378	14237
920.488	14016
920.598	14320
920.708	14461
920.818	14358
920.928	14218
921.038	14415
921.148	14415
921.258	14092
921.368	14005
921.477	13989
921.587	13913
921.697	13788
921.806	13852
921.916	13674
922.025	13552
922.134	13586
922.244	13476
922.353	13540
922.462	13373
922.571	13320
922.68	13206
922.789	13190
922.898	13126
923.007	13095
923.116	13179
923.224	13198
923.333	13141
923.442	13080
923.55	13069
923.659	13057
923.767	13069
923.876	12996
923.984	13061
924.092	12894
924.201	12962
924.309	12878
924.417	12859
924.525	12844
924.633	12749
924.741	13818
924.849	12665
924.956	12844
925.064	12707
925.172	12589
925.279	12570
925.387	12559
925.494	12677
925.602	12730
925.709	12684
925.816	12506
925.924	12563
926.031	12696
926.138	12608
926.245	12620
926.352	12445
926.459	12616
926.566	12604
926.673	12456
926.779	12483
926.886	12292
926.993	12235
927.099	12228
927.206	12148
927.312	12064
927.419	12273
927.525	12205
927.631	12209
927.737	12190
927.843	12079
927.95	11988
928.056	11958
928.162	11996
928.267	12095
928.373	12635
928.479	12102
928.585	11866
928.69	12117
928.796	11980
928.901	11866
929.007	11722
929.112	11893
929.218	11882
929.323	11741
929.428	11737
929.533	11904
929.638	11756
929.743	11665
929.848	11748
929.953	11729
930.058	11566
930.163	11387
930.267	11482
930.372	11703
930.477	11326
930.581	11634
930.685	11551
930.79	11360
930.894	11360
930.998	11261
931.103	11414
931.207	11102
931.311	11083
931.415	10885
931.519	10790
931.623	10706
