Data from test_V78500241_2631.txt Node
Date: Fri Mar 25 15:28:10 CST 2022
User: usil
Spectrometer: V785-0024
Trigger mode: 0
Integration Time (sec): 4.000000E-1
Scans to average: 1
Nonlinearity correction enabled: false
Boxcar width: 0
Storing dark spectrum: false
XAxis mode: Wavelengths
Number of Pixels in Spectrum: 1024
>>>>>Begin Spectral Data<<<<<
801.071	27093
801.214	27142
801.356	26933
801.499	26876
801.641	26739
801.783	26819
801.926	26636
802.068	26796
802.211	26720
802.353	26579
802.496	26347
802.638	26320
802.78	26393
802.923	26259
803.065	26153
803.208	26320
803.35	26278
803.492	26324
803.635	26427
803.777	26374
803.919	26503
804.061	26743
804.204	26545
804.346	26431
804.488	26400
804.63	26579
804.773	26237
804.915	26450
805.057	26621
805.199	26484
805.341	26533
805.483	26648
805.626	26640
805.768	26473
805.91	26640
806.052	26613
806.194	26758
806.336	26811
806.478	26670
806.62	26583
806.762	26701
806.904	26990
807.046	27249
807.188	27039
807.33	27028
807.472	27070
807.614	26842
807.756	27100
807.898	26864
808.04	26823
808.182	26754
808.324	26895
808.465	26864
808.607	27173
808.749	27226
808.891	27283
809.033	27348
809.174	27150
809.316	27093
809.458	27173
809.6	27058
809.741	27389
809.883	27325
810.025	27466
810.166	27408
810.308	27622
810.45	27431
810.591	27458
810.733	27222
810.875	27203
811.016	26994
811.158	27032
811.299	27382
811.441	27363
811.582	27386
811.724	27260
811.865	27089
812.007	27085
812.148	27142
812.29	27283
812.431	27298
812.573	27466
812.714	27564
812.855	27713
812.997	27793
813.138	27793
813.279	27778
813.421	27728
813.562	27545
813.703	27466
813.845	27359
813.986	27047
814.127	26975
814.268	26887
814.41	26834
814.551	26830
814.692	26940
814.833	26731
814.974	26861
815.115	26880
815.256	26655
815.397	26887
815.539	26716
815.68	26564
815.821	26629
815.962	26625
816.103	26636
816.244	26533
816.385	26339
816.526	26408
816.666	26244
816.807	26100
816.948	26267
817.089	26313
817.23	26153
817.371	26103
817.512	26149
817.653	26046
817.793	26054
817.934	26168
818.075	26119
818.216	26237
818.356	25902
818.497	25932
818.638	25723
818.778	25902
818.919	25928
819.06	25913
819.2	25959
819.341	26122
819.481	26092
819.622	26267
819.762	26362
819.903	26317
820.043	26275
820.184	26183
820.324	26119
820.465	26294
820.605	26130
820.746	26263
820.886	25951
821.026	26107
821.167	26115
821.307	26164
821.447	26024
821.588	26027
821.728	25966
821.868	25670
822.008	25537
822.149	25556
822.289	25552
822.429	25362
822.569	25194
822.709	25202
822.849	25148
822.99	25232
823.13	25057
823.27	24943
823.41	25050
823.55	24859
823.69	24920
823.83	24837
823.97	24844
824.11	24715
824.25	24585
824.389	24757
824.529	24726
824.669	24734
824.809	24909
824.949	24700
825.089	24779
825.228	24715
825.368	24639
825.508	24456
825.648	24578
825.787	24578
825.927	24563
826.067	24563
826.206	24627
826.346	24650
826.485	24696
826.625	24597
826.765	24886
826.904	24570
827.044	24277
827.183	24342
827.323	24148
827.462	24388
827.601	24171
827.741	24277
827.88	24216
828.02	24140
828.159	24239
828.298	24315
828.437	24464
828.577	24213
828.716	24407
828.855	24140
828.994	24049
829.134	23980
829.273	23969
829.412	23939
829.551	23904
829.69	24049
829.829	23999
829.968	24041
830.107	24053
830.246	24026
830.385	23923
830.524	23878
830.663	23726
830.802	23642
830.941	23478
831.08	23524
831.219	23642
831.357	23668
831.496	23737
831.635	23630
831.774	23634
831.913	23444
832.051	23482
832.19	23459
832.329	23615
832.467	23246
832.606	23318
832.744	23307
832.883	23246
833.022	23334
833.16	23368
833.299	23360
833.437	23220
833.576	23414
833.714	23216
833.852	23322
833.991	23512
834.129	23406
834.267	23406
834.406	23440
834.544	23395
834.682	23299
834.821	23318
834.959	23429
835.097	23296
835.235	23345
835.373	23364
835.511	23349
835.65	23212
835.788	23178
835.926	23216
836.064	22972
836.202	23048
836.34	23147
836.478	23360
836.615	23193
836.753	23166
836.891	23261
837.029	23220
837.167	23098
837.305	23071
837.443	23140
837.58	23010
837.718	23140
837.856	23067
837.993	22987
838.131	23166
838.269	22953
838.406	22938
838.544	22934
838.681	22786
838.819	22793
838.956	22497
839.094	22584
839.231	22535
839.369	22805
839.506	22896
839.643	22649
839.781	22466
839.918	22474
840.055	22599
840.193	22516
840.33	22440
840.467	22478
840.604	22596
840.742	22812
840.879	22424
841.016	22447
841.153	22280
841.29	22653
841.427	22394
841.564	22409
841.701	22409
841.838	22466
841.975	22428
842.112	22436
842.249	22421
842.385	22348
842.522	22523
842.659	22405
842.796	22390
842.933	22230
843.069	22101
843.206	22173
843.343	22363
843.479	22196
843.616	22246
843.752	22017
843.889	21972
844.025	22063
844.162	22086
844.298	22093
844.435	22010
844.571	22017
844.708	21922
844.844	22135
844.98	22101
845.117	22074
845.253	21918
845.389	21861
845.525	21816
845.661	21945
845.798	21739
845.934	21770
846.07	21705
846.206	21759
846.342	21918
846.478	21690
846.614	21549
846.75	21523
846.886	21473
847.022	21671
847.158	21454
847.294	21469
847.429	21576
847.565	21370
847.701	21648
847.837	21176
847.972	21203
848.108	21291
848.244	21393
848.379	21176
848.515	21112
848.65	21028
848.786	20956
848.921	21142
849.057	21252
849.192	21123
849.328	21245
849.463	21058
849.598	21017
849.734	21047
849.869	20876
850.004	20948
850.14	20883
850.275	20857
850.41	20731
850.545	20773
850.68	20899
850.815	20872
850.95	20807
851.085	20921
851.22	21017
851.355	20925
851.49	20758
851.625	20834
851.76	20781
851.895	20853
852.03	20910
852.165	20842
852.299	20906
852.434	20807
852.569	20842
852.703	20769
852.838	20982
852.973	21017
853.107	20845
853.242	20864
853.376	20609
853.511	20545
853.645	20537
853.78	20777
853.914	20872
854.048	20526
854.183	20579
854.317	20693
854.451	20864
854.585	20785
854.72	20727
854.854	20815
854.988	20602
855.122	20560
855.256	20484
855.39	20617
855.524	20762
855.658	20606
855.792	20670
855.926	20804
856.06	20663
856.194	20762
856.327	20663
856.461	20644
856.595	20579
856.729	20686
856.862	20724
856.996	20689
857.13	20708
857.263	20746
857.397	20648
857.53	20720
857.664	20678
857.797	20800
857.931	20743
858.064	20754
858.197	20750
858.331	20651
858.464	20598
858.597	20617
858.731	20716
858.864	20667
858.997	20564
859.13	20727
859.263	20682
859.396	20815
859.529	20571
859.662	20602
859.795	20629
859.928	20689
860.061	20826
860.194	20811
860.327	20800
860.46	20629
860.592	20743
860.725	20853
860.858	20883
860.99	20613
861.123	20670
861.256	20530
861.388	20629
861.521	21218
861.653	20438
861.786	20457
861.918	20518
862.05	20423
862.183	20625
862.315	20609
862.447	20629
862.58	20541
862.712	20301
862.844	20370
862.976	20442
863.108	20396
863.24	20864
863.372	20263
863.504	20271
863.636	20438
863.768	20328
863.9	20511
864.032	20221
864.164	20271
864.296	20393
864.428	20457
864.559	20473
864.691	20495
864.823	20579
864.954	20286
865.086	20317
865.217	20309
865.349	20183
865.48	20267
865.612	20305
865.743	20454
865.875	20244
866.006	20206
866.137	20271
866.269	20229
866.4	20294
866.531	20248
866.662	20294
866.793	20126
866.924	20221
867.055	20313
867.186	20229
867.317	20237
867.448	20073
867.579	20199
867.71	20084
867.841	20199
867.972	20256
868.103	20221
868.233	20362
868.364	20161
868.495	20275
868.625	20533
868.756	20530
868.886	20320
869.017	20423
869.147	20648
869.278	20598
869.408	20495
869.539	20514
869.669	20537
869.799	20648
869.929	20511
870.06	20499
870.19	20826
870.32	20629
870.45	20777
870.58	20929
870.71	20872
870.84	20998
870.97	20834
871.1	20807
871.23	20963
871.36	21104
871.489	21005
871.619	21096
871.749	21001
871.879	21119
872.008	21081
872.138	21119
872.267	21024
872.397	21017
872.526	20906
872.656	20902
872.785	20982
872.915	21096
873.044	21218
873.173	21089
873.303	20952
873.432	21165
873.561	21127
873.69	21131
873.819	21009
873.948	21165
874.077	21119
874.206	21077
874.335	21085
874.464	21161
874.593	21351
874.722	21260
874.851	21370
874.979	21268
875.108	21169
875.237	21245
875.365	21214
875.494	21393
875.623	21424
875.751	21237
875.88	21359
876.008	21412
876.136	21549
876.265	21766
876.393	21778
876.521	21907
876.65	21937
876.778	21743
876.906	21736
877.034	21641
877.162	21599
877.29	21671
877.418	21709
877.546	21694
877.674	21667
877.802	21797
877.93	21492
878.058	21648
878.185	21462
878.313	21641
878.441	21660
878.568	21515
878.696	21736
878.824	21644
878.951	21838
879.079	21892
879.206	21983
879.333	21945
879.461	21827
879.588	21785
879.715	21812
879.842	21934
879.97	21675
880.097	21473
880.224	21519
880.351	21523
880.478	21526
880.605	21435
880.732	21336
880.859	21660
880.986	21431
881.112	21473
881.239	21306
881.366	21226
881.493	21294
881.619	21074
881.746	21218
881.872	21138
881.999	21020
882.125	21058
882.252	21085
882.378	21051
882.505	21119
882.631	21062
882.757	20887
882.883	20845
883.01	20819
883.136	20724
883.262	20781
883.388	20678
883.514	20925
883.64	20876
883.766	20727
883.892	20590
884.018	20716
884.143	20796
884.269	20701
884.395	20560
884.52	20434
884.646	20507
884.772	20336
884.897	20396
885.023	20377
885.148	20571
885.274	20568
885.399	20613
885.524	20389
885.65	20488
885.775	20556
885.9	20446
886.025	20469
886.15	20552
886.275	20389
886.4	20320
886.525	20347
886.65	20286
886.775	20465
886.9	20514
887.025	20625
887.149	20381
887.274	20206
887.399	20259
887.523	20050
887.648	20164
887.773	20187
887.897	20282
888.021	20381
888.146	20210
888.27	20290
888.395	20317
888.519	20031
888.643	20237
888.767	20233
888.891	20035
889.015	20100
889.139	20100
889.263	20046
889.387	20142
889.511	20210
889.635	20191
889.759	20035
889.883	19963
890.006	20062
890.13	20115
890.254	20035
890.377	19841
890.501	19868
890.624	19803
890.748	19959
890.871	19788
890.995	19628
891.118	19506
891.241	19613
891.364	19624
891.488	19715
891.611	19685
891.734	19578
891.857	19658
891.98	19635
892.103	19677
892.226	19620
892.349	19639
892.471	19400
892.594	19487
892.717	19457
892.839	19350
892.962	19506
893.085	19529
893.207	19506
893.33	19411
893.452	19457
893.575	19525
893.697	19506
893.819	19635
893.941	19734
894.064	19635
894.186	19571
894.308	19495
894.43	19578
894.552	19590
894.674	19613
894.796	19411
894.918	19483
895.04	19472
895.161	19597
895.283	19601
895.405	19533
895.526	19548
895.648	19609
895.769	19563
895.891	19468
896.012	19624
896.134	19613
896.255	19510
896.376	19392
896.498	19578
896.619	19681
896.74	19590
896.861	19597
896.982	19879
897.103	19883
897.224	19788
897.345	19788
897.466	19613
897.587	19799
897.708	19830
897.828	19849
897.949	19750
898.07	19571
898.19	19658
898.311	19856
898.431	19742
898.552	19772
898.672	19841
898.792	19951
898.913	19811
899.033	19635
899.153	19590
899.273	19506
899.393	19464
899.513	19502
899.633	19544
899.753	19559
899.873	19518
899.993	19506
900.113	19483
900.232	19426
900.352	19457
900.472	19354
900.591	19304
900.711	19411
900.83	19270
900.95	19381
901.069	19438
901.189	19171
901.308	18977
901.427	18939
901.546	18814
901.665	18897
901.784	18886
901.904	18848
902.023	18642
902.141	18407
902.26	18418
902.379	18502
902.498	18407
902.617	18452
902.735	18376
902.854	18380
902.973	18448
903.091	18140
903.21	18117
903.328	18133
903.446	18076
903.565	17946
903.683	17931
903.801	17790
903.919	17942
904.038	17832
904.156	17661
904.274	17813
904.392	17733
904.51	17592
904.627	17687
904.745	17733
904.863	17783
904.981	17474
905.098	17258
905.216	17387
905.334	17425
905.451	17345
905.569	17315
905.686	17341
905.803	17349
905.921	17212
906.038	17258
906.155	17216
906.272	16980
906.389	17037
906.506	16942
906.623	16965
906.74	16885
906.857	16740
906.974	16752
907.091	16953
907.208	16972
907.324	16927
907.441	16767
907.557	16645
907.674	16740
907.79	16504
907.907	16565
908.023	16694
908.139	16615
908.256	16474
908.372	16592
908.488	16459
908.604	16379
908.72	16325
908.836	16253
908.952	16284
909.068	16398
909.184	16417
909.3	16322
909.415	16443
909.531	16329
909.647	16051
909.762	16002
909.878	16128
909.993	16013
910.108	16010
910.224	16002
910.339	15922
910.454	15960
910.57	15937
910.685	15759
910.8	16112
910.915	16051
911.03	15846
911.145	15751
911.259	15591
911.374	15652
911.489	15584
911.604	15553
911.718	15466
911.833	15420
911.947	15321
912.062	15325
912.176	15496
912.291	15488
912.405	15538
912.519	15572
912.633	15523
912.748	15412
912.862	15393
912.976	15233
913.09	15093
913.204	15237
913.318	15222
913.431	15336
913.545	15348
913.659	15294
913.772	15241
913.886	15070
914	15097
914.113	15138
914.226	15119
914.34	15195
914.453	14868
914.566	15058
914.68	14937
914.793	14895
914.906	14705
915.019	14701
915.132	14549
915.245	14625
915.358	14617
915.47	14629
915.583	14663
915.696	14655
915.809	14800
915.921	14857
916.034	14583
916.146	14484
916.259	14503
916.371	14610
916.483	14613
916.595	14503
916.708	14507
916.82	14518
916.932	14488
917.044	14454
917.156	14419
917.268	14313
917.38	14267
917.491	14332
917.603	14362
917.715	14400
917.826	14408
917.938	14305
918.049	14153
918.161	14195
918.272	14476
918.384	14427
918.495	14286
918.606	14142
918.717	13959
918.828	14168
918.939	14119
919.05	13974
919.161	14092
919.272	13890
919.383	13974
919.494	14126
919.604	14244
919.715	14062
919.826	13959
919.936	14050
920.047	14168
920.157	14096
920.267	14229
920.378	14103
920.488	14065
920.598	14240
920.708	14267
920.818	14103
920.928	14267
921.038	14320
921.148	14206
921.258	14073
921.368	13936
921.477	13837
921.587	13784
921.697	13704
921.806	13849
921.916	13658
922.025	13453
922.134	13521
922.244	13434
922.353	13487
922.462	13396
922.571	13324
922.68	13179
922.789	13061
922.898	13099
923.007	13118
923.116	13179
923.224	13129
923.333	13046
923.442	12985
923.55	12825
923.659	12939
923.767	12970
923.876	12852
923.984	12985
924.092	12817
924.201	12837
924.309	12943
924.417	12875
924.525	12798
924.633	12829
924.741	13613
924.849	12536
924.956	12741
925.064	12585
925.172	12498
925.279	12547
925.387	12612
925.494	12460
925.602	12635
925.709	12631
925.816	12391
925.924	12509
926.031	12525
926.138	12601
926.245	12597
926.352	12399
926.459	12555
926.566	12479
926.673	12414
926.779	12361
926.886	12285
926.993	12209
927.099	12098
927.206	12178
927.312	12102
927.419	12159
927.525	12197
927.631	12148
927.737	12026
927.843	11958
927.95	11889
928.056	11942
928.162	11904
928.267	12007
928.373	12585
928.479	12007
928.585	11805
928.69	11859
928.796	11901
928.901	11859
929.007	11748
929.112	11821
929.218	11798
929.323	11623
929.428	11741
929.533	11855
929.638	11646
929.743	11634
929.848	11722
929.953	11596
930.058	11512
930.163	11318
930.267	11448
930.372	11619
930.477	11414
930.581	11562
930.685	11455
930.79	11258
930.894	11288
930.998	11216
931.103	11349
931.207	11094
931.311	10949
931.415	10854
931.519	10752
931.623	10653
