Data from test_V78500241_2570.txt Node
Date: Fri Mar 25 15:27:45 CST 2022
User: usil
Spectrometer: V785-0024
Trigger mode: 0
Integration Time (sec): 4.000000E-1
Scans to average: 1
Nonlinearity correction enabled: false
Boxcar width: 0
Storing dark spectrum: false
XAxis mode: Wavelengths
Number of Pixels in Spectrum: 1024
>>>>>Begin Spectral Data<<<<<
801.071	27401
801.214	27157
801.356	27062
801.499	26967
801.641	26864
801.783	26933
801.926	26842
802.068	26746
802.211	26731
802.353	26785
802.496	26667
802.638	26442
802.78	26488
802.923	26484
803.065	26362
803.208	26332
803.35	26419
803.492	26735
803.635	26625
803.777	26613
803.919	26743
804.061	27017
804.204	26606
804.346	26594
804.488	26552
804.63	26568
804.773	26476
804.915	26655
805.057	26708
805.199	26575
805.341	26518
805.483	26655
805.626	26853
805.768	26655
805.91	26758
806.052	26765
806.194	26632
806.336	26807
806.478	26804
806.62	26811
806.762	26921
806.904	27085
807.046	27374
807.188	27260
807.33	27138
807.472	27218
807.614	27131
807.756	27154
807.898	27047
808.04	26811
808.182	27005
808.324	27074
808.465	27081
808.607	27298
808.749	27313
808.891	27473
809.033	27515
809.174	27363
809.316	27313
809.458	27272
809.6	27359
809.741	27572
809.883	27412
810.025	27580
810.166	27732
810.308	27690
810.45	27622
810.591	27530
810.733	27370
810.875	27313
811.016	27268
811.158	27241
811.299	27523
811.441	27466
811.582	27568
811.724	27389
811.865	27382
812.007	27313
812.148	27317
812.29	27378
812.431	27526
812.573	27679
812.714	27671
812.855	27778
812.997	28112
813.138	27979
813.279	27941
813.421	27869
813.562	27804
813.703	27705
813.845	27431
813.986	27279
814.127	27135
814.268	27089
814.41	27077
814.551	27013
814.692	27173
814.833	26929
814.974	26940
815.115	27051
815.256	26914
815.397	26872
815.539	26948
815.68	26705
815.821	26754
815.962	26872
816.103	26800
816.244	26731
816.385	26621
816.526	26613
816.666	26358
816.807	26362
816.948	26336
817.089	26351
817.23	26294
817.371	26366
817.512	26438
817.653	26328
817.793	26145
817.934	26419
818.075	26282
818.216	26294
818.356	26168
818.497	26336
818.638	26020
818.778	25982
818.919	25887
819.06	26039
819.2	26130
819.341	26199
819.481	26366
819.622	26412
819.762	26556
819.903	26606
820.043	26461
820.184	26419
820.324	26294
820.465	26526
820.605	26408
820.746	26434
820.886	26077
821.026	26400
821.167	26328
821.307	26552
821.447	26309
821.588	26221
821.728	26103
821.868	25890
822.008	25788
822.149	25845
822.289	25769
822.429	25559
822.569	25419
822.709	25422
822.849	25156
822.99	25202
823.13	25228
823.27	25240
823.41	25004
823.55	25095
823.69	25110
823.83	25118
823.97	25038
824.11	24817
824.25	24772
824.389	24810
824.529	24905
824.669	24897
824.809	24958
824.949	25034
825.089	24939
825.228	24954
825.368	24932
825.508	24825
825.648	24776
825.787	24882
825.927	24840
826.067	24795
826.206	24661
826.346	24779
826.485	24875
826.625	24768
826.765	24897
826.904	24833
827.044	24513
827.183	24494
827.323	24555
827.462	24521
827.601	24502
827.741	24544
827.88	24555
828.02	24395
828.159	24509
828.298	24464
828.437	24414
828.577	24334
828.716	24441
828.855	24433
828.994	24213
829.134	24224
829.273	24247
829.412	24277
829.551	24182
829.69	24072
829.829	24273
829.968	24353
830.107	24254
830.246	24171
830.385	24133
830.524	24098
830.663	24030
830.802	23882
830.941	23790
831.08	23836
831.219	23889
831.357	23931
831.496	23980
831.635	23779
831.774	23737
831.913	23600
832.051	23520
832.19	23531
832.329	23433
832.467	23421
832.606	23524
832.744	23421
832.883	23425
833.022	23391
833.16	23391
833.299	23497
833.437	23379
833.576	23520
833.714	23501
833.852	23630
833.991	23684
834.129	23767
834.267	23646
834.406	23516
834.544	23608
834.682	23619
834.821	23455
834.959	23737
835.097	23417
835.235	23718
835.373	23402
835.511	23566
835.65	23433
835.788	23242
835.926	23330
836.064	23269
836.202	23178
836.34	23543
836.478	23459
836.615	23326
836.753	23353
836.891	23345
837.029	23387
837.167	23379
837.305	23231
837.443	23410
837.58	23303
837.718	23337
837.856	23227
837.993	23200
838.131	23242
838.269	23185
838.406	23090
838.544	23109
838.681	22949
838.819	22976
838.956	22843
839.094	22847
839.231	22839
839.369	22911
839.506	23235
839.643	22927
839.781	22820
839.918	22767
840.055	22850
840.193	22759
840.33	22733
840.467	22599
840.604	22725
840.742	23022
840.879	22599
841.016	22668
841.153	22577
841.29	22896
841.427	22550
841.564	22710
841.701	22702
841.838	22656
841.975	22592
842.112	22660
842.249	22641
842.385	22379
842.522	22710
842.659	22417
842.796	22443
842.933	22394
843.069	22295
843.206	22394
843.343	22462
843.479	22337
843.616	22493
843.752	22322
843.889	22207
844.025	22280
844.162	22166
844.298	22215
844.435	22219
844.571	22150
844.708	22181
844.844	22234
844.98	22306
845.117	22291
845.253	22139
845.389	22093
845.525	22135
845.661	22097
845.798	21911
845.934	22002
846.07	21964
846.206	21960
846.342	22101
846.478	21941
846.614	21804
846.75	21717
846.886	21637
847.022	21800
847.158	21781
847.294	21705
847.429	21759
847.565	21583
847.701	21941
847.837	21454
847.972	21428
848.108	21542
848.244	21355
848.379	21291
848.515	21367
848.65	21237
848.786	21264
848.921	21233
849.057	21329
849.192	21306
849.328	21241
849.463	21237
849.598	21161
849.734	21165
849.869	21066
850.004	21001
850.14	21036
850.275	21051
850.41	20933
850.545	20952
850.68	21005
850.815	21138
850.95	21009
851.085	21165
851.22	21214
851.355	21062
851.49	21009
851.625	21036
851.76	21096
851.895	21074
852.03	21024
852.165	21077
852.299	21081
852.434	21142
852.569	21077
852.703	21077
852.838	21085
852.973	21119
853.107	21252
853.242	20819
853.376	20918
853.511	20777
853.645	20819
853.78	20998
853.914	20830
854.048	20849
854.183	20804
854.317	20982
854.451	21161
854.585	20826
854.72	20872
854.854	20876
854.988	20773
855.122	20944
855.256	20705
855.39	20796
855.524	20963
855.658	20910
855.792	20902
855.926	20861
856.06	20979
856.194	20941
856.327	20727
856.461	20689
856.595	20743
856.729	20811
856.862	20933
856.996	21009
857.13	20914
857.263	20994
857.397	20986
857.53	20868
857.664	20872
857.797	20914
857.931	20887
858.064	20712
858.197	21077
858.331	20754
858.464	20762
858.597	20853
858.731	20842
858.864	20834
858.997	20872
859.13	20781
859.263	20800
859.396	20781
859.529	20796
859.662	20857
859.795	20800
859.928	20735
860.061	20861
860.194	21020
860.327	20963
860.46	20842
860.592	20990
860.725	21001
860.858	20944
860.99	20960
861.123	20686
861.256	20727
861.388	20880
861.521	21519
861.653	20689
861.786	20613
861.918	20727
862.05	20674
862.183	20815
862.315	20819
862.447	20872
862.58	20823
862.712	20644
862.844	20476
862.976	20636
863.108	20625
863.24	21047
863.372	20552
863.504	20594
863.636	20693
863.768	20590
863.9	20560
864.032	20556
864.164	20492
864.296	20537
864.428	20765
864.559	20686
864.691	20606
864.823	20621
864.954	20537
865.086	20560
865.217	20461
865.349	20381
865.48	20560
865.612	20457
865.743	20617
865.875	20484
866.006	20480
866.137	20442
866.269	20526
866.4	20503
866.531	20358
866.662	20347
866.793	20503
866.924	20362
867.055	20419
867.186	20263
867.317	20476
867.448	20343
867.579	20381
867.71	20358
867.841	20157
867.972	20457
868.103	20385
868.233	20442
868.364	20492
868.495	20431
868.625	20632
868.756	20746
868.886	20708
869.017	20651
869.147	20762
869.278	20693
869.408	20678
869.539	20663
869.669	20739
869.799	20629
869.929	20686
870.06	20716
870.19	21005
870.32	20891
870.45	20921
870.58	21036
870.71	21184
870.84	21199
870.97	20971
871.1	21119
871.23	21294
871.36	21203
871.489	21199
871.619	21195
871.749	21298
871.879	21188
872.008	21401
872.138	21252
872.267	21291
872.397	21055
872.526	21036
872.656	20986
872.785	21089
872.915	21268
873.044	21374
873.173	21287
873.303	21386
873.432	21359
873.561	21428
873.69	21443
873.819	21291
873.948	21458
874.077	21332
874.206	21279
874.335	21268
874.464	21340
874.593	21511
874.722	21420
874.851	21557
874.979	21614
875.108	21557
875.237	21504
875.365	21416
875.494	21477
875.623	21545
875.751	21431
875.88	21507
876.008	21603
876.136	21770
876.265	21880
876.393	22093
876.521	22059
876.65	21930
876.778	22017
876.906	21911
877.034	21911
877.162	21861
877.29	21831
877.418	21937
877.546	21869
877.674	21785
877.802	21850
877.93	21880
878.058	21812
878.185	21720
878.313	21876
878.441	21694
878.568	21713
878.696	21854
878.824	21816
878.951	21956
879.079	22124
879.206	22181
879.333	22013
879.461	21797
879.588	22116
879.715	22074
879.842	22124
879.97	21899
880.097	21705
880.224	21759
880.351	21743
880.478	21705
880.605	21686
880.732	21724
880.859	21922
880.986	21747
881.112	21686
881.239	21633
881.366	21477
881.493	21252
881.619	21142
881.746	21264
881.872	21359
881.999	21211
882.125	21184
882.252	21310
882.378	21431
882.505	21386
882.631	21036
882.757	21028
882.883	20944
883.01	20971
883.136	20979
883.262	20857
883.388	20864
883.514	21013
883.64	20895
883.766	20830
883.892	20834
884.018	20826
884.143	20944
884.269	21100
884.395	20629
884.52	20724
884.646	20629
884.772	20560
884.897	20427
885.023	20644
885.148	20701
885.274	20849
885.399	20769
885.524	20609
885.65	20583
885.775	20629
885.9	20541
886.025	20792
886.15	20750
886.275	20663
886.4	20495
886.525	20556
886.65	20629
886.775	20571
886.9	20689
887.025	20849
887.149	20579
887.274	20396
887.399	20267
887.523	20298
887.648	20282
887.773	20393
887.897	20511
888.021	20396
888.146	20275
888.27	20446
888.395	20492
888.519	20454
888.643	20446
888.767	20358
888.891	20278
889.015	20225
889.139	20221
889.263	20183
889.387	20438
889.511	20442
889.635	20317
889.759	20202
889.883	20153
890.006	20149
890.13	20275
890.254	20142
890.377	20107
890.501	20020
890.624	19959
890.748	20103
890.871	19936
890.995	19833
891.118	19784
891.241	19811
891.364	19795
891.488	19940
891.611	19799
891.734	19814
891.857	19765
891.98	19818
892.103	19837
892.226	19822
892.349	19689
892.471	19544
892.594	19776
892.717	19651
892.839	19643
892.962	19647
893.085	19727
893.207	19693
893.33	19647
893.452	19464
893.575	19685
893.697	19594
893.819	19791
893.941	19868
894.064	19712
894.186	19635
894.308	19632
894.43	19681
894.552	19887
894.674	19734
894.796	19624
894.918	19647
895.04	19757
895.161	19799
895.283	19750
895.405	19693
895.526	19681
895.648	19696
895.769	19849
895.891	19734
896.012	19746
896.134	19753
896.255	19784
896.376	19719
896.498	19738
896.619	19769
896.74	19727
896.861	19738
896.982	19955
897.103	20161
897.224	20050
897.345	19940
897.466	19769
897.587	19940
897.708	20008
897.828	19974
897.949	19894
898.07	19826
898.19	19868
898.311	19982
898.431	19780
898.552	19883
898.672	19928
898.792	19997
898.913	19871
899.033	19833
899.153	19700
899.273	19658
899.393	19635
899.513	19613
899.633	19681
899.753	19685
899.873	19635
899.993	19666
900.113	19700
900.232	19533
900.352	19578
900.472	19441
900.591	19403
900.711	19544
900.83	19457
900.95	19533
901.069	19605
901.189	19244
901.308	19095
901.427	19088
901.546	19080
901.665	18985
901.784	19091
901.904	18989
902.023	18776
902.141	18661
902.26	18540
902.379	18601
902.498	18551
902.617	18547
902.735	18681
902.854	18532
902.973	18433
903.091	18277
903.21	18277
903.328	18197
903.446	18026
903.565	18125
903.683	18152
903.801	17908
903.919	17992
904.038	17942
904.156	17859
904.274	17912
904.392	17783
904.51	17760
904.627	17802
904.745	17901
904.863	17840
904.981	17642
905.098	17474
905.216	17455
905.334	17566
905.451	17501
905.569	17444
905.686	17547
905.803	17452
905.921	17372
906.038	17303
906.155	17318
906.272	17121
906.389	17193
906.506	17048
906.623	17003
906.74	16972
906.857	16911
906.974	16999
907.091	17105
907.208	17094
907.324	17060
907.441	16965
907.557	16869
907.674	16717
907.79	16721
907.907	16672
908.023	16694
908.139	16664
908.256	16752
908.372	16607
908.488	16622
908.604	16546
908.72	16554
908.836	16599
908.952	16428
909.068	16500
909.184	16523
909.3	16527
909.415	16535
909.531	16504
909.647	16211
909.762	16090
909.878	16188
909.993	16109
910.108	16154
910.224	16242
910.339	16166
910.454	16188
910.57	15911
910.685	15876
910.8	16249
910.915	16112
911.03	15987
911.145	15854
911.259	15797
911.374	15808
911.489	15709
911.604	15591
911.718	15485
911.833	15534
911.947	15485
912.062	15485
912.176	15526
912.291	15637
912.405	15469
912.519	15720
912.633	15690
912.748	15568
912.862	15412
912.976	15393
913.09	15241
913.204	15264
913.318	15469
913.431	15485
913.545	15370
913.659	15439
913.772	15283
913.886	15264
914	15131
914.113	15291
914.226	15245
914.34	15150
914.453	15070
914.566	15154
914.68	15036
914.793	15013
914.906	14777
915.019	14853
915.132	14724
915.245	14716
915.358	14830
915.47	14838
915.583	14811
915.696	14750
915.809	14872
915.921	14811
916.034	14762
916.146	14663
916.259	14686
916.371	14720
916.483	14716
916.595	14655
916.708	14583
916.82	14716
916.932	14659
917.044	14594
917.156	14541
917.268	14450
917.38	14465
917.491	14457
917.603	14374
917.715	14533
917.826	14514
917.938	14385
918.049	14385
918.161	14461
918.272	14518
918.384	14526
918.495	14324
918.606	14225
918.717	14176
918.828	14259
918.939	14259
919.05	14145
919.161	14168
919.272	14062
919.383	14005
919.494	14320
919.604	14362
919.715	14221
919.826	14149
919.936	14161
920.047	14275
920.157	14172
920.267	14324
920.378	14126
920.488	14077
920.598	14328
920.708	14564
920.818	14298
920.928	14358
921.038	14495
921.148	14370
921.258	14130
921.368	14024
921.477	13947
921.587	13894
921.697	13837
921.806	13917
921.916	13742
922.025	13639
922.134	13594
922.244	13567
922.353	13655
922.462	13445
922.571	13392
922.68	13316
922.789	13228
922.898	13240
923.007	13095
923.116	13232
923.224	13175
923.333	13042
923.442	13008
923.55	13042
923.659	13133
923.767	13099
923.876	13050
923.984	13057
924.092	12935
924.201	13080
924.309	12951
924.417	12928
924.525	12901
924.633	12905
924.741	13799
924.849	12711
924.956	12875
925.064	12757
925.172	12551
925.279	12570
925.387	12601
925.494	12715
925.602	12795
925.709	12665
925.816	12574
925.924	12623
926.031	12662
926.138	12620
926.245	12688
926.352	12479
926.459	12536
926.566	12608
926.673	12460
926.779	12456
926.886	12410
926.993	12239
927.099	12182
927.206	12106
927.312	12186
927.419	12296
927.525	12175
927.631	12136
927.737	12167
927.843	12148
927.95	12041
928.056	12117
928.162	12098
928.267	12114
928.373	12612
928.479	12228
928.585	11832
928.69	12019
928.796	12068
928.901	11996
929.007	11718
929.112	11851
929.218	11851
929.323	11714
929.428	11760
929.533	11927
929.638	11691
929.743	11657
929.848	11775
929.953	11703
930.058	11619
930.163	11440
930.267	11501
930.372	11661
930.477	11440
930.581	11668
930.685	11471
930.79	11341
930.894	11356
930.998	11436
931.103	11490
931.207	11071
931.311	11041
931.415	11033
931.519	10733
931.623	10683
