Data from test_V78500241_1807.txt Node
Date: Fri Mar 25 15:22:26 CST 2022
User: usil
Spectrometer: V785-0024
Trigger mode: 0
Integration Time (sec): 4.000000E-1
Scans to average: 1
Nonlinearity correction enabled: false
Boxcar width: 0
Storing dark spectrum: false
XAxis mode: Wavelengths
Number of Pixels in Spectrum: 1024
>>>>>Begin Spectral Data<<<<<
801.071	27956
801.214	27762
801.356	27545
801.499	27595
801.641	27511
801.783	27458
801.926	27412
802.068	27504
802.211	27256
802.353	27283
802.496	27131
802.638	27020
802.78	27116
802.923	27024
803.065	26929
803.208	27017
803.35	27009
803.492	27195
803.635	27306
803.777	27093
803.919	27207
804.061	27675
804.204	27351
804.346	27325
804.488	27237
804.63	27294
804.773	27112
804.915	27408
805.057	27424
805.199	27188
805.341	27329
805.483	27408
805.626	27363
805.768	27260
805.91	27370
806.052	27408
806.194	27260
806.336	27450
806.478	27435
806.62	27332
806.762	27488
806.904	27675
807.046	27846
807.188	27816
807.33	27838
807.472	27888
807.614	27629
807.756	27724
807.898	27477
808.04	27667
808.182	27576
808.324	27682
808.465	27667
808.607	27842
808.749	28116
808.891	28063
809.033	28192
809.174	28029
809.316	27987
809.458	27892
809.6	27998
809.741	28169
809.883	28070
810.025	28272
810.166	28280
810.308	28382
810.45	28352
810.591	28196
810.733	28017
810.875	27964
811.016	27926
811.158	27945
811.299	27991
811.441	28070
811.582	28226
811.724	27994
811.865	27907
812.007	27975
812.148	28013
812.29	28131
812.431	28295
812.573	28226
812.714	28557
812.855	28577
812.997	28588
813.138	28637
813.279	28744
813.421	28584
813.562	28474
813.703	28348
813.845	28253
813.986	27949
814.127	27793
814.268	27736
814.41	27667
814.551	27618
814.692	27759
814.833	27629
814.974	27641
815.115	27644
815.256	27557
815.397	27496
815.539	27595
815.68	27351
815.821	27408
815.962	27454
816.103	27466
816.244	27523
816.385	27275
816.526	27355
816.666	27184
816.807	27024
816.948	26990
817.089	27207
817.23	27093
817.371	26986
817.512	26982
817.653	26906
817.793	26899
817.934	26956
818.075	27062
818.216	26876
818.356	26998
818.497	26887
818.638	26743
818.778	26663
818.919	26975
819.06	26815
819.2	26933
819.341	27089
819.481	27108
819.622	27108
819.762	27211
819.903	27157
820.043	27214
820.184	26979
820.324	27203
820.465	27214
820.605	27157
820.746	27116
820.886	26990
821.026	27036
821.167	27009
821.307	27237
821.447	27028
821.588	26880
821.728	26845
821.868	26533
822.008	26644
822.149	26488
822.289	26511
822.429	26252
822.569	26206
822.709	26126
822.849	26043
822.99	26024
823.13	25947
823.27	26058
823.41	25818
823.55	25616
823.69	25940
823.83	25765
823.97	25765
824.11	25662
824.25	25521
824.389	25567
824.529	25712
824.669	25666
824.809	25742
824.949	25757
825.089	25712
825.228	25704
825.368	25384
825.508	25578
825.648	25609
825.787	25605
825.927	25628
826.067	25514
826.206	25441
826.346	25499
826.485	25590
826.625	25521
826.765	25693
826.904	25639
827.044	25335
827.183	25358
827.323	25240
827.462	25339
827.601	25365
827.741	25339
827.88	25285
828.02	25061
828.159	25236
828.298	25407
828.437	25255
828.577	25240
828.716	25194
828.855	25137
828.994	24981
829.134	25000
829.273	25050
829.412	25004
829.551	24909
829.69	24962
829.829	25069
829.968	24981
830.107	25015
830.246	24962
830.385	24928
830.524	24871
830.663	24768
830.802	24608
830.941	24589
831.08	24505
831.219	24684
831.357	24688
831.496	24806
831.635	24505
831.774	24365
831.913	24513
832.051	24304
832.19	24391
832.329	24311
832.467	24342
832.606	24243
832.744	24220
832.883	24266
833.022	24163
833.16	24197
833.299	24433
833.437	24228
833.576	24334
833.714	24304
833.852	24388
833.991	24509
834.129	24570
834.267	24342
834.406	24247
834.544	24376
834.682	24380
834.821	24285
834.959	24464
835.097	24300
835.235	24357
835.373	24186
835.511	24407
835.65	24182
835.788	24182
835.926	23996
836.064	23973
836.202	23996
836.34	24201
836.478	24144
836.615	24148
836.753	24209
836.891	24209
837.029	24140
837.167	24015
837.305	24083
837.443	23931
837.58	23980
837.718	23999
837.856	24201
837.993	23927
838.131	24053
838.269	23851
838.406	23942
838.544	23790
838.681	23680
838.819	23611
838.956	23592
839.094	23585
839.231	23459
839.369	23589
839.506	23817
839.643	23668
839.781	23433
839.918	23471
840.055	23657
840.193	23474
840.33	23349
840.467	23516
840.604	23372
840.742	23661
840.879	23288
841.016	23376
841.153	23227
841.29	23421
841.427	23436
841.564	23478
841.701	23379
841.838	23296
841.975	23239
842.112	23364
842.249	23227
842.385	23200
842.522	23444
842.659	23147
842.796	23102
842.933	23223
843.069	23121
843.206	23105
843.343	23280
843.479	23098
843.616	23231
843.752	23056
843.889	22862
844.025	23200
844.162	22957
844.298	22904
844.435	22930
844.571	22889
844.708	23124
844.844	23113
844.98	23102
845.117	23056
845.253	22968
845.389	22729
845.525	22862
845.661	22763
845.798	22790
845.934	22740
846.07	22744
846.206	22717
846.342	22752
846.478	22725
846.614	22436
846.75	22280
846.886	22443
847.022	22478
847.158	22447
847.294	22375
847.429	22409
847.565	22398
847.701	22611
847.837	22173
847.972	22276
848.108	22162
848.244	22234
848.379	21994
848.515	22040
848.65	22055
848.786	22063
848.921	22029
849.057	22097
849.192	22044
849.328	21972
849.463	21926
849.598	21964
849.734	21880
849.869	21800
850.004	21808
850.14	21690
850.275	21816
850.41	21644
850.545	21797
850.68	21732
850.815	21789
850.95	21751
851.085	21895
851.22	21854
851.355	21682
851.49	21641
851.625	21827
851.76	21679
851.895	21701
852.03	21576
852.165	21762
852.299	21778
852.434	21804
852.569	21846
852.703	21690
852.838	21774
852.973	21865
853.107	21880
853.242	21663
853.376	21800
853.511	21538
853.645	21485
853.78	21667
853.914	21606
854.048	21504
854.183	21583
854.317	21568
854.451	21720
854.585	21542
854.72	21549
854.854	21686
854.988	21526
855.122	21587
855.256	21481
855.39	21549
855.524	21583
855.658	21576
855.792	21606
855.926	21572
856.06	21606
856.194	21534
856.327	21599
856.461	21412
856.595	21568
856.729	21568
856.862	21709
856.996	21686
857.13	21660
857.263	21663
857.397	21648
857.53	21534
857.664	21614
857.797	21534
857.931	21709
858.064	21618
858.197	21618
858.331	21466
858.464	21450
858.597	21416
858.731	21545
858.864	21561
858.997	21545
859.13	21507
859.263	21606
859.396	21667
859.529	21500
859.662	21435
859.795	21443
859.928	21603
860.061	21679
860.194	21774
860.327	21504
860.46	21603
860.592	21797
860.725	21743
860.858	21713
860.99	21660
861.123	21466
861.256	21614
861.388	21534
861.521	22150
861.653	21462
861.786	21378
861.918	21370
862.05	21393
862.183	21469
862.315	21561
862.447	21511
862.58	21519
862.712	21298
862.844	21287
862.976	21412
863.108	21443
863.24	21614
863.372	21317
863.504	21249
863.636	21230
863.768	21283
863.9	21313
864.032	21294
864.164	21180
864.296	21325
864.428	21310
864.559	21412
864.691	21252
864.823	21184
864.954	21306
865.086	21230
865.217	21176
865.349	21108
865.48	21226
865.612	21256
865.743	21249
865.875	21112
866.006	21180
866.137	21150
866.269	21135
866.4	21123
866.531	21024
866.662	21119
866.793	21024
866.924	21123
867.055	21104
867.186	21123
867.317	21135
867.448	20899
867.579	21089
867.71	21119
867.841	21028
867.972	21192
868.103	21127
868.233	21096
868.364	21150
868.495	21245
868.625	21310
868.756	21420
868.886	21332
869.017	21401
869.147	21412
869.278	21450
869.408	21363
869.539	21420
869.669	21382
869.799	21359
869.929	21420
870.06	21485
870.19	21698
870.32	21568
870.45	21652
870.58	21679
870.71	21804
870.84	21766
870.97	21690
871.1	21641
871.23	21987
871.36	22017
871.489	21770
871.619	21850
871.749	21888
871.879	21964
872.008	22131
872.138	21819
872.267	22002
872.397	21743
872.526	21709
872.656	21743
872.785	21759
872.915	22006
873.044	21987
873.173	21930
873.303	22006
873.432	22021
873.561	21983
873.69	21930
873.819	21835
873.948	22021
874.077	21949
874.206	21991
874.335	21842
874.464	21994
874.593	22215
874.722	22200
874.851	22219
874.979	22246
875.108	22238
875.237	22166
875.365	22090
875.494	22238
875.623	22147
875.751	22185
875.88	22211
876.008	22367
876.136	22272
876.265	22599
876.393	22801
876.521	22687
876.65	22622
876.778	22611
876.906	22557
877.034	22550
877.162	22432
877.29	22440
877.418	22440
877.546	22500
877.674	22561
877.802	22489
877.93	22523
878.058	22508
878.185	22314
878.313	22584
878.441	22634
878.568	22333
878.696	22394
878.824	22535
878.951	22596
879.079	22679
879.206	22858
879.333	22634
879.461	22500
879.588	22656
879.715	22603
879.842	22771
879.97	22542
880.097	22272
880.224	22337
880.351	22394
880.478	22356
880.605	22249
880.732	22371
880.859	22538
880.986	22371
881.112	22318
881.239	22192
881.366	22093
881.493	21930
881.619	21907
881.746	21907
881.872	21941
881.999	21903
882.125	21922
882.252	21888
882.378	21854
882.505	21987
882.631	21835
882.757	21599
882.883	21675
883.01	21656
883.136	21496
883.262	21473
883.388	21500
883.514	21606
883.64	21603
883.766	21553
883.892	21515
884.018	21420
884.143	21435
884.269	21709
884.395	21431
884.52	21245
884.646	21260
884.772	21252
884.897	21112
885.023	21252
885.148	21405
885.274	21408
885.399	21439
885.524	21317
885.65	21268
885.775	21351
885.9	21348
886.025	21252
886.15	21359
886.275	21150
886.4	21085
886.525	21138
886.65	21249
886.775	21096
886.9	21340
887.025	21393
887.149	21294
887.274	20975
887.399	21001
887.523	20975
887.648	21009
887.773	20960
887.897	21081
888.021	21047
888.146	20910
888.27	21192
888.395	21051
888.519	21093
888.643	20914
888.767	21077
888.891	21024
889.015	20842
889.139	20876
889.263	20872
889.387	20960
889.511	21009
889.635	20994
889.759	20910
889.883	20735
890.006	20811
890.13	20910
890.254	20686
890.377	20769
890.501	20556
890.624	20674
890.748	20667
890.871	20644
890.995	20385
891.118	20358
891.241	20336
891.364	20366
891.488	20583
891.611	20488
891.734	20358
891.857	20499
891.98	20374
892.103	20377
892.226	20370
892.349	20484
892.471	20199
892.594	20377
892.717	20199
892.839	20271
892.962	20385
893.085	20305
893.207	20240
893.33	20180
893.452	20256
893.575	20320
893.697	20294
893.819	20476
893.941	20552
894.064	20339
894.186	20298
894.308	20180
894.43	20415
894.552	20442
894.674	20301
894.796	20252
894.918	20294
895.04	20244
895.161	20336
895.283	20180
895.405	20282
895.526	20164
895.648	20305
895.769	20267
895.891	20282
896.012	20450
896.134	20294
896.255	20244
896.376	20103
896.498	20347
896.619	20259
896.74	20290
896.861	20267
896.982	20469
897.103	20731
897.224	20480
897.345	20492
897.466	20514
897.587	20480
897.708	20564
897.828	20545
897.949	20374
898.07	20324
898.19	20336
898.311	20609
898.431	20298
898.552	20613
898.672	20495
898.792	20423
898.913	20434
899.033	20305
899.153	20290
899.273	20256
899.393	20180
899.513	20221
899.633	20191
899.753	20206
899.873	20077
899.993	20119
900.113	20092
900.232	20187
900.352	20103
900.472	20043
900.591	20005
900.711	19986
900.83	19944
900.95	20111
901.069	20062
901.189	19887
901.308	19738
901.427	19506
901.546	19518
901.665	19525
901.784	19597
901.904	19392
902.023	19339
902.141	19171
902.26	19118
902.379	19110
902.498	19000
902.617	19057
902.735	19069
902.854	18981
902.973	18958
903.091	18745
903.21	18787
903.328	18757
903.446	18757
903.565	18525
903.683	18547
903.801	18467
903.919	18574
904.038	18445
904.156	18285
904.274	18388
904.392	18258
904.51	18247
904.627	18365
904.745	18334
904.863	18410
904.981	18098
905.098	17988
905.216	18019
905.334	18117
905.451	18003
905.569	17980
905.686	17988
905.803	17904
905.921	17798
906.038	17874
906.155	17741
906.272	17729
906.389	17718
906.506	17512
906.623	17478
906.74	17448
906.857	17512
906.974	17505
907.091	17577
907.208	17551
907.324	17486
907.441	17395
907.557	17277
907.674	17254
907.79	17136
907.907	17128
908.023	17292
908.139	17174
908.256	17132
908.372	17181
908.488	17109
908.604	17067
908.72	17022
908.836	16873
908.952	16889
909.068	16942
909.184	17060
909.3	16972
909.415	16968
909.531	16953
909.647	16713
909.762	16790
909.878	16691
909.993	16748
910.108	16687
910.224	16607
910.339	16649
910.454	16535
910.57	16424
910.685	16405
910.8	16736
910.915	16599
911.03	16318
911.145	16341
911.259	16211
911.374	16154
911.489	16265
911.604	16261
911.718	16010
911.833	16006
911.947	16025
912.062	15831
912.176	16013
912.291	15994
912.405	15972
912.519	16128
912.633	16246
912.748	16010
912.862	15911
912.976	15873
913.09	15720
913.204	15793
913.318	15793
913.431	15934
913.545	15949
913.659	15945
913.772	15804
913.886	15625
914	15663
914.113	15724
914.226	15732
914.34	15648
914.453	15549
914.566	15709
914.68	15447
914.793	15466
914.906	15237
915.019	15306
915.132	15184
915.245	15214
915.358	15317
915.47	15214
915.583	15230
915.696	15218
915.809	15321
915.921	15321
916.034	15123
916.146	15169
916.259	15066
916.371	15207
916.483	15131
916.595	15093
916.708	15047
916.82	15081
916.932	14994
917.044	14887
917.156	14998
917.268	14842
917.38	14864
917.491	14777
917.603	14937
917.715	14944
917.826	15005
917.938	14807
918.049	14815
918.161	14777
918.272	15013
918.384	14944
918.495	14796
918.606	14655
918.717	14629
918.828	14625
918.939	14670
919.05	14503
919.161	14594
919.272	14389
919.383	14431
919.494	14670
919.604	14765
919.715	14606
919.826	14552
919.936	14560
920.047	14610
920.157	14541
920.267	14769
920.378	14594
920.488	14545
920.598	14773
920.708	14853
920.818	14602
920.928	14746
921.038	14823
921.148	14750
921.258	14469
921.368	14336
921.477	14294
921.587	14305
921.697	14271
921.806	14328
921.916	14149
922.025	14027
922.134	13947
922.244	13951
922.353	13982
922.462	13795
922.571	13841
922.68	13643
922.789	13559
922.898	13689
923.007	13502
923.116	13636
923.224	13575
923.333	13514
923.442	13476
923.55	13480
923.659	13460
923.767	13476
923.876	13320
923.984	13521
924.092	13293
924.201	13274
924.309	13411
924.417	13377
924.525	13350
924.633	13339
924.741	14229
924.849	13084
924.956	13316
925.064	13046
925.172	12954
925.279	13042
925.387	13015
925.494	12966
925.602	13080
925.709	13061
925.816	12932
925.924	13000
926.031	13027
926.138	12981
926.245	13012
926.352	12833
926.459	12993
926.566	13122
926.673	12916
926.779	12776
926.886	12814
926.993	12616
927.099	12650
927.206	12509
927.312	12578
927.419	12604
927.525	12582
927.631	12620
927.737	12460
927.843	12418
927.95	12346
928.056	12391
928.162	12403
928.267	12429
928.373	13023
928.479	12414
928.585	12239
928.69	12372
928.796	12441
928.901	12251
929.007	12216
929.112	12239
929.218	12224
929.323	12144
929.428	12121
929.533	12289
929.638	12003
929.743	12015
929.848	12121
929.953	12079
930.058	11832
930.163	11767
930.267	11809
930.372	11923
930.477	11695
930.581	11988
930.685	11809
930.79	11695
930.894	11714
930.998	11623
931.103	11745
931.207	11467
931.311	11387
931.415	11261
931.519	11045
931.623	10999
