Data from test_V78500241_520.txt Node
Date: Fri Mar 25 15:13:28 CST 2022
User: usil
Spectrometer: V785-0024
Trigger mode: 0
Integration Time (sec): 4.000000E-1
Scans to average: 1
Nonlinearity correction enabled: false
Boxcar width: 0
Storing dark spectrum: false
XAxis mode: Wavelengths
Number of Pixels in Spectrum: 1024
>>>>>Begin Spectral Data<<<<<
801.071	27545
801.214	27530
801.356	27256
801.499	27207
801.641	26956
801.783	27051
801.926	27173
802.068	27089
802.211	26986
802.353	26872
802.496	26853
802.638	26819
802.78	26621
802.923	26625
803.065	26606
803.208	26708
803.35	26781
803.492	26940
803.635	26853
803.777	26773
803.919	26918
804.061	27085
804.204	26861
804.346	26880
804.488	26857
804.63	26845
804.773	26781
804.915	26845
805.057	26994
805.199	26857
805.341	26842
805.483	26963
805.626	26918
805.768	26861
805.91	26895
806.052	26944
806.194	26899
806.336	27131
806.478	27074
806.62	26956
806.762	27176
806.904	27218
807.046	27587
807.188	27363
807.33	27344
807.472	27515
807.614	27310
807.756	27408
807.898	27188
808.04	27214
808.182	27093
808.324	27169
808.465	27279
808.607	27435
808.749	27462
808.891	27610
809.033	27637
809.174	27671
809.316	27591
809.458	27523
809.6	27583
809.741	27717
809.883	27793
810.025	27979
810.166	27873
810.308	27831
810.45	27994
810.591	27911
810.733	27663
810.875	27485
811.016	27447
811.158	27523
811.299	27698
811.441	27865
811.582	27812
811.724	27637
811.865	27720
812.007	27523
812.148	27595
812.29	27587
812.431	27819
812.573	27987
812.714	27987
812.855	28032
812.997	28032
813.138	28519
813.279	28306
813.421	28299
813.562	28154
813.703	27968
813.845	27762
813.986	27587
814.127	27500
814.268	27302
814.41	27279
814.551	27344
814.692	27306
814.833	27055
814.974	27291
815.115	27218
815.256	27085
815.397	27070
815.539	27180
815.68	27062
815.821	27131
815.962	27176
816.103	26971
816.244	26952
816.385	26781
816.526	26701
816.666	26746
816.807	26552
816.948	26636
817.089	26689
817.23	26583
817.371	26583
817.512	26678
817.653	26507
817.793	26530
817.934	26465
818.075	26674
818.216	26568
818.356	26583
818.497	26465
818.638	26453
818.778	26320
818.919	26412
819.06	26389
819.2	26484
819.341	26461
819.481	26587
819.622	26777
819.762	26819
819.903	26872
820.043	26758
820.184	26560
820.324	26526
820.465	26731
820.605	26712
820.746	26644
820.886	26606
821.026	26602
821.167	26834
821.307	26708
821.447	26708
821.588	26476
821.728	26324
821.868	26317
822.008	26134
822.149	26126
822.289	25921
822.429	25826
822.569	25761
822.709	25734
822.849	25586
822.99	25487
823.13	25567
823.27	25358
823.41	25411
823.55	25282
823.69	25373
823.83	25308
823.97	25133
824.11	25107
824.25	25175
824.389	25137
824.529	25346
824.669	25168
824.809	25255
824.949	25358
825.089	25278
825.228	25148
825.368	25057
825.508	25129
825.648	24947
825.787	25023
825.927	25103
826.067	25050
826.206	24867
826.346	25019
826.485	25012
826.625	25137
826.765	25095
826.904	25141
827.044	24738
827.183	24833
827.323	24734
827.462	24753
827.601	24791
827.741	24673
827.88	24741
828.02	24726
828.159	24764
828.298	24692
828.437	24821
828.577	24665
828.716	24798
828.855	24776
828.994	24399
829.134	24414
829.273	24563
829.412	24517
829.551	24437
829.69	24418
829.829	24486
829.968	24601
830.107	24452
830.246	24422
830.385	24342
830.524	24327
830.663	24334
830.802	24159
830.941	23939
831.08	23935
831.219	24133
831.357	24152
831.496	24384
831.635	24129
831.774	24144
831.913	24003
832.051	23897
832.19	23984
832.329	23874
832.467	23843
832.606	23798
832.744	23832
832.883	23805
833.022	23649
833.16	23901
833.299	23832
833.437	23832
833.576	23878
833.714	23790
833.852	23889
833.991	23954
834.129	23958
834.267	23893
834.406	23783
834.544	23908
834.682	23790
834.821	23767
834.959	23920
835.097	23619
835.235	23904
835.373	23805
835.511	23794
835.65	23646
835.788	23577
835.926	23646
836.064	23524
836.202	23573
836.34	23611
836.478	23798
836.615	23668
836.753	23707
836.891	23707
837.029	23665
837.167	23581
837.305	23691
837.443	23459
837.58	23570
837.718	23600
837.856	23478
837.993	23535
838.131	23478
838.269	23376
838.406	23501
838.544	23311
838.681	23181
838.819	23056
838.956	23014
839.094	23018
839.231	22995
839.369	23246
839.506	23383
839.643	23121
839.781	22968
839.918	22896
840.055	23178
840.193	22942
840.33	22911
840.467	22908
840.604	22881
840.742	23200
840.879	22812
841.016	22774
841.153	22740
841.29	23037
841.427	22740
841.564	22976
841.701	22858
841.838	22839
841.975	22645
842.112	22919
842.249	22774
842.385	22641
842.522	22957
842.659	22736
842.796	22660
842.933	22672
843.069	22584
843.206	22641
843.343	22687
843.479	22759
843.616	22713
843.752	22459
843.889	22436
844.025	22611
844.162	22470
844.298	22603
844.435	22535
844.571	22413
844.708	22519
844.844	22698
844.98	22519
845.117	22683
845.253	22394
845.389	22455
845.525	22481
845.661	22413
845.798	22291
845.934	22325
846.07	22291
846.206	22215
846.342	22249
846.478	22196
846.614	22017
846.75	21869
846.886	21937
847.022	22036
847.158	21899
847.294	21926
847.429	21994
847.565	21941
847.701	22135
847.837	21660
847.972	21644
848.108	21690
848.244	21743
848.379	21583
848.515	21542
848.65	21416
848.786	21519
848.921	21485
849.057	21580
849.192	21622
849.328	21583
849.463	21515
849.598	21538
849.734	21496
849.869	21393
850.004	21382
850.14	21340
850.275	21237
850.41	21241
850.545	21252
850.68	21245
850.815	21287
850.95	21260
851.085	21492
851.22	21325
851.355	21252
851.49	21188
851.625	21207
851.76	21195
851.895	21230
852.03	21161
852.165	21245
852.299	21279
852.434	21245
852.569	21325
852.703	21157
852.838	21325
852.973	21439
853.107	21378
853.242	21192
853.376	21180
853.511	21074
853.645	20937
853.78	21226
853.914	21131
854.048	21157
854.183	21047
854.317	21150
854.451	21283
854.585	21176
854.72	21157
854.854	21112
854.988	21150
855.122	21100
855.256	20994
855.39	21077
855.524	21066
855.658	21112
855.792	21180
855.926	21123
856.06	21005
856.194	21161
856.327	21020
856.461	21017
856.595	20971
856.729	21081
856.862	21283
856.996	21237
857.13	21222
857.263	21146
857.397	21211
857.53	21013
857.664	21028
857.797	21154
857.931	21085
858.064	21077
858.197	21180
858.331	21104
858.464	21077
858.597	20925
858.731	21001
858.864	21058
858.997	21081
859.13	21062
859.263	21074
859.396	21180
859.529	21070
859.662	21001
859.795	21058
859.928	21062
860.061	21291
860.194	21298
860.327	21081
860.46	21146
860.592	21135
860.725	21154
860.858	21176
860.99	21135
861.123	21055
861.256	21039
861.388	21150
861.521	21774
861.653	20990
861.786	20971
861.918	20944
862.05	21009
862.183	21157
862.315	20887
862.447	21062
862.58	20998
862.712	20876
862.844	20785
862.976	20967
863.108	20838
863.24	21161
863.372	20781
863.504	20807
863.636	20861
863.768	20746
863.9	20788
864.032	20724
864.164	20853
864.296	20796
864.428	20861
864.559	20849
864.691	20796
864.823	20811
864.954	20800
865.086	20861
865.217	20712
865.349	20743
865.48	20762
865.612	20773
865.743	20902
865.875	20800
866.006	20815
866.137	20708
866.269	20720
866.4	20686
866.531	20754
866.662	20564
866.793	20724
866.924	20716
867.055	20575
867.186	20697
867.317	20590
867.448	20594
867.579	20549
867.71	20625
867.841	20560
867.972	20674
868.103	20602
868.233	20606
868.364	20617
868.495	20617
868.625	20826
868.756	21017
868.886	20883
869.017	20971
869.147	21116
869.278	20895
869.408	20933
869.539	20868
869.669	20944
869.799	21020
869.929	20925
870.06	20944
870.19	21260
870.32	21047
870.45	21264
870.58	21226
870.71	21405
870.84	21321
870.97	21176
871.1	21279
871.23	21545
871.36	21469
871.489	21408
871.619	21469
871.749	21378
871.879	21492
872.008	21576
872.138	21428
872.267	21454
872.397	21447
872.526	21306
872.656	21420
872.785	21325
872.915	21496
873.044	21606
873.173	21454
873.303	21663
873.432	21625
873.561	21610
873.69	21458
873.819	21488
873.948	21542
874.077	21545
874.206	21504
874.335	21534
874.464	21599
874.593	21667
874.722	21713
874.851	21755
874.979	21876
875.108	21884
875.237	21717
875.365	21549
875.494	21747
875.623	21899
875.751	21781
875.88	21770
876.008	21793
876.136	21907
876.265	22135
876.393	22219
876.521	22188
876.65	22185
876.778	22143
876.906	22044
877.034	22063
877.162	22143
877.29	22051
877.418	22032
877.546	22177
877.674	22090
877.802	22166
877.93	22055
878.058	22021
878.185	21987
878.313	22143
878.441	22147
878.568	21899
878.696	21983
878.824	22124
878.951	22093
879.079	22390
879.206	22367
879.333	22234
879.461	22150
879.588	22158
879.715	22382
879.842	22310
879.97	22105
880.097	21930
880.224	22002
880.351	21850
880.478	21937
880.605	21800
880.732	21880
880.859	22139
880.986	21972
881.112	22067
881.239	21724
881.366	21736
881.493	21576
881.619	21549
881.746	21545
881.872	21412
881.999	21466
882.125	21496
882.252	21504
882.378	21568
882.505	21583
882.631	21207
882.757	21085
882.883	21302
883.01	21230
883.136	21150
883.262	21161
883.388	21058
883.514	21157
883.64	21146
883.766	21131
883.892	20960
884.018	20982
884.143	21146
884.269	21268
884.395	20937
884.52	20788
884.646	20807
884.772	20819
884.897	20830
885.023	20864
885.148	21028
885.274	20967
885.399	20842
885.524	20876
885.65	20845
885.775	20895
885.9	20777
886.025	20967
886.15	20994
886.275	20750
886.4	20727
886.525	20823
886.65	20796
886.775	20800
886.9	21005
887.025	20990
887.149	20785
887.274	20667
887.399	20625
887.523	20560
887.648	20495
887.773	20514
887.897	20655
888.021	20625
888.146	20499
888.27	20674
888.395	20674
888.519	20716
888.643	20674
888.767	20648
888.891	20526
889.015	20351
889.139	20514
889.263	20358
889.387	20408
889.511	20545
889.635	20526
889.759	20423
889.883	20377
890.006	20377
890.13	20530
890.254	20313
890.377	20290
890.501	20210
890.624	20145
890.748	20187
890.871	20054
890.995	19875
891.118	19963
891.241	20054
891.364	20084
891.488	20119
891.611	20050
891.734	19974
891.857	20115
891.98	19986
892.103	20012
892.226	20008
892.349	19978
892.471	19811
892.594	19906
892.717	19906
892.839	19951
892.962	19845
893.085	19974
893.207	19875
893.33	19765
893.452	19738
893.575	19879
893.697	19879
893.819	20062
893.941	20145
894.064	19887
894.186	19784
894.308	19868
894.43	20039
894.552	19970
894.674	19974
894.796	19761
894.918	19917
895.04	19967
895.161	20001
895.283	19944
895.405	19814
895.526	19849
895.648	19837
895.769	19875
895.891	19951
896.012	19868
896.134	20016
896.255	19883
896.376	19913
896.498	19845
896.619	19841
896.74	19917
896.861	19917
896.982	20115
897.103	20301
897.224	20081
897.345	20115
897.466	20054
897.587	20164
897.708	20126
897.828	20157
897.949	20122
898.07	19868
898.19	19947
898.311	20180
898.431	20046
898.552	20142
898.672	20142
898.792	20153
898.913	20100
899.033	19986
899.153	19970
899.273	19818
899.393	19898
899.513	19837
899.633	19887
899.753	19875
899.873	19887
899.993	19944
900.113	19791
900.232	19928
900.352	19818
900.472	19685
900.591	19689
900.711	19556
900.83	19658
900.95	19803
901.069	19628
901.189	19480
901.308	19350
901.427	19202
901.546	19259
901.665	19206
901.784	19145
901.904	19069
902.023	19057
902.141	18783
902.26	18768
902.379	18696
902.498	18791
902.617	18669
902.735	18757
902.854	18753
902.973	18623
903.091	18414
903.21	18426
903.328	18422
903.446	18456
903.565	18308
903.683	18270
903.801	18194
903.919	18121
904.038	18064
904.156	17946
904.274	18041
904.392	17969
904.51	17920
904.627	17920
904.745	18041
904.863	18076
904.981	17710
905.098	17748
905.216	17752
905.334	17668
905.451	17657
905.569	17661
905.686	17726
905.803	17562
905.921	17516
906.038	17497
906.155	17383
906.272	17429
906.389	17410
906.506	17185
906.623	17113
906.74	17143
906.857	17071
906.974	17143
907.091	17231
907.208	17311
907.324	17170
907.441	17151
907.557	17010
907.674	16965
907.79	16953
907.907	16866
908.023	16904
908.139	16877
908.256	16900
908.372	16801
908.488	16854
908.604	16694
908.72	16649
908.836	16542
908.952	16603
909.068	16717
909.184	16805
909.3	16725
909.415	16679
909.531	16683
909.647	16493
909.762	16474
909.878	16325
909.993	16375
910.108	16246
910.224	16299
910.339	16268
910.454	16166
910.57	16109
910.685	16032
910.8	16344
910.915	16238
911.03	16135
911.145	15975
911.259	15926
911.374	15968
911.489	15926
911.604	15850
911.718	15751
911.833	15762
911.947	15633
912.062	15469
912.176	15667
912.291	15732
912.405	15728
912.519	15846
912.633	15865
912.748	15595
912.862	15603
912.976	15542
913.09	15348
913.204	15473
913.318	15584
913.431	15625
913.545	15542
913.659	15587
913.772	15447
913.886	15370
914	15321
914.113	15370
914.226	15374
914.34	15389
914.453	15146
914.566	15374
914.68	15218
914.793	15214
914.906	15085
915.019	14975
915.132	14914
915.245	14914
915.358	14944
915.47	14971
915.583	14975
915.696	14952
915.809	15051
915.921	15051
916.034	14891
916.146	14815
916.259	14880
916.371	14823
916.483	14785
916.595	14743
916.708	14746
916.82	14800
916.932	14743
917.044	14644
917.156	14686
917.268	14632
917.38	14629
917.491	14533
917.603	14613
917.715	14686
917.826	14625
917.938	14457
918.049	14480
918.161	14625
918.272	14750
918.384	14670
918.495	14518
918.606	14381
918.717	14343
918.828	14298
918.939	14423
919.05	14240
919.161	14343
919.272	14164
919.383	14202
919.494	14412
919.604	14465
919.715	14404
919.826	14290
919.936	14252
920.047	14370
920.157	14305
920.267	14427
920.378	14339
920.488	14305
920.598	14469
920.708	14587
920.818	14514
920.928	14423
921.038	14568
921.148	14682
921.258	14240
921.368	14191
921.477	14111
921.587	14164
921.697	13947
921.806	14001
921.916	13921
922.025	13811
922.134	13826
922.244	13677
922.353	13731
922.462	13586
922.571	13487
922.68	13384
922.789	13373
922.898	13263
923.007	13255
923.116	13354
923.224	13365
923.333	13354
923.442	13213
923.55	13190
923.659	13225
923.767	13221
923.876	13190
923.984	13194
924.092	13137
924.201	13171
924.309	13171
924.417	13057
924.525	12985
924.633	13031
924.741	13776
924.849	12894
924.956	12954
925.064	12844
925.172	12783
925.279	12658
925.387	12837
925.494	12715
925.602	12954
925.709	12741
925.816	12745
925.924	12764
926.031	12791
926.138	12795
926.245	12726
926.352	12673
926.459	12688
926.566	12757
926.673	12654
926.779	12555
926.886	12509
926.993	12448
927.099	12399
927.206	12334
927.312	12342
927.419	12384
927.525	12388
927.631	12414
927.737	12197
927.843	12224
927.95	12053
928.056	12155
928.162	12216
928.267	12171
928.373	12768
928.479	12205
928.585	11931
928.69	12167
928.796	12197
928.901	11999
929.007	11939
929.112	12133
929.218	11958
929.323	11802
929.428	11927
929.533	12022
929.638	11885
929.743	11889
929.848	11969
929.953	11840
930.058	11817
930.163	11573
930.267	11619
930.372	11783
930.477	11611
930.581	11767
930.685	11657
930.79	11486
930.894	11493
930.998	11478
931.103	11615
931.207	11212
931.311	11143
931.415	11132
931.519	10881
931.623	10911
