Data from test_V78500241_2296.txt Node
Date: Fri Mar 25 15:25:50 CST 2022
User: usil
Spectrometer: V785-0024
Trigger mode: 0
Integration Time (sec): 4.000000E-1
Scans to average: 1
Nonlinearity correction enabled: false
Boxcar width: 0
Storing dark spectrum: false
XAxis mode: Wavelengths
Number of Pixels in Spectrum: 1024
>>>>>Begin Spectral Data<<<<<
801.071	27625
801.214	27728
801.356	27359
801.499	27340
801.641	27310
801.783	27138
801.926	27378
802.068	27264
802.211	27237
802.353	27036
802.496	26853
802.638	26887
802.78	26815
802.923	26773
803.065	26659
803.208	26689
803.35	26834
803.492	27108
803.635	27100
803.777	26933
803.919	27169
804.061	27344
804.204	27112
804.346	27077
804.488	27051
804.63	27165
804.773	26838
804.915	27226
805.057	27154
805.199	27138
805.341	27127
805.483	27230
805.626	27199
805.768	27062
805.91	27184
806.052	27222
806.194	27135
806.336	27264
806.478	27272
806.62	27108
806.762	27256
806.904	27348
807.046	27713
807.188	27652
807.33	27534
807.472	27641
807.614	27538
807.756	27534
807.898	27420
808.04	27378
808.182	27443
808.324	27427
808.465	27576
808.607	27732
808.749	27751
808.891	27873
809.033	27926
809.174	27797
809.316	27770
809.458	27907
809.6	27854
809.741	27842
809.883	27880
810.025	28166
810.166	28055
810.308	28013
810.45	27979
810.591	28021
810.733	27739
810.875	27701
811.016	27591
811.158	27709
811.299	27869
811.441	27956
811.582	27850
811.724	27888
811.865	27747
812.007	27644
812.148	27629
812.29	27876
812.431	27975
812.573	28120
812.714	28185
812.855	28280
812.997	28382
813.138	28405
813.279	28348
813.421	28333
813.562	28261
813.703	28128
813.845	28002
813.986	27804
814.127	27439
814.268	27580
814.41	27420
814.551	27370
814.692	27583
814.833	27405
814.974	27488
815.115	27519
815.256	27351
815.397	27237
815.539	27237
815.68	27298
815.821	27226
815.962	27321
816.103	27287
816.244	27070
816.385	27001
816.526	27047
816.666	26902
816.807	26777
816.948	26792
817.089	26838
817.23	26777
817.371	26823
817.512	26636
817.653	26659
817.793	26678
817.934	26781
818.075	26712
818.216	26678
818.356	26648
818.497	26648
818.638	26499
818.778	26442
818.919	26556
819.06	26583
819.2	26674
819.341	26743
819.481	26708
819.622	26967
819.762	26956
819.903	26990
820.043	27020
820.184	26792
820.324	26830
820.465	26895
820.605	26872
820.746	26712
820.886	26693
821.026	26804
821.167	26697
821.307	26937
821.447	26769
821.588	26613
821.728	26526
821.868	26404
822.008	26358
822.149	26218
822.289	26221
822.429	25989
822.569	25997
822.709	25864
822.849	25822
822.99	25712
823.13	25826
823.27	25704
823.41	25430
823.55	25240
823.69	25483
823.83	25578
823.97	25499
824.11	25327
824.25	25304
824.389	25263
824.529	25521
824.669	25400
824.809	25521
824.949	25407
825.089	25407
825.228	25270
825.368	25255
825.508	25171
825.648	25225
825.787	25232
825.927	25320
826.067	25251
826.206	25175
826.346	25240
826.485	25278
826.625	25266
826.765	25369
826.904	25430
827.044	25156
827.183	25012
827.323	24973
827.462	24966
827.601	24844
827.741	25015
827.88	24996
828.02	24878
828.159	24890
828.298	24947
828.437	24939
828.577	25019
828.716	24905
828.855	24821
828.994	24677
829.134	24696
829.273	24623
829.412	24715
829.551	24589
829.69	24631
829.829	24593
829.968	24722
830.107	24738
830.246	24631
830.385	24563
830.524	24669
830.663	24426
830.802	24414
830.941	24327
831.08	24201
831.219	24304
831.357	24338
831.496	24475
831.635	24270
831.774	24243
831.913	24205
832.051	24026
832.19	23999
832.329	24125
832.467	23942
832.606	23939
832.744	23946
832.883	24003
833.022	23851
833.16	23927
833.299	23897
833.437	23923
833.576	23874
833.714	24079
833.852	24064
833.991	24003
834.129	24114
834.267	23977
834.406	23908
834.544	24072
834.682	24034
834.821	23912
834.959	24277
835.097	23832
835.235	23977
835.373	23988
835.511	24015
835.65	23923
835.788	23832
835.926	23745
836.064	23752
836.202	23661
836.34	23832
836.478	23908
836.615	23843
836.753	23847
836.891	23954
837.029	23878
837.167	23783
837.305	23710
837.443	23718
837.58	23745
837.718	23764
837.856	23611
837.993	23657
838.131	23680
838.269	23539
838.406	23493
838.544	23520
838.681	23353
838.819	23341
838.956	23113
839.094	23071
839.231	23105
839.369	23303
839.506	23535
839.643	23376
839.781	23098
839.918	23124
840.055	23079
840.193	23083
840.33	23067
840.467	22987
840.604	23094
840.742	23280
840.879	22839
841.016	22957
841.153	23105
841.29	23041
841.427	23022
841.564	23014
841.701	23033
841.838	22965
841.975	22965
842.112	22820
842.249	22797
842.385	22755
842.522	22999
842.659	22915
842.796	22828
842.933	22812
843.069	22984
843.206	22835
843.343	22934
843.479	22908
843.616	22949
843.752	22615
843.889	22706
844.025	22710
844.162	22645
844.298	22763
844.435	22565
844.571	22546
844.708	22702
844.844	22675
844.98	22645
845.117	22611
845.253	22500
845.389	22504
845.525	22447
845.661	22443
845.798	22405
845.934	22367
846.07	22310
846.206	22333
846.342	22455
846.478	22246
846.614	22086
846.75	22013
846.886	22166
847.022	22154
847.158	22192
847.294	22048
847.429	21994
847.565	22006
847.701	22314
847.837	21793
847.972	21667
848.108	21968
848.244	21835
848.379	21724
848.515	21644
848.65	21587
848.786	21713
848.921	21633
849.057	21701
849.192	21739
849.328	21743
849.463	21671
849.598	21648
849.734	21564
849.869	21496
850.004	21370
850.14	21534
850.275	21370
850.41	21325
850.545	21386
850.68	21389
850.815	21401
850.95	21313
851.085	21629
851.22	21545
851.355	21443
851.49	21336
851.625	21363
851.76	21336
851.895	21279
852.03	21283
852.165	21355
852.299	21382
852.434	21507
852.569	21405
852.703	21374
852.838	21485
852.973	21553
853.107	21511
853.242	21504
853.376	21150
853.511	21108
853.645	21081
853.78	21291
853.914	21256
854.048	21249
854.183	21150
854.317	21378
854.451	21367
854.585	21218
854.72	21199
854.854	21325
854.988	21176
855.122	21321
855.256	21062
855.39	21241
855.524	21378
855.658	21279
855.792	21268
855.926	21161
856.06	21256
856.194	21207
856.327	21142
856.461	21112
856.595	21188
856.729	21313
856.862	21230
856.996	21154
857.13	21344
857.263	21233
857.397	21348
857.53	21317
857.664	21298
857.797	21180
857.931	21233
858.064	21161
858.197	21378
858.331	21279
858.464	21226
858.597	21066
858.731	21123
858.864	21207
858.997	21252
859.13	21214
859.263	21287
859.396	21283
859.529	21233
859.662	21116
859.795	21142
859.928	21154
860.061	21462
860.194	21458
860.327	21294
860.46	21325
860.592	21439
860.725	21313
860.858	21336
860.99	21241
861.123	21211
861.256	21142
861.388	21260
861.521	21994
861.653	21066
861.786	20979
861.918	21024
862.05	21100
862.183	21233
862.315	21058
862.447	21169
862.58	21123
862.712	21001
862.844	20960
862.976	20967
863.108	20963
863.24	21386
863.372	20864
863.504	20975
863.636	20906
863.768	20861
863.9	20895
864.032	20887
864.164	20811
864.296	20979
864.428	21024
864.559	21058
864.691	21074
864.823	20963
864.954	20986
865.086	20815
865.217	20750
865.349	20785
865.48	20785
865.612	20693
865.743	20944
865.875	20769
866.006	20777
866.137	20857
866.269	20899
866.4	20754
866.531	20769
866.662	20773
866.793	20746
866.924	20781
867.055	20739
867.186	20682
867.317	20891
867.448	20739
867.579	20667
867.71	20640
867.841	20640
867.972	20769
868.103	20800
868.233	20731
868.364	20861
868.495	20842
868.625	20864
868.756	21116
868.886	20967
869.017	21116
869.147	21085
869.278	21116
869.408	21020
869.539	20994
869.669	20990
869.799	21085
869.929	21135
870.06	21131
870.19	21249
870.32	21207
870.45	21252
870.58	21310
870.71	21500
870.84	21492
870.97	21260
871.1	21435
871.23	21458
871.36	21641
871.489	21549
871.619	21614
871.749	21625
871.879	21610
872.008	21732
872.138	21481
872.267	21622
872.397	21443
872.526	21481
872.656	21397
872.785	21572
872.915	21511
873.044	21603
873.173	21500
873.303	21660
873.432	21766
873.561	21766
873.69	21580
873.819	21633
873.948	21694
874.077	21549
874.206	21583
874.335	21713
874.464	21812
874.593	21770
874.722	21812
874.851	21869
874.979	21789
875.108	21865
875.237	21819
875.365	21682
875.494	21857
875.623	21895
875.751	21732
875.88	21934
876.008	22029
876.136	22063
876.265	22291
876.393	22367
876.521	22386
876.65	22363
876.778	22192
876.906	22265
877.034	22143
877.162	22280
877.29	22082
877.418	22131
877.546	22287
877.674	22196
877.802	22188
877.93	22147
878.058	22196
878.185	22029
878.313	22124
878.441	22185
878.568	21937
878.696	22177
878.824	22162
878.951	22303
879.079	22386
879.206	22493
879.333	22375
879.461	22242
879.588	22352
879.715	22322
879.842	22409
879.97	22280
880.097	21975
880.224	21987
880.351	21987
880.478	21987
880.605	22006
880.732	21998
880.859	22215
880.986	21911
881.112	22086
881.239	21774
881.366	21751
881.493	21614
881.619	21698
881.746	21599
881.872	21591
881.999	21507
882.125	21553
882.252	21553
882.378	21591
882.505	21736
882.631	21401
882.757	21370
882.883	21340
883.01	21332
883.136	21214
883.262	21138
883.388	21195
883.514	21241
883.64	21260
883.766	21176
883.892	20994
884.018	21100
884.143	21298
884.269	21306
884.395	21020
884.52	20929
884.646	21005
884.772	20929
884.897	20773
885.023	20975
885.148	21005
885.274	21066
885.399	21081
885.524	20887
885.65	20990
885.775	21081
885.9	20849
886.025	20944
886.15	20956
886.275	20830
886.4	20773
886.525	20823
886.65	20933
886.775	20880
886.9	21020
887.025	21138
887.149	20796
887.274	20735
887.399	20720
887.523	20739
887.648	20636
887.773	20686
887.897	20773
888.021	20670
888.146	20590
888.27	20739
888.395	20731
888.519	20769
888.643	20724
888.767	20838
888.891	20629
889.015	20552
889.139	20514
889.263	20434
889.387	20629
889.511	20613
889.635	20659
889.759	20488
889.883	20507
890.006	20423
890.13	20640
890.254	20396
890.377	20457
890.501	20259
890.624	20153
890.748	20263
890.871	20168
890.995	20172
891.118	20126
891.241	20138
891.364	20043
891.488	20233
891.611	20183
891.734	20092
891.857	20077
891.98	20092
892.103	20157
892.226	19932
892.349	19974
892.471	19993
892.594	19947
892.717	20111
892.839	20077
892.962	20069
893.085	20115
893.207	19982
893.33	19883
893.452	19909
893.575	20005
893.697	19936
893.819	20012
893.941	20058
894.064	20122
894.186	19917
894.308	19936
894.43	20046
894.552	20180
894.674	20077
894.796	19833
894.918	19932
895.04	20027
895.161	20012
895.283	19970
895.405	20005
895.526	19887
895.648	19955
895.769	19940
895.891	20050
896.012	20008
896.134	19944
896.255	19765
896.376	19947
896.498	19936
896.619	20020
896.74	19944
896.861	20001
896.982	20336
897.103	20393
897.224	20206
897.345	20176
897.466	20145
897.587	20172
897.708	20347
897.828	20221
897.949	20077
898.07	19936
898.19	20172
898.311	20298
898.431	20065
898.552	20103
898.672	20389
898.792	20271
898.913	20130
899.033	20020
899.153	19989
899.273	19807
899.393	19940
899.513	20001
899.633	20069
899.753	19883
899.873	19921
899.993	19940
900.113	19795
900.232	19959
900.352	19913
900.472	19807
900.591	19734
900.711	19791
900.83	19662
900.95	19841
901.069	19811
901.189	19666
901.308	19434
901.427	19278
901.546	19339
901.665	19312
901.784	19419
901.904	19069
902.023	19137
902.141	18848
902.26	18768
902.379	18814
902.498	18833
902.617	18768
902.735	18863
902.854	18875
902.973	18673
903.091	18513
903.21	18445
903.328	18494
903.446	18281
903.565	18308
903.683	18395
903.801	18209
903.919	18232
904.038	18201
904.156	18083
904.274	18106
904.392	18079
904.51	18136
904.627	18068
904.745	18091
904.863	18110
904.981	17958
905.098	17798
905.216	17805
905.334	17642
905.451	17779
905.569	17756
905.686	17771
905.803	17737
905.921	17562
906.038	17691
906.155	17592
906.272	17421
906.389	17436
906.506	17242
906.623	17337
906.74	17334
906.857	17231
906.974	17197
907.091	17223
907.208	17299
907.324	17356
907.441	17208
907.557	17105
907.674	16991
907.79	16968
907.907	16968
908.023	17067
908.139	16934
908.256	16919
908.372	16881
908.488	16972
908.604	16717
908.72	16687
908.836	16786
908.952	16809
909.068	16736
909.184	16847
909.3	16771
909.415	16752
909.531	16717
909.647	16519
909.762	16485
909.878	16402
909.993	16394
910.108	16329
910.224	16402
910.339	16390
910.454	16280
910.57	16223
910.685	16246
910.8	16386
910.915	16424
911.03	16211
911.145	16010
911.259	16002
911.374	16032
911.489	15857
911.604	15937
911.718	15869
911.833	15759
911.947	15705
912.062	15523
912.176	15682
912.291	15759
912.405	15800
912.519	15838
912.633	15911
912.748	15842
912.862	15633
912.976	15641
913.09	15515
913.204	15492
913.318	15599
913.431	15591
913.545	15587
913.659	15682
913.772	15458
913.886	15454
914	15340
914.113	15431
914.226	15439
914.34	15458
914.453	15260
914.566	15351
914.68	15294
914.793	15294
914.906	15066
915.019	14979
915.132	15005
915.245	14925
915.358	15062
915.47	15017
915.583	15005
915.696	15009
915.809	15131
915.921	15100
916.034	14899
916.146	14899
916.259	14777
916.371	14960
916.483	15005
916.595	14880
916.708	14910
916.82	14834
916.932	14830
917.044	14758
917.156	14773
917.268	14716
917.38	14659
917.491	14617
917.603	14629
917.715	14727
917.826	14632
917.938	14552
918.049	14473
918.161	14571
918.272	14743
918.384	14705
918.495	14511
918.606	14457
918.717	14336
918.828	14484
918.939	14400
919.05	14313
919.161	14476
919.272	14275
919.383	14294
919.494	14412
919.604	14533
919.715	14347
919.826	14328
919.936	14374
920.047	14412
920.157	14396
920.267	14552
920.378	14358
920.488	14336
920.598	14461
920.708	14579
920.818	14427
920.928	14438
921.038	14716
921.148	14571
921.258	14324
921.368	14343
921.477	14130
921.587	14142
921.697	13947
921.806	14111
921.916	13871
922.025	13814
922.134	13731
922.244	13605
922.353	13814
922.462	13575
922.571	13639
922.68	13491
922.789	13457
922.898	13316
923.007	13335
923.116	13392
923.224	13445
923.333	13297
923.442	13346
923.55	13213
923.659	13259
923.767	13209
923.876	13179
923.984	13324
924.092	13110
924.201	13209
924.309	13118
924.417	13137
924.525	13114
924.633	13034
924.741	13921
924.849	12916
924.956	12993
925.064	12783
925.172	12753
925.279	12806
925.387	12924
925.494	12814
925.602	12909
925.709	12882
925.816	12646
925.924	12726
926.031	12795
926.138	12703
926.245	12753
926.352	12639
926.459	12795
926.566	12894
926.673	12703
926.779	12593
926.886	12631
926.993	12452
927.099	12357
927.206	12399
927.312	12338
927.419	12452
927.525	12437
927.631	12384
927.737	12334
927.843	12296
927.95	12175
928.056	12175
928.162	12258
928.267	12380
928.373	12783
928.479	12251
928.585	12068
928.69	12106
928.796	12224
928.901	12110
929.007	11916
929.112	12079
929.218	12007
929.323	11923
929.428	11893
929.533	12030
929.638	11840
929.743	11927
929.848	11946
929.953	11893
930.058	11805
930.163	11699
930.267	11611
930.372	11684
930.477	11566
930.581	11813
930.685	11714
930.79	11520
930.894	11562
930.998	11539
931.103	11596
931.207	11318
931.311	11227
931.415	11136
931.519	10900
931.623	10892
