Data from test_V78500241_483.txt Node
Date: Fri Mar 25 15:13:13 CST 2022
User: usil
Spectrometer: V785-0024
Trigger mode: 0
Integration Time (sec): 4.000000E-1
Scans to average: 1
Nonlinearity correction enabled: false
Boxcar width: 0
Storing dark spectrum: false
XAxis mode: Wavelengths
Number of Pixels in Spectrum: 1024
>>>>>Begin Spectral Data<<<<<
801.071	27454
801.214	27367
801.356	27024
801.499	27195
801.641	27085
801.783	27142
801.926	27032
802.068	26963
802.211	26800
802.353	27013
802.496	26644
802.638	26678
802.78	26484
802.923	26621
803.065	26450
803.208	26427
803.35	26667
803.492	26701
803.635	26899
803.777	26796
803.919	26895
804.061	27055
804.204	26758
804.346	26739
804.488	26823
804.63	26670
804.773	26765
804.915	26762
805.057	26956
805.199	26758
805.341	26826
805.483	26940
805.626	26777
805.768	26800
805.91	26902
806.052	26921
806.194	26823
806.336	27138
806.478	26994
806.62	26830
806.762	26967
806.904	27298
807.046	27466
807.188	27435
807.33	27294
807.472	27393
807.614	27355
807.756	27260
807.898	27093
808.04	27222
808.182	27214
808.324	27176
808.465	27093
808.607	27382
808.749	27583
808.891	27507
809.033	27663
809.174	27534
809.316	27496
809.458	27618
809.6	27492
809.741	27599
809.883	27770
810.025	27831
810.166	27679
810.308	27892
810.45	27827
810.591	27846
810.733	27416
810.875	27599
811.016	27534
811.158	27504
811.299	27580
811.441	27641
811.582	27576
811.724	27420
811.865	27462
812.007	27416
812.148	27454
812.29	27496
812.431	27660
812.573	27842
812.714	27926
812.855	27987
812.997	28093
813.138	28249
813.279	28105
813.421	28188
813.562	28063
813.703	27865
813.845	27648
813.986	27507
814.127	27321
814.268	27131
814.41	27237
814.551	27283
814.692	27275
814.833	27169
814.974	27252
815.115	27131
815.256	27077
815.397	27062
815.539	27005
815.68	27001
815.821	26842
815.962	27009
816.103	27028
816.244	26891
816.385	26788
816.526	26724
816.666	26689
816.807	26499
816.948	26606
817.089	26465
817.23	26560
817.371	26514
817.512	26385
817.653	26499
817.793	26309
817.934	26461
818.075	26450
818.216	26408
818.356	26389
818.497	26358
818.638	26134
818.778	26206
818.919	26180
819.06	26298
819.2	26332
819.341	26453
819.481	26385
819.622	26651
819.762	26838
819.903	26571
820.043	26724
820.184	26476
820.324	26549
820.465	26651
820.605	26476
820.746	26602
820.886	26499
821.026	26530
821.167	26507
821.307	26640
821.447	26499
821.588	26393
821.728	26263
821.868	26100
822.008	26035
822.149	26046
822.289	25818
822.429	25639
822.569	25426
822.709	25715
822.849	25464
822.99	25453
823.13	25350
823.27	25263
823.41	25266
823.55	25274
823.69	25308
823.83	25247
823.97	25270
824.11	24977
824.25	25129
824.389	24962
824.529	25076
824.669	25012
824.809	25217
824.949	25202
825.089	25095
825.228	25053
825.368	24985
825.508	24924
825.648	24924
825.787	24909
825.927	25023
826.067	24932
826.206	24817
826.346	25012
826.485	25065
826.625	24981
826.765	24996
826.904	24951
827.044	24711
827.183	24715
827.323	24688
827.462	24817
827.601	24768
827.741	24741
827.88	24566
828.02	24612
828.159	24631
828.298	24719
828.437	24658
828.577	24627
828.716	24677
828.855	24650
828.994	24365
829.134	24376
829.273	24513
829.412	24384
829.551	24418
829.69	24334
829.829	24365
829.968	24486
830.107	24422
830.246	24350
830.385	24247
830.524	24357
830.663	24224
830.802	24057
830.941	23931
831.08	24018
831.219	24053
831.357	24091
831.496	24125
831.635	24072
831.774	23939
831.913	23901
832.051	23855
832.19	23764
832.329	23767
832.467	23783
832.606	23672
832.744	23558
832.883	23668
833.022	23646
833.16	23684
833.299	23726
833.437	23676
833.576	23786
833.714	23741
833.852	23767
833.991	23783
834.129	23901
834.267	23847
834.406	23695
834.544	23733
834.682	23851
834.821	23745
834.959	23889
835.097	23566
835.235	23748
835.373	23794
835.511	23638
835.65	23619
835.788	23646
835.926	23486
836.064	23368
836.202	23345
836.34	23649
836.478	23589
836.615	23467
836.753	23604
836.891	23619
837.029	23558
837.167	23509
837.305	23581
837.443	23482
837.58	23516
837.718	23372
837.856	23444
837.993	23364
838.131	23463
838.269	23288
838.406	23292
838.544	23136
838.681	23170
838.819	23113
838.956	23003
839.094	22862
839.231	22984
839.369	23113
839.506	23242
839.643	23117
839.781	22881
839.918	22843
840.055	22839
840.193	22908
840.33	22892
840.467	22797
840.604	22965
840.742	23098
840.879	22736
841.016	22801
841.153	22748
841.29	22843
841.427	22869
841.564	22961
841.701	22885
841.838	22752
841.975	22653
842.112	22717
842.249	22569
842.385	22588
842.522	22778
842.659	22660
842.796	22660
842.933	22474
843.069	22523
843.206	22546
843.343	22561
843.479	22554
843.616	22573
843.752	22508
843.889	22367
844.025	22519
844.162	22329
844.298	22500
844.435	22417
844.571	22421
844.708	22299
844.844	22584
844.98	22405
845.117	22531
845.253	22272
845.389	22310
845.525	22253
845.661	22268
845.798	22150
845.934	22204
846.07	22055
846.206	22109
846.342	22120
846.478	22196
846.614	21884
846.75	21808
846.886	21709
847.022	21861
847.158	21823
847.294	21850
847.429	21915
847.565	21930
847.701	22051
847.837	21686
847.972	21538
848.108	21679
848.244	21618
848.379	21397
848.515	21507
848.65	21424
848.786	21412
848.921	21435
849.057	21458
849.192	21466
849.328	21473
849.463	21473
849.598	21466
849.734	21359
849.869	21359
850.004	21241
850.14	21363
850.275	21256
850.41	21207
850.545	21180
850.68	21104
850.815	21321
850.95	21214
851.085	21336
851.22	21260
851.355	21096
851.49	21245
851.625	21176
851.76	21112
851.895	21028
852.03	21127
852.165	21146
852.299	21169
852.434	21370
852.569	21173
852.703	21180
852.838	21241
852.973	21317
853.107	21370
853.242	21070
853.376	20986
853.511	20933
853.645	20952
853.78	21123
853.914	21032
854.048	20921
854.183	21017
854.317	20982
854.451	21279
854.585	21051
854.72	20887
854.854	21047
854.988	20899
855.122	21024
855.256	20929
855.39	20971
855.524	21058
855.658	21077
855.792	20902
855.926	21024
856.06	20982
856.194	21066
856.327	20956
856.461	21009
856.595	20941
856.729	20960
856.862	21047
856.996	21005
857.13	21146
857.263	21241
857.397	21116
857.53	21009
857.664	20994
857.797	21085
857.931	21108
858.064	21001
858.197	21108
858.331	20971
858.464	21017
858.597	20918
858.731	20975
858.864	21005
858.997	20990
859.13	20971
859.263	20998
859.396	21096
859.529	20956
859.662	20944
859.795	21009
859.928	21070
860.061	21195
860.194	21226
860.327	21108
860.46	21077
860.592	21131
860.725	21173
860.858	21195
860.99	20979
861.123	20815
861.256	20963
861.388	20986
861.521	21713
861.653	20975
861.786	20785
861.918	20864
862.05	20830
862.183	20868
862.315	20937
862.447	20872
862.58	20963
862.712	20678
862.844	20800
862.976	20861
863.108	20819
863.24	21150
863.372	20663
863.504	20746
863.636	20811
863.768	20682
863.9	20746
864.032	20792
864.164	20670
864.296	20819
864.428	20735
864.559	20819
864.691	20891
864.823	20708
864.954	20697
865.086	20667
865.217	20705
865.349	20579
865.48	20583
865.612	20575
865.743	20670
865.875	20571
866.006	20587
866.137	20575
866.269	20602
866.4	20507
866.531	20571
866.662	20602
866.793	20552
866.924	20617
867.055	20583
867.186	20579
867.317	20473
867.448	20484
867.579	20541
867.71	20252
867.841	20514
867.972	20609
868.103	20541
868.233	20541
868.364	20587
868.495	20602
868.625	20746
868.756	20864
868.886	20670
869.017	20762
869.147	20960
869.278	20918
869.408	20857
869.539	20906
869.669	20743
869.799	20899
869.929	20971
870.06	20883
870.19	20990
870.32	21211
870.45	21119
870.58	21207
870.71	21214
870.84	21336
870.97	21100
871.1	21131
871.23	21431
871.36	21515
871.489	21382
871.619	21287
871.749	21428
871.879	21458
872.008	21481
872.138	21447
872.267	21466
872.397	21279
872.526	21214
872.656	21226
872.785	21249
872.915	21378
873.044	21504
873.173	21462
873.303	21386
873.432	21458
873.561	21469
873.69	21496
873.819	21397
873.948	21534
874.077	21523
874.206	21363
874.335	21393
874.464	21530
874.593	21667
874.722	21644
874.851	21732
874.979	21519
875.108	21789
875.237	21656
875.365	21587
875.494	21568
875.623	21682
875.751	21682
875.88	21698
876.008	21846
876.136	21979
876.265	22135
876.393	22185
876.521	22147
876.65	22196
876.778	22074
876.906	22017
877.034	22036
877.162	21964
877.29	21994
877.418	21994
877.546	22010
877.674	22002
877.802	21926
877.93	22040
878.058	21934
878.185	21861
878.313	21918
878.441	21934
878.568	21930
878.696	21994
878.824	21964
878.951	22086
879.079	22154
879.206	22341
879.333	22139
879.461	21998
879.588	22128
879.715	22246
879.842	22341
879.97	22025
880.097	21835
880.224	21797
880.351	21857
880.478	21789
880.605	21880
880.732	21823
880.859	22093
880.986	21937
881.112	21869
881.239	21622
881.366	21500
881.493	21542
881.619	21412
881.746	21424
881.872	21500
881.999	21397
882.125	21317
882.252	21488
882.378	21382
882.505	21504
882.631	21302
882.757	21203
882.883	21146
883.01	21157
883.136	21150
883.262	21123
883.388	20895
883.514	21142
883.64	21058
883.766	21013
883.892	20830
884.018	20975
884.143	21047
884.269	21077
884.395	20792
884.52	20811
884.646	20777
884.772	20750
884.897	20667
885.023	20693
885.148	20845
885.274	20921
885.399	20876
885.524	20617
885.65	20682
885.775	20891
885.9	20697
886.025	20834
886.15	20769
886.275	20712
886.4	20689
886.525	20720
886.65	20606
886.775	20701
886.9	20765
887.025	20975
887.149	20804
887.274	20640
887.399	20549
887.523	20568
887.648	20457
887.773	20393
887.897	20606
888.021	20488
888.146	20366
888.27	20560
888.395	20556
888.519	20492
888.643	20545
888.767	20556
888.891	20484
889.015	20343
889.139	20343
889.263	20271
889.387	20492
889.511	20613
889.635	20457
889.759	20347
889.883	20377
890.006	20282
890.13	20492
890.254	20267
890.377	20313
890.501	20100
890.624	20111
890.748	20153
890.871	20027
890.995	19879
891.118	19818
891.241	19955
891.364	19830
891.488	20001
891.611	19868
891.734	19883
891.857	19936
891.98	19955
892.103	19967
892.226	19982
892.349	19849
892.471	19696
892.594	19849
892.717	19890
892.839	19947
892.962	19753
893.085	20024
893.207	19753
893.33	19761
893.452	19575
893.575	19826
893.697	19830
893.819	19864
893.941	19986
894.064	19940
894.186	19708
894.308	19719
894.43	19837
894.552	19940
894.674	19757
894.796	19765
894.918	19765
895.04	19936
895.161	19955
895.283	19875
895.405	19799
895.526	19833
895.648	19845
895.769	19860
895.891	19818
896.012	19826
896.134	19845
896.255	19826
896.376	19761
896.498	19799
896.619	19898
896.74	19807
896.861	19791
896.982	20103
897.103	20218
897.224	19974
897.345	19947
897.466	19936
897.587	20107
897.708	20218
897.828	20069
897.949	19959
898.07	19883
898.19	19902
898.311	19982
898.431	19936
898.552	19936
898.672	20043
898.792	20046
898.913	20100
899.033	20001
899.153	19814
899.273	19601
899.393	19803
899.513	19864
899.633	19811
899.753	19784
899.873	19738
899.993	19803
900.113	19757
900.232	19681
900.352	19704
900.472	19540
900.591	19567
900.711	19616
900.83	19537
900.95	19578
901.069	19647
901.189	19415
901.308	19255
901.427	19198
901.546	19095
901.665	19217
901.784	19069
901.904	19027
902.023	18951
902.141	18700
902.26	18711
902.379	18719
902.498	18719
902.617	18715
902.735	18616
902.854	18669
902.973	18563
903.091	18422
903.21	18258
903.328	18384
903.446	18167
903.565	18194
903.683	18121
903.801	18098
903.919	18201
904.038	18148
904.156	17897
904.274	18030
904.392	17874
904.51	17882
904.627	17798
904.745	17931
904.863	17866
904.981	17809
905.098	17581
905.216	17539
905.334	17520
905.451	17512
905.569	17562
905.686	17619
905.803	17646
905.921	17459
906.038	17551
906.155	17509
906.272	17204
906.389	17326
906.506	17296
906.623	17090
906.74	17178
906.857	16972
906.974	16999
907.091	17151
907.208	17185
907.324	17136
907.441	17079
907.557	16946
907.674	16930
907.79	16858
907.907	16854
908.023	16911
908.139	16885
908.256	16790
908.372	16733
908.488	16748
908.604	16596
908.72	16622
908.836	16626
908.952	16584
909.068	16531
909.184	16664
909.3	16485
909.415	16649
909.531	16630
909.647	16280
909.762	16295
909.878	16253
909.993	16310
910.108	16344
910.224	16329
910.339	16211
910.454	16234
910.57	16128
910.685	16044
910.8	16337
910.915	16424
911.03	16131
911.145	15888
911.259	15850
911.374	15880
911.489	15854
911.604	15698
911.718	15587
911.833	15709
911.947	15660
912.062	15458
912.176	15572
912.291	15762
912.405	15568
912.519	15770
912.633	15819
912.748	15656
912.862	15747
912.976	15515
913.09	15412
913.204	15473
913.318	15412
913.431	15625
913.545	15572
913.659	15610
913.772	15454
913.886	15310
914	15336
914.113	15294
914.226	15374
914.34	15401
914.453	15218
914.566	15275
914.68	15180
914.793	15112
914.906	14994
915.019	15055
915.132	14864
915.245	14918
915.358	14990
915.47	14880
915.583	14948
915.696	15032
915.809	15005
915.921	15001
916.034	14925
916.146	14849
916.259	14739
916.371	14914
916.483	14830
916.595	14804
916.708	14712
916.82	14667
916.932	14792
917.044	14689
917.156	14708
917.268	14579
917.38	14613
917.491	14533
917.603	14518
917.715	14655
917.826	14667
917.938	14530
918.049	14431
918.161	14450
918.272	14625
918.384	14655
918.495	14556
918.606	14431
918.717	14324
918.828	14442
918.939	14366
919.05	14259
919.161	14332
919.272	14191
919.383	14199
919.494	14366
919.604	14514
919.715	14259
919.826	14218
919.936	14294
920.047	14400
920.157	14336
920.267	14503
920.378	14351
920.488	14267
920.598	14427
920.708	14682
920.818	14454
920.928	14484
921.038	14602
921.148	14530
921.258	14240
921.368	14183
921.477	14119
921.587	13978
921.697	13860
921.806	14031
921.916	13894
922.025	13723
922.134	13723
922.244	13677
922.353	13620
922.462	13651
922.571	13331
922.68	13419
922.789	13369
922.898	13343
923.007	13289
923.116	13460
923.224	13270
923.333	13171
923.442	13183
923.55	13122
923.659	13179
923.767	13263
923.876	13122
923.984	13149
924.092	13076
924.201	13152
924.309	13076
924.417	13042
924.525	13023
924.633	12970
924.741	14020
924.849	12859
924.956	12909
925.064	12715
925.172	12776
925.279	12749
925.387	12760
925.494	12787
925.602	12928
925.709	12817
925.816	12696
925.924	12734
926.031	12825
926.138	12673
926.245	12772
926.352	12696
926.459	12760
926.566	12753
926.673	12627
926.779	12479
926.886	12555
926.993	12407
927.099	12407
927.206	12342
927.312	12289
927.419	12342
927.525	12296
927.631	12346
927.737	12205
927.843	12205
927.95	11999
928.056	12159
928.162	12213
928.267	12216
928.373	12677
928.479	12213
928.585	12015
928.69	12098
928.796	12167
928.901	11988
929.007	11908
929.112	11923
929.218	11965
929.323	11889
929.428	11870
929.533	12121
929.638	11832
929.743	11760
929.848	11992
929.953	11836
930.058	11737
930.163	11577
930.267	11642
930.372	11699
930.477	11596
930.581	11851
930.685	11630
930.79	11478
930.894	11532
930.998	11547
931.103	11592
931.207	11185
931.311	11212
931.415	11105
931.519	10820
931.623	10858
