Data from test_V78500241_1323.txt Node
Date: Fri Mar 25 15:19:04 CST 2022
User: usil
Spectrometer: V785-0024
Trigger mode: 0
Integration Time (sec): 4.000000E-1
Scans to average: 1
Nonlinearity correction enabled: false
Boxcar width: 0
Storing dark spectrum: false
XAxis mode: Wavelengths
Number of Pixels in Spectrum: 1024
>>>>>Begin Spectral Data<<<<<
801.071	27934
801.214	27964
801.356	27614
801.499	27717
801.641	27572
801.783	27481
801.926	27393
802.068	27515
802.211	27450
802.353	27256
802.496	27233
802.638	27260
802.78	27188
802.923	27089
803.065	27043
803.208	27036
803.35	27093
803.492	27302
803.635	27275
803.777	27272
803.919	27363
804.061	27755
804.204	27386
804.346	27245
804.488	27214
804.63	27397
804.773	27260
804.915	27374
805.057	27469
805.199	27329
805.341	27435
805.483	27488
805.626	27496
805.768	27473
805.91	27344
806.052	27447
806.194	27435
806.336	27747
806.478	27515
806.62	27397
806.762	27557
806.904	27774
807.046	27945
807.188	27865
807.33	27694
807.472	28063
807.614	27831
807.756	27838
807.898	27800
808.04	27679
808.182	27774
808.324	27812
808.465	27835
808.607	27941
808.749	28154
808.891	28192
809.033	28325
809.174	27983
809.316	28078
809.458	27922
809.6	28242
809.741	28287
809.883	28466
810.025	28386
810.166	28322
810.308	28455
810.45	28478
810.591	28287
810.733	28188
810.875	28109
811.016	28082
811.158	27972
811.299	28344
811.441	28112
811.582	28204
811.724	28169
811.865	28021
812.007	28135
812.148	28105
812.29	28166
812.431	28348
812.573	28508
812.714	28565
812.855	28675
812.997	28771
813.138	28900
813.279	28831
813.421	28736
813.562	28691
813.703	28557
813.845	28352
813.986	28002
814.127	27922
814.268	27876
814.41	27709
814.551	27766
814.692	27854
814.833	27797
814.974	27823
815.115	27823
815.256	27682
815.397	27644
815.539	27530
815.68	27591
815.821	27443
815.962	27667
816.103	27564
816.244	27542
816.385	27424
816.526	27351
816.666	27302
816.807	27077
816.948	27127
817.089	27294
817.23	27157
817.371	27066
817.512	27047
817.653	27203
817.793	26986
817.934	27047
818.075	27112
818.216	27131
818.356	27070
818.497	26918
818.638	26819
818.778	26834
818.919	26876
819.06	26883
819.2	27032
819.341	27066
819.481	27020
819.622	27302
819.762	27378
819.903	27477
820.043	27279
820.184	27241
820.324	27256
820.465	27370
820.605	27173
820.746	27142
820.886	27146
821.026	27245
821.167	27237
821.307	27195
821.447	27169
821.588	26830
821.728	26910
821.868	26777
822.008	26613
822.149	26594
822.289	26568
822.429	26389
822.569	26210
822.709	26377
822.849	26039
822.99	26119
823.13	26142
823.27	26008
823.41	25997
823.55	25917
823.69	25795
823.83	25894
823.97	25852
824.11	25795
824.25	25769
824.389	25818
824.529	25788
824.669	25795
824.809	25898
824.949	25909
825.089	25909
825.228	25765
825.368	25700
825.508	25586
825.648	25567
825.787	25628
825.927	25628
826.067	25689
826.206	25655
826.346	25772
826.485	25658
826.625	25670
826.765	25757
826.904	25639
827.044	25460
827.183	25407
827.323	25327
827.462	25365
827.601	25354
827.741	25392
827.88	25278
828.02	25301
828.159	25403
828.298	25335
828.437	25487
828.577	25350
828.716	25384
828.855	25312
828.994	24913
829.134	25072
829.273	25160
829.412	25080
829.551	25027
829.69	25099
829.829	25133
829.968	25065
830.107	25076
830.246	24924
830.385	25023
830.524	24894
830.663	24783
830.802	24829
830.941	24661
831.08	24635
831.219	24878
831.357	24856
831.496	24798
831.635	24810
831.774	24604
831.913	24433
832.051	24505
832.19	24528
832.329	24620
832.467	24464
832.606	24258
832.744	24361
832.883	24304
833.022	24486
833.16	24228
833.299	24403
833.437	24441
833.576	24426
833.714	24289
833.852	24410
833.991	24532
834.129	24559
834.267	24467
834.406	24399
834.544	24528
834.682	24460
834.821	24327
834.959	24578
835.097	24372
835.235	24570
835.373	24471
835.511	24414
835.65	24254
835.788	24273
835.926	24136
836.064	24209
836.202	24053
836.34	24129
836.478	24315
836.615	24197
836.753	24429
836.891	24201
837.029	24338
837.167	24285
837.305	24152
837.443	24205
837.58	24038
837.718	24083
837.856	23999
837.993	23961
838.131	24148
838.269	23935
838.406	23908
838.544	23935
838.681	23733
838.819	23707
838.956	23630
839.094	23611
839.231	23512
839.369	23836
839.506	23813
839.643	23840
839.781	23493
839.918	23490
840.055	23535
840.193	23531
840.33	23345
840.467	23509
840.604	23554
840.742	23794
840.879	23459
841.016	23448
841.153	23383
841.29	23577
841.427	23372
841.564	23493
841.701	23391
841.838	23299
841.975	23280
842.112	23341
842.249	23239
842.385	23166
842.522	23535
842.659	23288
842.796	23242
842.933	23334
843.069	23235
843.206	23178
843.343	23261
843.479	23117
843.616	23231
843.752	22991
843.889	23052
844.025	23185
844.162	22885
844.298	23048
844.435	22953
844.571	22961
844.708	22999
844.844	23170
844.98	23181
845.117	23159
845.253	22949
845.389	22847
845.525	22934
845.661	22668
845.798	22660
845.934	22694
846.07	22672
846.206	22843
846.342	22889
846.478	22790
846.614	22637
846.75	22322
846.886	22535
847.022	22550
847.158	22504
847.294	22516
847.429	22500
847.565	22436
847.701	22603
847.837	22249
847.972	22078
848.108	22295
848.244	22280
848.379	22055
848.515	22036
848.65	21903
848.786	22067
848.921	22105
849.057	22139
849.192	22109
849.328	22112
849.463	22101
849.598	21915
849.734	21899
849.869	21789
850.004	21854
850.14	21865
850.275	21770
850.41	21755
850.545	21789
850.68	21732
850.815	21888
850.95	21793
851.085	21979
851.22	21850
851.355	21774
851.49	21679
851.625	21785
851.76	21713
851.895	21778
852.03	21774
852.165	21827
852.299	21739
852.434	21922
852.569	21835
852.703	21800
852.838	21861
852.973	21873
853.107	21964
853.242	21747
853.376	21751
853.511	21572
853.645	21652
853.78	21747
853.914	21622
854.048	21576
854.183	21595
854.317	21603
854.451	21800
854.585	21561
854.72	21515
854.854	21732
854.988	21618
855.122	21671
855.256	21549
855.39	21793
855.524	21568
855.658	21648
855.792	21622
855.926	21667
856.06	21694
856.194	21686
856.327	21515
856.461	21458
856.595	21618
856.729	21580
856.862	21838
856.996	21690
857.13	21682
857.263	21819
857.397	21557
857.53	21671
857.664	21633
857.797	21675
857.931	21603
858.064	21698
858.197	21622
858.331	21614
858.464	21603
858.597	21428
858.731	21595
858.864	21504
858.997	21583
859.13	21656
859.263	21656
859.396	21644
859.529	21732
859.662	21641
859.795	21603
859.928	21610
860.061	21781
860.194	21804
860.327	21644
860.46	21549
860.592	21816
860.725	21667
860.858	21641
860.99	21538
861.123	21542
861.256	21519
861.388	21492
861.521	22310
861.653	21443
861.786	21408
861.918	21416
862.05	21515
862.183	21507
862.315	21610
862.447	21447
862.58	21530
862.712	21249
862.844	21283
862.976	21344
863.108	21329
863.24	21633
863.372	21325
863.504	21325
863.636	21374
863.768	21283
863.9	21321
864.032	21165
864.164	21283
864.296	21378
864.428	21397
864.559	21424
864.691	21485
864.823	21329
864.954	21363
865.086	21336
865.217	21283
865.349	21104
865.48	21214
865.612	21287
865.743	21291
865.875	21195
866.006	21119
866.137	21222
866.269	21272
866.4	21260
866.531	21017
866.662	21192
866.793	20990
866.924	21138
867.055	21131
867.186	21165
867.317	21032
867.448	21157
867.579	21085
867.71	21104
867.841	21024
867.972	21180
868.103	21104
868.233	21176
868.364	21093
868.495	21264
868.625	21230
868.756	21599
868.886	21256
869.017	21272
869.147	21359
869.278	21431
869.408	21382
869.539	21450
869.669	21313
869.799	21313
869.929	21542
870.06	21416
870.19	21633
870.32	21511
870.45	21743
870.58	21701
870.71	21816
870.84	21804
870.97	21816
871.1	21816
871.23	21922
871.36	21926
871.489	21785
871.619	21945
871.749	21968
871.879	21983
872.008	22090
872.138	22051
872.267	21941
872.397	21800
872.526	21823
872.656	21812
872.785	21705
872.915	21979
873.044	22150
873.173	21895
873.303	22006
873.432	21983
873.561	22101
873.69	22032
873.819	21876
873.948	21991
874.077	22040
874.206	21846
874.335	21857
874.464	22143
874.593	22226
874.722	22128
874.851	22204
874.979	22177
875.108	22261
875.237	22086
875.365	22192
875.494	22185
875.623	22272
875.751	22200
875.88	22181
876.008	22398
876.136	22386
876.265	22698
876.393	22672
876.521	22622
876.65	22698
876.778	22622
876.906	22508
877.034	22546
877.162	22687
877.29	22398
877.418	22550
877.546	22630
877.674	22436
877.802	22565
877.93	22611
878.058	22478
878.185	22588
878.313	22455
878.441	22535
878.568	22508
878.696	22512
878.824	22561
878.951	22599
879.079	22668
879.206	22790
879.333	22694
879.461	22512
879.588	22717
879.715	22759
879.842	22904
879.97	22660
880.097	22337
880.224	22318
880.351	22478
880.478	22478
880.605	22356
880.732	22371
880.859	22550
880.986	22363
881.112	22337
881.239	22265
881.366	22090
881.493	21987
881.619	21865
881.746	21953
881.872	22086
881.999	21930
882.125	21926
882.252	21972
882.378	21899
882.505	22051
882.631	21857
882.757	21842
882.883	21637
883.01	21652
883.136	21675
883.262	21557
883.388	21416
883.514	21652
883.64	21732
883.766	21603
883.892	21374
884.018	21530
884.143	21568
884.269	21496
884.395	21466
884.52	21264
884.646	21275
884.772	21188
884.897	21146
885.023	21169
885.148	21462
885.274	21454
885.399	21416
885.524	21340
885.65	21321
885.775	21260
885.9	21275
886.025	21462
886.15	21378
886.275	21241
886.4	21169
886.525	21268
886.65	21176
886.775	21249
886.9	21313
887.025	21466
887.149	21252
887.274	20994
887.399	21085
887.523	21066
887.648	21028
887.773	20944
887.897	21150
888.021	21077
888.146	20982
888.27	21241
888.395	21062
888.519	21169
888.643	21001
888.767	21047
888.891	21001
889.015	20902
889.139	20872
889.263	20785
889.387	20933
889.511	21013
889.635	20956
889.759	20857
889.883	20845
890.006	20838
890.13	20887
890.254	20804
890.377	20651
890.501	20564
890.624	20461
890.748	20552
890.871	20488
890.995	20511
891.118	20301
891.241	20412
891.364	20355
891.488	20590
891.611	20385
891.734	20427
891.857	20492
891.98	20396
892.103	20507
892.226	20450
892.349	20374
892.471	20138
892.594	20377
892.717	20275
892.839	20370
892.962	20431
893.085	20389
893.207	20313
893.33	20263
893.452	20237
893.575	20415
893.697	20309
893.819	20560
893.941	20465
894.064	20518
894.186	20351
894.308	20233
894.43	20377
894.552	20366
894.674	20438
894.796	20324
894.918	20298
895.04	20259
895.161	20434
895.283	20400
895.405	20214
895.526	20336
895.648	20309
895.769	20309
895.891	20263
896.012	20366
896.134	20256
896.255	20286
896.376	20221
896.498	20290
896.619	20389
896.74	20317
896.861	20366
896.982	20701
897.103	20701
897.224	20552
897.345	20560
897.466	20476
897.587	20480
897.708	20587
897.828	20655
897.949	20518
898.07	20317
898.19	20347
898.311	20499
898.431	20457
898.552	20511
898.672	20571
898.792	20617
898.913	20526
899.033	20454
899.153	20248
899.273	20195
899.393	20187
899.513	20271
899.633	20294
899.753	20324
899.873	20138
899.993	20317
900.113	20092
900.232	20233
900.352	20138
900.472	20142
900.591	20043
900.711	20050
900.83	19921
900.95	20077
901.069	20107
901.189	19883
901.308	19780
901.427	19632
901.546	19708
901.665	19590
901.784	19689
901.904	19422
902.023	19381
902.141	19225
902.26	19076
902.379	19228
902.498	19190
902.617	19046
902.735	19095
902.854	19065
902.973	19046
903.091	18825
903.21	18882
903.328	18863
903.446	18753
903.565	18551
903.683	18654
903.801	18517
903.919	18582
904.038	18555
904.156	18369
904.274	18467
904.392	18384
904.51	18357
904.627	18475
904.745	18422
904.863	18403
904.981	18144
905.098	18019
905.216	18045
905.334	18152
905.451	18034
905.569	18049
905.686	18152
905.803	18030
905.921	17786
906.038	17893
906.155	17821
906.272	17737
906.389	17729
906.506	17554
906.623	17535
906.74	17577
906.857	17497
906.974	17444
907.091	17585
907.208	17672
907.324	17566
907.441	17429
907.557	17429
907.674	17318
907.79	17330
907.907	17307
908.023	17292
908.139	17337
908.256	17273
908.372	17128
908.488	17147
908.604	17003
908.72	16976
908.836	16980
908.952	16930
909.068	17003
909.184	17048
909.3	16984
909.415	17022
909.531	16995
909.647	16725
909.762	16710
909.878	16694
909.993	16767
910.108	16694
910.224	16603
910.339	16725
910.454	16573
910.57	16527
910.685	16462
910.8	16740
910.915	16706
911.03	16470
911.145	16253
911.259	16352
911.374	16291
911.489	16314
911.604	16200
911.718	16109
911.833	16139
911.947	15945
912.062	15846
912.176	16048
912.291	16105
912.405	16013
912.519	16234
912.633	16230
912.748	16109
912.862	16006
912.976	15899
913.09	15838
913.204	15751
913.318	15876
913.431	15953
913.545	15945
913.659	16025
913.772	15762
913.886	15694
914	15690
914.113	15694
914.226	15739
914.34	15690
914.453	15629
914.566	15698
914.68	15599
914.793	15424
914.906	15386
915.019	15291
915.132	15195
915.245	15283
915.358	15294
915.47	15256
915.583	15275
915.696	15317
915.809	15363
915.921	15340
916.034	15119
916.146	15127
916.259	15112
916.371	15199
916.483	15127
916.595	15058
916.708	15055
916.82	15028
916.932	15032
917.044	14971
917.156	15024
917.268	14883
917.38	14876
917.491	14826
917.603	14883
917.715	14944
917.826	15070
917.938	14853
918.049	14796
918.161	14769
918.272	15024
918.384	14967
918.495	14777
918.606	14667
918.717	14640
918.828	14602
918.939	14678
919.05	14579
919.161	14678
919.272	14442
919.383	14518
919.494	14716
919.604	14804
919.715	14613
919.826	14549
919.936	14571
920.047	14727
920.157	14552
920.267	14762
920.378	14625
920.488	14552
920.598	14769
920.708	14960
920.818	14727
920.928	14777
921.038	14834
921.148	14887
921.258	14587
921.368	14404
921.477	14313
921.587	14290
921.697	14229
921.806	14286
921.916	14195
922.025	14081
922.134	14043
922.244	13928
922.353	14008
922.462	13883
922.571	13845
922.68	13655
922.789	13670
922.898	13666
923.007	13529
923.116	13575
923.224	13525
923.333	13548
923.442	13491
923.55	13544
923.659	13476
923.767	13525
923.876	13422
923.984	13582
924.092	13407
924.201	13365
924.309	13388
924.417	13251
924.525	13236
924.633	13206
924.741	14195
924.849	13145
924.956	13255
925.064	13103
925.172	12993
925.279	13084
925.387	13065
925.494	12954
925.602	13164
925.709	13141
925.816	12875
925.924	13027
926.031	13107
926.138	12973
926.245	13091
926.352	12977
926.459	13008
926.566	13000
926.673	12905
926.779	12783
926.886	12810
926.993	12639
927.099	12627
927.206	12578
927.312	12551
927.419	12608
927.525	12593
927.631	12658
927.737	12452
927.843	12426
927.95	12289
928.056	12410
928.162	12441
928.267	12433
928.373	13046
928.479	12448
928.585	12239
928.69	12399
928.796	12448
928.901	12262
929.007	12129
929.112	12353
929.218	12243
929.323	12148
929.428	12178
929.533	12311
929.638	12194
929.743	12079
929.848	12106
929.953	12114
930.058	11980
930.163	11878
930.267	11847
930.372	12034
930.477	11775
930.581	12068
930.685	11904
930.79	11733
930.894	11729
930.998	11691
931.103	11809
931.207	11459
931.311	11391
931.415	11273
931.519	11162
931.623	11083
