Data from test_V78500241_3458.txt Node
Date: Fri Mar 25 15:33:56 CST 2022
User: usil
Spectrometer: V785-0024
Trigger mode: 0
Integration Time (sec): 4.000000E-1
Scans to average: 1
Nonlinearity correction enabled: false
Boxcar width: 0
Storing dark spectrum: false
XAxis mode: Wavelengths
Number of Pixels in Spectrum: 1024
>>>>>Begin Spectral Data<<<<<
801.071	27272
801.214	27157
801.356	27024
801.499	26861
801.641	26792
801.783	26845
801.926	26914
802.068	26754
802.211	26659
802.353	26571
802.496	26511
802.638	26484
802.78	26362
802.923	26206
803.065	26168
803.208	26237
803.35	26317
803.492	26408
803.635	26480
803.777	26374
803.919	26438
804.061	26876
804.204	26549
804.346	26488
804.488	26522
804.63	26461
804.773	26298
804.915	26476
805.057	26678
805.199	26514
805.341	26644
805.483	26560
805.626	26674
805.768	26568
805.91	26518
806.052	26648
806.194	26571
806.336	26838
806.478	26632
806.62	26606
806.762	26834
806.904	26785
807.046	27165
807.188	27116
807.33	27024
807.472	27077
807.614	27001
807.756	26982
807.898	26758
808.04	26667
808.182	26868
808.324	26914
808.465	27032
808.607	27024
808.749	27203
808.891	27367
809.033	27298
809.174	27272
809.316	27207
809.458	27218
809.6	27142
809.741	27279
809.883	27325
810.025	27504
810.166	27618
810.308	27466
810.45	27496
810.591	27389
810.733	27272
810.875	27085
811.016	27142
811.158	27176
811.299	27378
811.441	27378
811.582	27348
811.724	27211
811.865	27112
812.007	27188
812.148	27332
812.29	27287
812.431	27447
812.573	27447
812.714	27466
812.855	27713
812.997	27682
813.138	27972
813.279	27876
813.421	27656
813.562	27747
813.703	27374
813.845	27291
813.986	27161
814.127	27070
814.268	26807
814.41	26895
814.551	26861
814.692	26940
814.833	26842
814.974	26777
815.115	26762
815.256	26674
815.397	26716
815.539	26705
815.68	26598
815.821	26526
815.962	26667
816.103	26598
816.244	26499
816.385	26389
816.526	26427
816.666	26183
816.807	26107
816.948	26043
817.089	26347
817.23	26164
817.371	25986
817.512	26062
817.653	26039
817.793	26103
817.934	25955
818.075	26164
818.216	26107
818.356	26100
818.497	25959
818.638	25868
818.778	25788
818.919	25788
819.06	25902
819.2	26134
819.341	26142
819.481	26138
819.622	26347
819.762	26423
819.903	26218
820.043	26221
820.184	26290
820.324	26138
820.465	26252
820.605	26107
820.746	26237
820.886	26081
821.026	26218
821.167	26001
821.307	26210
821.447	26020
821.588	25951
821.728	25860
821.868	25700
822.008	25727
822.149	25651
822.289	25537
822.429	25244
822.569	25225
822.709	25255
822.849	25206
822.99	25168
823.13	24977
823.27	25122
823.41	24886
823.55	24783
823.69	24726
823.83	24787
823.97	24863
824.11	24616
824.25	24711
824.389	24829
824.529	24814
824.669	24757
824.809	24829
824.949	24863
825.089	24787
825.228	24692
825.368	24509
825.508	24574
825.648	24521
825.787	24555
825.927	24635
826.067	24703
826.206	24608
826.346	24646
826.485	24646
826.625	24521
826.765	24810
826.904	24669
827.044	24235
827.183	24403
827.323	24285
827.462	24464
827.601	24376
827.741	24338
827.88	24315
828.02	24262
828.159	24266
828.298	24334
828.437	24452
828.577	24194
828.716	24460
828.855	24197
828.994	24003
829.134	23939
829.273	24072
829.412	24011
829.551	23980
829.69	24038
829.829	24079
829.968	24003
830.107	23992
830.246	24007
830.385	23920
830.524	23828
830.663	23809
830.802	23790
830.941	23748
831.08	23627
831.219	23714
831.357	23672
831.496	23771
831.635	23623
831.774	23604
831.913	23570
832.051	23493
832.19	23478
832.329	23322
832.467	23376
832.606	23204
832.744	23235
832.883	23345
833.022	23220
833.16	23391
833.299	23417
833.437	23273
833.576	23254
833.714	23360
833.852	23414
833.991	23570
834.129	23497
834.267	23414
834.406	23467
834.544	23436
834.682	23379
834.821	23288
834.959	23539
835.097	23406
835.235	23433
835.373	23379
835.511	23398
835.65	23277
835.788	23200
835.926	22946
836.064	23029
836.202	23166
836.34	23269
836.478	23273
836.615	23181
836.753	23220
836.891	23231
837.029	23269
837.167	23174
837.305	23178
837.443	23098
837.58	23166
837.718	23223
837.856	23140
837.993	22995
838.131	23079
838.269	22965
838.406	23025
838.544	22965
838.681	22710
838.819	22717
838.956	22557
839.094	22538
839.231	22736
839.369	22858
839.506	23010
839.643	22828
839.781	22637
839.918	22516
840.055	22687
840.193	22508
840.33	22516
840.467	22630
840.604	22546
840.742	22740
840.879	22436
841.016	22508
841.153	22363
841.29	22653
841.427	22424
841.564	22588
841.701	22417
841.838	22394
841.975	22356
842.112	22386
842.249	22379
842.385	22253
842.522	22478
842.659	22325
842.796	22348
842.933	22234
843.069	22272
843.206	22280
843.343	22284
843.479	22253
843.616	22287
843.752	22196
843.889	22173
844.025	22120
844.162	21979
844.298	22204
844.435	22029
844.571	21907
844.708	22116
844.844	22261
844.98	22200
845.117	22219
845.253	21983
845.389	21930
845.525	21945
845.661	21968
845.798	21793
845.934	21903
846.07	21694
846.206	21838
846.342	21964
846.478	21857
846.614	21599
846.75	21583
846.886	21583
847.022	21667
847.158	21572
847.294	21481
847.429	21724
847.565	21504
847.701	21857
847.837	21287
847.972	21313
848.108	21408
848.244	21393
848.379	21165
848.515	21154
848.65	21108
848.786	21081
848.921	21192
849.057	21222
849.192	21321
849.328	21104
849.463	21195
849.598	21108
849.734	21085
849.869	21024
850.004	20979
850.14	20830
850.275	20853
850.41	20731
850.545	20944
850.68	20986
850.815	21013
850.95	20933
851.085	21089
851.22	20941
851.355	20925
851.49	20906
851.625	20853
851.76	20834
851.895	20830
852.03	20796
852.165	21005
852.299	20895
852.434	20975
852.569	20815
852.703	21055
852.838	21036
852.973	21123
853.107	21001
853.242	20785
853.376	20777
853.511	20575
853.645	20754
853.78	20773
853.914	20727
854.048	20697
854.183	20583
854.317	20739
854.451	20994
854.585	20724
854.72	20853
854.854	20800
854.988	20644
855.122	20819
855.256	20686
855.39	20746
855.524	20792
855.658	20701
855.792	20716
855.926	20731
856.06	20659
856.194	20754
856.327	20716
856.461	20613
856.595	20670
856.729	20689
856.862	20838
856.996	20769
857.13	20769
857.263	20857
857.397	20758
857.53	20701
857.664	20815
857.797	20777
857.931	20781
858.064	20708
858.197	20781
858.331	20689
858.464	20762
858.597	20488
858.731	20811
858.864	20651
858.997	20629
859.13	20674
859.263	20743
859.396	20826
859.529	20754
859.662	20731
859.795	20689
859.928	20716
860.061	20937
860.194	20899
860.327	20712
860.46	20872
860.592	20845
860.725	20872
860.858	20807
860.99	20686
861.123	20636
861.256	20663
861.388	20689
861.521	21545
861.653	20575
861.786	20549
861.918	20571
862.05	20613
862.183	20632
862.315	20602
862.447	20701
862.58	20594
862.712	20454
862.844	20389
862.976	20484
863.108	20556
863.24	20845
863.372	20320
863.504	20552
863.636	20484
863.768	20541
863.9	20484
864.032	20404
864.164	20526
864.296	20400
864.428	20556
864.559	20503
864.691	20469
864.823	20488
864.954	20431
865.086	20324
865.217	20492
865.349	20313
865.48	20404
865.612	20412
865.743	20343
865.875	20271
866.006	20351
866.137	20282
866.269	20343
866.4	20419
866.531	20313
866.662	20320
866.793	20259
866.924	20328
867.055	20332
867.186	20275
867.317	20180
867.448	20161
867.579	20221
867.71	20187
867.841	20218
867.972	20298
868.103	20313
868.233	20240
868.364	20336
868.495	20492
868.625	20469
868.756	20609
868.886	20366
869.017	20632
869.147	20556
869.278	20598
869.408	20545
869.539	20522
869.669	20590
869.799	20590
869.929	20552
870.06	20625
870.19	20834
870.32	20872
870.45	20815
870.58	21005
870.71	21043
870.84	21066
870.97	20864
871.1	20891
871.23	21077
871.36	21207
871.489	20994
871.619	21013
871.749	21150
871.879	21127
872.008	21211
872.138	21077
872.267	21077
872.397	21062
872.526	20990
872.656	21039
872.785	20910
872.915	21241
873.044	21287
873.173	21176
873.303	21192
873.432	21180
873.561	21077
873.69	21241
873.819	21154
873.948	21112
874.077	21150
874.206	21138
874.335	21138
874.464	21260
874.593	21382
874.722	21294
874.851	21485
874.979	21408
875.108	21336
875.237	21370
875.365	21367
875.494	21462
875.623	21496
875.751	21370
875.88	21291
876.008	21443
876.136	21583
876.265	21778
876.393	21907
876.521	21907
876.65	21915
876.778	21831
876.906	21679
877.034	21755
877.162	21751
877.29	21622
877.418	21728
877.546	21800
877.674	21903
877.802	21701
877.93	21808
878.058	21675
878.185	21618
878.313	21728
878.441	21709
878.568	21709
878.696	21724
878.824	21793
878.951	21838
879.079	22010
879.206	22067
879.333	21945
879.461	21907
879.588	21846
879.715	21774
879.842	22093
879.97	21747
880.097	21572
880.224	21652
880.351	21622
880.478	21610
880.605	21576
880.732	21538
880.859	21698
880.986	21724
881.112	21515
881.239	21386
881.366	21199
881.493	21211
881.619	21074
881.746	21173
881.872	21192
881.999	21131
882.125	21085
882.252	21222
882.378	21214
882.505	21226
882.631	21013
882.757	20929
882.883	20899
883.01	20876
883.136	20800
883.262	20735
883.388	20686
883.514	20853
883.64	20804
883.766	20765
883.892	20678
884.018	20678
884.143	20849
884.269	20891
884.395	20708
884.52	20492
884.646	20488
884.772	20469
884.897	20457
885.023	20552
885.148	20663
885.274	20636
885.399	20625
885.524	20495
885.65	20564
885.775	20480
885.9	20438
886.025	20541
886.15	20522
886.275	20446
886.4	20404
886.525	20476
886.65	20465
886.775	20454
886.9	20625
887.025	20743
887.149	20514
887.274	20381
887.399	20271
887.523	20237
887.648	20183
887.773	20100
887.897	20263
888.021	20336
888.146	20172
888.27	20377
888.395	20294
888.519	20343
888.643	20339
888.767	20313
888.891	20149
889.015	20130
889.139	20122
889.263	20149
889.387	20100
889.511	20206
889.635	20183
889.759	20024
889.883	19978
890.006	20115
890.13	20172
890.254	19928
890.377	20077
890.501	19772
890.624	19849
890.748	20031
890.871	19742
890.995	19700
891.118	19647
891.241	19655
891.364	19734
891.488	19738
891.611	19662
891.734	19700
891.857	19712
891.98	19662
892.103	19822
892.226	19620
892.349	19548
892.471	19491
892.594	19700
892.717	19639
892.839	19575
892.962	19635
893.085	19571
893.207	19616
893.33	19590
893.452	19499
893.575	19597
893.697	19563
893.819	19784
893.941	19822
894.064	19693
894.186	19540
894.308	19487
894.43	19715
894.552	19738
894.674	19742
894.796	19567
894.918	19567
895.04	19510
895.161	19616
895.283	19632
895.405	19525
895.526	19548
895.648	19651
895.769	19514
895.891	19620
896.012	19769
896.134	19616
896.255	19651
896.376	19472
896.498	19540
896.619	19601
896.74	19578
896.861	19567
896.982	19776
897.103	20138
897.224	19856
897.345	19776
897.466	19670
897.587	19917
897.708	19883
897.828	19818
897.949	19738
898.07	19643
898.19	19685
898.311	19856
898.431	19757
898.552	19734
898.672	19849
898.792	19879
898.913	19765
899.033	19635
899.153	19571
899.273	19540
899.393	19575
899.513	19655
899.633	19616
899.753	19731
899.873	19506
899.993	19548
900.113	19430
900.232	19529
900.352	19537
900.472	19270
900.591	19369
900.711	19346
900.83	19225
900.95	19419
901.069	19460
901.189	19255
901.308	19038
901.427	18939
901.546	18939
901.665	19015
901.784	18871
901.904	18738
902.023	18696
902.141	18532
902.26	18475
902.379	18544
902.498	18471
902.617	18399
902.735	18426
902.854	18490
902.973	18357
903.091	18057
903.21	18098
903.328	18148
903.446	17984
903.565	17893
903.683	18083
903.801	17813
903.919	17851
904.038	17931
904.156	17687
904.274	17703
904.392	17760
904.51	17703
904.627	17722
904.745	17695
904.863	17779
904.981	17532
905.098	17353
905.216	17402
905.334	17471
905.451	17433
905.569	17372
905.686	17406
905.803	17265
905.921	17227
906.038	17265
906.155	17197
906.272	17140
906.389	17151
906.506	16934
906.623	17064
906.74	16892
906.857	16767
906.974	16866
907.091	17029
907.208	17003
907.324	16984
907.441	16984
907.557	16653
907.674	16691
907.79	16668
907.907	16679
908.023	16694
908.139	16611
908.256	16634
908.372	16489
908.488	16588
908.604	16375
908.72	16382
908.836	16379
908.952	16303
909.068	16493
909.184	16455
909.3	16375
909.415	16432
909.531	16284
909.647	16139
909.762	16093
909.878	15930
909.993	16086
910.108	16139
910.224	16112
910.339	16078
910.454	15960
910.57	15922
910.685	15831
910.8	16082
910.915	16143
911.03	15873
911.145	15724
911.259	15759
911.374	15603
911.489	15606
911.604	15572
911.718	15435
911.833	15507
911.947	15359
912.062	15329
912.176	15511
912.291	15408
912.405	15469
912.519	15648
912.633	15614
912.748	15428
912.862	15477
912.976	15287
913.09	15157
913.204	15237
913.318	15291
913.431	15412
913.545	15336
913.659	15447
913.772	15157
913.886	15203
914	15097
914.113	15157
914.226	15226
914.34	15169
914.453	14971
914.566	15089
914.68	14918
914.793	14910
914.906	14758
915.019	14712
915.132	14701
915.245	14689
915.358	14629
915.47	14716
915.583	14644
915.696	14712
915.809	14773
915.921	14807
916.034	14701
916.146	14682
916.259	14644
916.371	14640
916.483	14651
916.595	14431
916.708	14530
916.82	14442
916.932	14442
917.044	14457
917.156	14389
917.268	14286
917.38	14298
917.491	14408
917.603	14278
917.715	14400
917.826	14514
917.938	14271
918.049	14309
918.161	14191
918.272	14423
918.384	14393
918.495	14244
918.606	14020
918.717	14043
918.828	14153
918.939	14149
919.05	14119
919.161	14126
919.272	13898
919.383	14084
919.494	14164
919.604	14347
919.715	14180
919.826	14081
919.936	13986
920.047	14221
920.157	14168
920.267	14286
920.378	14084
920.488	14054
920.598	14183
920.708	14370
920.818	14343
920.928	14313
921.038	14370
921.148	14271
921.258	14054
921.368	13932
921.477	13871
921.587	13761
921.697	13601
921.806	13879
921.916	13643
922.025	13578
922.134	13502
922.244	13441
922.353	13434
922.462	13236
922.571	13350
922.68	13266
922.789	13137
922.898	13221
923.007	13183
923.116	13198
923.224	13110
923.333	13095
923.442	12939
923.55	12882
923.659	13023
923.767	13023
923.876	13004
923.984	13053
924.092	12867
924.201	12989
924.309	12833
924.417	12852
924.525	12783
924.633	12802
924.741	13761
924.849	12650
924.956	12711
925.064	12574
925.172	12525
925.279	12521
925.387	12631
925.494	12582
925.602	12715
925.709	12601
925.816	12471
925.924	12597
926.031	12620
926.138	12506
926.245	12589
926.352	12433
926.459	12608
926.566	12525
926.673	12555
926.779	12296
926.886	12346
926.993	12167
927.099	12133
927.206	12133
927.312	12022
927.419	12190
927.525	12106
927.631	12308
927.737	11996
927.843	12015
927.95	11923
928.056	11961
928.162	12015
928.267	12034
928.373	12612
928.479	12060
928.585	11866
928.69	11954
928.796	11988
928.901	11832
929.007	11726
929.112	11813
929.218	11882
929.323	11764
929.428	11684
929.533	11798
929.638	11672
929.743	11630
929.848	11676
929.953	11695
930.058	11543
930.163	11429
930.267	11474
930.372	11547
930.477	11395
930.581	11596
930.685	11459
930.79	11383
930.894	11364
930.998	11223
931.103	11455
931.207	11098
931.311	10953
931.415	10904
931.519	10717
931.623	10748
