Data from test_V78500241_2482.txt Node
Date: Fri Mar 25 15:27:08 CST 2022
User: usil
Spectrometer: V785-0024
Trigger mode: 0
Integration Time (sec): 4.000000E-1
Scans to average: 1
Nonlinearity correction enabled: false
Boxcar width: 0
Storing dark spectrum: false
XAxis mode: Wavelengths
Number of Pixels in Spectrum: 1024
>>>>>Begin Spectral Data<<<<<
801.071	27017
801.214	26971
801.356	26906
801.499	26758
801.641	26708
801.783	26815
801.926	26891
802.068	26682
802.211	26651
802.353	26514
802.496	26480
802.638	26450
802.78	26313
802.923	26210
803.065	26187
803.208	26172
803.35	26309
803.492	26400
803.635	26419
803.777	26415
803.919	26457
804.061	26781
804.204	26545
804.346	26415
804.488	26442
804.63	26514
804.773	26495
804.915	26488
805.057	26530
805.199	26336
805.341	26450
805.483	26674
805.626	26655
805.768	26518
805.91	26663
806.052	26503
806.194	26594
806.336	26686
806.478	26640
806.62	26556
806.762	26708
806.904	26880
807.046	27093
807.188	26887
807.33	27047
807.472	26956
807.614	26834
807.756	27009
807.898	26815
808.04	26739
808.182	26819
808.324	26861
808.465	26952
808.607	27005
808.749	27180
808.891	27211
809.033	27336
809.174	27211
809.316	27138
809.458	27203
809.6	27032
809.741	27272
809.883	27218
810.025	27378
810.166	27405
810.308	27488
810.45	27481
810.591	27348
810.733	27279
810.875	27188
811.016	27039
811.158	27070
811.299	27325
811.441	27378
811.582	27351
811.724	27275
811.865	27188
812.007	27138
812.148	27108
812.29	27169
812.431	27355
812.573	27332
812.714	27519
812.855	27633
812.997	27831
813.138	27907
813.279	27732
813.421	27622
813.562	27603
813.703	27561
813.845	27310
813.986	27074
814.127	26948
814.268	26857
814.41	26785
814.551	26708
814.692	26975
814.833	26727
814.974	26777
815.115	26811
815.256	26686
815.397	26678
815.539	26823
815.68	26598
815.821	26568
815.962	26716
816.103	26621
816.244	26613
816.385	26366
816.526	26320
816.666	26043
816.807	26039
816.948	26046
817.089	26172
817.23	26092
817.371	26115
817.512	26077
817.653	25982
817.793	25909
817.934	26073
818.075	26130
818.216	26202
818.356	26024
818.497	25906
818.638	25784
818.778	25738
818.919	25833
819.06	25951
819.2	25997
819.341	26020
819.481	26069
819.622	26282
819.762	26446
819.903	26320
820.043	26214
820.184	26115
820.324	26100
820.465	26305
820.605	26069
820.746	26187
820.886	26096
821.026	26199
821.167	26103
821.307	26126
821.447	25966
821.588	25917
821.728	25841
821.868	25696
822.008	25613
822.149	25479
822.289	25567
822.429	25274
822.569	25312
822.709	25183
822.849	25076
822.99	25000
823.13	25061
823.27	24996
823.41	24783
823.55	24779
823.69	24939
823.83	24909
823.97	24848
824.11	24753
824.25	24536
824.389	24597
824.529	24772
824.669	24654
824.809	24837
824.949	24741
825.089	24627
825.228	24783
825.368	24620
825.508	24513
825.648	24582
825.787	24547
825.927	24566
826.067	24544
826.206	24559
826.346	24620
826.485	24711
826.625	24589
826.765	24563
826.904	24669
827.044	24330
827.183	24407
827.323	24213
827.462	24407
827.601	24319
827.741	24243
827.88	24311
828.02	24140
828.159	24076
828.298	24281
828.437	24399
828.577	24365
828.716	24289
828.855	24178
828.994	23954
829.134	23935
829.273	24140
829.412	23927
829.551	23980
829.69	23920
829.829	23965
829.968	24129
830.107	24007
830.246	23980
830.385	23882
830.524	23859
830.663	23665
830.802	23699
830.941	23486
831.08	23535
831.219	23767
831.357	23596
831.496	23805
831.635	23619
831.774	23452
831.913	23474
832.051	23360
832.19	23444
832.329	23452
832.467	23269
832.606	23132
832.744	23181
832.883	23246
833.022	23185
833.16	23280
833.299	23315
833.437	23433
833.576	23383
833.714	23269
833.852	23410
833.991	23410
834.129	23334
834.267	23387
834.406	23307
834.544	23349
834.682	23376
834.821	23299
834.959	23554
835.097	23246
835.235	23417
835.373	23299
835.511	23364
835.65	23109
835.788	23075
835.926	23071
836.064	23018
836.202	23102
836.34	23159
836.478	23269
836.615	23193
836.753	23273
836.891	23258
837.029	23273
837.167	23105
837.305	23025
837.443	23029
837.58	22889
837.718	23162
837.856	22915
837.993	22953
838.131	23006
838.269	22854
838.406	22987
838.544	22961
838.681	22725
838.819	22713
838.956	22573
839.094	22474
839.231	22546
839.369	22637
839.506	22923
839.643	22755
839.781	22607
839.918	22512
840.055	22470
840.193	22500
840.33	22379
840.467	22577
840.604	22588
840.742	22793
840.879	22402
841.016	22379
841.153	22398
841.29	22622
841.427	22432
841.564	22512
841.701	22405
841.838	22447
841.975	22306
842.112	22519
842.249	22409
842.385	22272
842.522	22493
842.659	22356
842.796	22230
842.933	22322
843.069	22150
843.206	22093
843.343	22223
843.479	22242
843.616	22234
843.752	21983
843.889	22025
844.025	22090
844.162	22032
844.298	22040
844.435	22036
844.571	21953
844.708	21983
844.844	22105
844.98	22036
845.117	22002
845.253	21918
845.389	21846
845.525	21899
845.661	21960
845.798	21880
845.934	21812
846.07	21789
846.206	21686
846.342	21785
846.478	21739
846.614	21583
846.75	21545
846.886	21450
847.022	21542
847.158	21492
847.294	21511
847.429	21568
847.565	21462
847.701	21770
847.837	21203
847.972	21096
848.108	21256
848.244	21211
848.379	21024
848.515	21028
848.65	21108
848.786	20948
848.921	21051
849.057	21233
849.192	21176
849.328	21123
849.463	21176
849.598	21036
849.734	20941
849.869	20960
850.004	20830
850.14	20895
850.275	20838
850.41	20636
850.545	20967
850.68	20754
850.815	20876
850.95	20807
851.085	21028
851.22	20933
851.355	20834
851.49	20804
851.625	20708
851.76	20910
851.895	20823
852.03	20674
852.165	20792
852.299	20815
852.434	20979
852.569	20800
852.703	20785
852.838	20880
852.973	21058
853.107	20952
853.242	20762
853.376	20724
853.511	20499
853.645	20670
853.78	20663
853.914	20712
854.048	20670
854.183	20590
854.317	20625
854.451	20868
854.585	20670
854.72	20701
854.854	20724
854.988	20568
855.122	20648
855.256	20556
855.39	20632
855.524	20629
855.658	20606
855.792	20724
855.926	20678
856.06	20625
856.194	20674
856.327	20609
856.461	20560
856.595	20545
856.729	20655
856.862	20781
856.996	20708
857.13	20655
857.263	20746
857.397	20750
857.53	20568
857.664	20625
857.797	20674
857.931	20762
858.064	20712
858.197	20670
858.331	20606
858.464	20617
858.597	20484
858.731	20602
858.864	20663
858.997	20629
859.13	20587
859.263	20640
859.396	20804
859.529	20769
859.662	20743
859.795	20617
859.928	20648
860.061	20899
860.194	20716
860.327	20739
860.46	20655
860.592	20667
860.725	20815
860.858	20648
860.99	20632
861.123	20522
861.256	20625
861.388	20632
861.521	21211
861.653	20469
861.786	20450
861.918	20454
862.05	20457
862.183	20564
862.315	20518
862.447	20712
862.58	20556
862.712	20408
862.844	20336
862.976	20400
863.108	20339
863.24	20823
863.372	20244
863.504	20457
863.636	20351
863.768	20343
863.9	20400
864.032	20324
864.164	20290
864.296	20370
864.428	20469
864.559	20457
864.691	20503
864.823	20393
864.954	20408
865.086	20355
865.217	20332
865.349	20240
865.48	20142
865.612	20282
865.743	20332
865.875	20298
866.006	20233
866.137	20263
866.269	20328
866.4	20229
866.531	20191
866.662	20161
866.793	20187
866.924	20221
867.055	20187
867.186	20210
867.317	20229
867.448	20115
867.579	20103
867.71	20142
867.841	20073
867.972	20122
868.103	20233
868.233	20176
868.364	20111
868.495	20320
868.625	20503
868.756	20659
868.886	20343
869.017	20377
869.147	20606
869.278	20533
869.408	20412
869.539	20442
869.669	20575
869.799	20404
869.929	20651
870.06	20503
870.19	20819
870.32	20769
870.45	20762
870.58	20796
870.71	20929
870.84	20925
870.97	20777
871.1	21024
871.23	20986
871.36	21089
871.489	20941
871.619	21039
871.749	21055
871.879	21093
872.008	21104
872.138	21024
872.267	20975
872.397	20948
872.526	20815
872.656	20902
872.785	20762
872.915	21043
873.044	21199
873.173	21100
873.303	21184
873.432	21093
873.561	21165
873.69	21108
873.819	21127
873.948	21192
874.077	21089
874.206	21043
874.335	21108
874.464	21165
874.593	21370
874.722	21332
874.851	21272
874.979	21264
875.108	21283
875.237	21211
875.365	21199
875.494	21298
875.623	21477
875.751	21306
875.88	21370
876.008	21496
876.136	21530
876.265	21728
876.393	21770
876.521	21747
876.65	21873
876.778	21766
876.906	21641
877.034	21701
877.162	21667
877.29	21614
877.418	21682
877.546	21705
877.674	21625
877.802	21618
877.93	21633
878.058	21530
878.185	21542
878.313	21690
878.441	21671
878.568	21526
878.696	21648
878.824	21686
878.951	21785
879.079	21774
879.206	21953
879.333	21770
879.461	21656
879.588	21816
879.715	21804
879.842	21994
879.97	21804
880.097	21477
880.224	21488
880.351	21545
880.478	21481
880.605	21488
880.732	21595
880.859	21713
880.986	21572
881.112	21610
881.239	21519
881.366	21199
881.493	21230
881.619	21066
881.746	21180
881.872	21093
881.999	21036
882.125	21055
882.252	21161
882.378	20952
882.505	21203
882.631	21009
882.757	20800
882.883	20902
883.01	20762
883.136	20659
883.262	20560
883.388	20674
883.514	20724
883.64	20735
883.766	20785
883.892	20663
884.018	20571
884.143	20636
884.269	20826
884.395	20507
884.52	20564
884.646	20575
884.772	20450
884.897	20282
885.023	20480
885.148	20587
885.274	20598
885.399	20530
885.524	20358
885.65	20438
885.775	20434
885.9	20511
886.025	20556
886.15	20526
886.275	20351
886.4	20221
886.525	20507
886.65	20438
886.775	20446
886.9	20476
887.025	20609
887.149	20351
887.274	20267
887.399	20225
887.523	20313
887.648	20187
887.773	20065
887.897	20320
888.021	20191
888.146	20225
888.27	20229
888.395	20355
888.519	20267
888.643	20157
888.767	20332
888.891	20142
889.015	19970
889.139	20035
889.263	19967
889.387	20157
889.511	20248
889.635	20107
889.759	19989
889.883	20024
890.006	20088
890.13	20214
890.254	20024
890.377	20092
890.501	19875
890.624	19734
890.748	19906
890.871	19681
890.995	19639
891.118	19537
891.241	19552
891.364	19613
891.488	19666
891.611	19525
891.734	19552
891.857	19647
891.98	19624
892.103	19556
892.226	19696
892.349	19605
892.471	19430
892.594	19571
892.717	19518
892.839	19510
892.962	19544
893.085	19605
893.207	19491
893.33	19373
893.452	19533
893.575	19567
893.697	19480
893.819	19628
893.941	19731
894.064	19616
894.186	19605
894.308	19392
894.43	19464
894.552	19658
894.674	19643
894.796	19476
894.918	19658
895.04	19514
895.161	19563
895.283	19594
895.405	19438
895.526	19628
895.648	19506
895.769	19582
895.891	19491
896.012	19601
896.134	19651
896.255	19453
896.376	19472
896.498	19575
896.619	19533
896.74	19670
896.861	19655
896.982	19776
897.103	19993
897.224	19788
897.345	19769
897.466	19655
897.587	19715
897.708	19788
897.828	19814
897.949	19700
898.07	19643
898.19	19700
898.311	19803
898.431	19788
898.552	19784
898.672	19719
898.792	19738
898.913	19715
899.033	19719
899.153	19704
899.273	19426
899.393	19430
899.513	19712
899.633	19525
899.753	19457
899.873	19350
899.993	19510
900.113	19415
900.232	19457
900.352	19445
900.472	19343
900.591	19365
900.711	19266
900.83	19289
900.95	19464
901.069	19388
901.189	19293
901.308	18954
901.427	18802
901.546	18951
901.665	18962
901.784	18821
901.904	18814
902.023	18650
902.141	18460
902.26	18456
902.379	18479
902.498	18399
902.617	18319
902.735	18460
902.854	18414
902.973	18266
903.091	18148
903.21	18083
903.328	18152
903.446	17977
903.565	17999
903.683	17923
903.801	17752
903.919	17733
904.038	17805
904.156	17691
904.274	17767
904.392	17672
904.51	17570
904.627	17535
904.745	17756
904.863	17802
904.981	17482
905.098	17280
905.216	17284
905.334	17425
905.451	17269
905.569	17307
905.686	17334
905.803	17204
905.921	17151
906.038	17159
906.155	17174
906.272	17162
906.389	17022
906.506	16927
906.623	16923
906.74	16892
906.857	16755
906.974	16850
907.091	17014
907.208	17022
907.324	16839
907.441	16744
907.557	16725
907.674	16668
907.79	16455
907.907	16664
908.023	16672
908.139	16542
908.256	16440
908.372	16580
908.488	16599
908.604	16337
908.72	16295
908.836	16314
908.952	16147
909.068	16295
909.184	16390
909.3	16272
909.415	16356
909.531	16352
909.647	16082
909.762	16093
909.878	15911
909.993	16036
910.108	15945
910.224	15998
910.339	16071
910.454	15854
910.57	15922
910.685	15816
910.8	16013
910.915	15937
911.03	15827
911.145	15663
911.259	15720
911.374	15644
911.489	15534
911.604	15397
911.718	15424
911.833	15386
911.947	15397
912.062	15424
912.176	15469
912.291	15443
912.405	15519
912.519	15682
912.633	15603
912.748	15492
912.862	15374
912.976	15294
913.09	15036
913.204	15214
913.318	15233
913.431	15321
913.545	15310
913.659	15332
913.772	15165
913.886	15074
914	15081
914.113	15104
914.226	15195
914.34	15138
914.453	14933
914.566	15081
914.68	14914
914.793	14937
914.906	14735
915.019	14788
915.132	14568
915.245	14617
915.358	14651
915.47	14777
915.583	14465
915.696	14720
915.809	14762
915.921	14689
916.034	14446
916.146	14442
916.259	14575
916.371	14682
916.483	14610
916.595	14404
916.708	14434
916.82	14522
916.932	14587
917.044	14415
917.156	14499
917.268	14278
917.38	14275
917.491	14339
917.603	14301
917.715	14431
917.826	14404
917.938	14339
918.049	14153
918.161	14267
918.272	14282
918.384	14366
918.495	14305
918.606	14077
918.717	14005
918.828	14111
918.939	14130
919.05	14058
919.161	14107
919.272	13757
919.383	13970
919.494	14062
919.604	14290
919.715	14100
919.826	14020
919.936	14012
920.047	14073
920.157	14065
920.267	14187
920.378	14088
920.488	13967
920.598	14187
920.708	14370
920.818	14221
920.928	14214
921.038	14355
921.148	14309
921.258	14073
921.368	13845
921.477	13776
921.587	13738
921.697	13681
921.806	13799
921.916	13590
922.025	13453
922.134	13502
922.244	13358
922.353	13464
922.462	13266
922.571	13373
922.68	13065
922.789	13137
922.898	13046
923.007	13012
923.116	13164
923.224	13137
923.333	13152
923.442	12970
923.55	12958
923.659	12970
923.767	12943
923.876	12875
923.984	12966
924.092	12867
924.201	12905
924.309	12947
924.417	12840
924.525	12730
924.633	12817
924.741	13723
924.849	12517
924.956	12658
925.064	12517
925.172	12532
925.279	12525
925.387	12563
925.494	12578
925.602	12681
925.709	12570
925.816	12517
925.924	12448
926.031	12639
926.138	12490
926.245	12448
926.352	12433
926.459	12547
926.566	12555
926.673	12429
926.779	12270
926.886	12232
926.993	12228
927.099	12114
927.206	12117
927.312	12045
927.419	12197
927.525	12186
927.631	12083
927.737	11988
927.843	11999
927.95	11836
928.056	11946
928.162	11999
928.267	11980
928.373	12631
928.479	12045
928.585	11790
928.69	11927
928.796	11931
928.901	11870
929.007	11676
929.112	11851
929.218	11745
929.323	11672
929.428	11665
929.533	11775
929.638	11627
929.743	11638
929.848	11714
929.953	11722
930.058	11566
930.163	11372
930.267	11372
930.372	11509
930.477	11410
930.581	11608
930.685	11440
930.79	11246
930.894	11345
930.998	11273
931.103	11387
931.207	10995
931.311	10942
931.415	10843
931.519	10691
931.623	10596
