Data from test_V78500241_3075.txt Node
Date: Fri Mar 25 15:31:16 CST 2022
User: usil
Spectrometer: V785-0024
Trigger mode: 0
Integration Time (sec): 4.000000E-1
Scans to average: 1
Nonlinearity correction enabled: false
Boxcar width: 0
Storing dark spectrum: false
XAxis mode: Wavelengths
Number of Pixels in Spectrum: 1024
>>>>>Begin Spectral Data<<<<<
801.071	27294
801.214	27325
801.356	27142
801.499	26891
801.641	26731
801.783	26861
801.926	26895
802.068	26887
802.211	26708
802.353	26686
802.496	26514
802.638	26522
802.78	26415
802.923	26446
803.065	26206
803.208	26446
803.35	26450
803.492	26507
803.635	26651
803.777	26499
803.919	26731
804.061	26952
804.204	26625
804.346	26549
804.488	26488
804.63	26621
804.773	26583
804.915	26511
805.057	26545
805.199	26765
805.341	26587
805.483	26720
805.626	26807
805.768	26541
805.91	26724
806.052	26788
806.194	26686
806.336	26883
806.478	26807
806.62	26636
806.762	26781
806.904	27047
807.046	27211
807.188	27112
807.33	27211
807.472	27001
807.614	27066
807.756	27192
807.898	27077
808.04	26845
808.182	26933
808.324	27055
808.465	26986
808.607	27131
808.749	27260
808.891	27427
809.033	27374
809.174	27538
809.316	27393
809.458	27310
809.6	27363
809.741	27450
809.883	27542
810.025	27629
810.166	27542
810.308	27557
810.45	27530
810.591	27469
810.733	27435
810.875	27306
811.016	27306
811.158	27241
811.299	27443
811.441	27485
811.582	27504
811.724	27427
811.865	27321
812.007	27154
812.148	27344
812.29	27336
812.431	27408
812.573	27591
812.714	27736
812.855	27808
812.997	27819
813.138	27914
813.279	27922
813.421	27804
813.562	27720
813.703	27595
813.845	27625
813.986	27272
814.127	27165
814.268	26998
814.41	27116
814.551	26925
814.692	26876
814.833	26899
814.974	26944
815.115	27123
815.256	26857
815.397	26758
815.539	26845
815.68	26781
815.821	26739
815.962	26925
816.103	26762
816.244	26724
816.385	26606
816.526	26499
816.666	26351
816.807	26244
816.948	26396
817.089	26400
817.23	26294
817.371	26248
817.512	26187
817.653	26278
817.793	26088
817.934	26278
818.075	26263
818.216	26263
818.356	26081
818.497	26035
818.638	25894
818.778	25982
818.919	25936
819.06	26024
819.2	26103
819.341	26256
819.481	26229
819.622	26381
819.762	26522
819.903	26533
820.043	26396
820.184	26396
820.324	26374
820.465	26415
820.605	26328
820.746	26339
820.886	26103
821.026	26309
821.167	26218
821.307	26328
821.447	26172
821.588	26027
821.728	26008
821.868	25890
822.008	25723
822.149	25666
822.289	25613
822.429	25346
822.569	25434
822.709	25407
822.849	25148
822.99	25312
823.13	25080
823.27	25160
823.41	25069
823.55	24768
823.69	25114
823.83	25126
823.97	24806
824.11	24890
824.25	24856
824.389	24665
824.529	24985
824.669	24753
824.809	24943
824.949	24852
825.089	24920
825.228	24909
825.368	24817
825.508	24692
825.648	24757
825.787	24787
825.927	24711
826.067	24711
826.206	24722
826.346	24817
826.485	24703
826.625	24696
826.765	24825
826.904	24661
827.044	24498
827.183	24456
827.323	24323
827.462	24410
827.601	24460
827.741	24399
827.88	24464
828.02	24285
828.159	24369
828.298	24334
828.437	24380
828.577	24270
828.716	24426
828.855	24342
828.994	24174
829.134	24136
829.273	24167
829.412	24030
829.551	23961
829.69	24140
829.829	24110
829.968	24194
830.107	24174
830.246	24057
830.385	24060
830.524	23999
830.663	23954
830.802	23878
830.941	23672
831.08	23611
831.219	23733
831.357	23809
831.496	23992
831.635	23710
831.774	23604
831.913	23554
832.051	23402
832.19	23505
832.329	23471
832.467	23463
832.606	23440
832.744	23246
832.883	23398
833.022	23349
833.16	23452
833.299	23455
833.437	23387
833.576	23425
833.714	23486
833.852	23505
833.991	23459
834.129	23474
834.267	23490
834.406	23524
834.544	23406
834.682	23463
834.821	23349
834.959	23501
835.097	23345
835.235	23512
835.373	23474
835.511	23558
835.65	23372
835.788	23223
835.926	23185
836.064	23166
836.202	23200
836.34	23269
836.478	23288
836.615	23227
836.753	23311
836.891	23299
837.029	23299
837.167	23273
837.305	23083
837.443	23170
837.58	23109
837.718	23254
837.856	23200
837.993	23056
838.131	23147
838.269	23029
838.406	23079
838.544	22915
838.681	22839
838.819	22828
838.956	22599
839.094	22607
839.231	22694
839.369	22702
839.506	22923
839.643	22740
839.781	22542
839.918	22588
840.055	22710
840.193	22542
840.33	22565
840.467	22596
840.604	22618
840.742	22748
840.879	22402
841.016	22474
841.153	22523
841.29	22588
841.427	22538
841.564	22554
841.701	22512
841.838	22523
841.975	22398
842.112	22459
842.249	22280
842.385	22337
842.522	22519
842.659	22344
842.796	22291
842.933	22329
843.069	22204
843.206	22249
843.343	22337
843.479	22333
843.616	22253
843.752	22192
843.889	22116
844.025	22230
844.162	22059
844.298	22177
844.435	22048
844.571	22090
844.708	22074
844.844	22253
844.98	22112
845.117	22169
845.253	21991
845.389	21975
845.525	21899
845.661	21911
845.798	21880
845.934	21755
846.07	21724
846.206	21781
846.342	21979
846.478	21835
846.614	21660
846.75	21507
846.886	21599
847.022	21686
847.158	21637
847.294	21549
847.429	21614
847.565	21583
847.701	21766
847.837	21302
847.972	21252
848.108	21412
848.244	21412
848.379	21192
848.515	21135
848.65	21146
848.786	21195
848.921	21180
849.057	21169
849.192	21294
849.328	21184
849.463	21180
849.598	20982
849.734	21104
849.869	20929
850.004	20925
850.14	20887
850.275	20952
850.41	20876
850.545	20838
850.68	20758
850.815	20994
850.95	20785
851.085	20944
851.22	20971
851.355	20921
851.49	20883
851.625	20929
851.76	20796
851.895	20845
852.03	20727
852.165	20937
852.299	21032
852.434	21036
852.569	20834
852.703	20880
852.838	20868
852.973	20998
853.107	20963
853.242	20823
853.376	20727
853.511	20590
853.645	20682
853.78	20899
853.914	20724
854.048	20705
854.183	20796
854.317	20716
854.451	20921
854.585	20777
854.72	20727
854.854	20762
854.988	20632
855.122	20659
855.256	20640
855.39	20651
855.524	20830
855.658	20785
855.792	20613
855.926	20712
856.06	20739
856.194	20689
856.327	20724
856.461	20552
856.595	20667
856.729	20697
856.862	20826
856.996	20864
857.13	20701
857.263	20800
857.397	20800
857.53	20800
857.664	20781
857.797	20826
857.931	20773
858.064	20705
858.197	20769
858.331	20682
858.464	20674
858.597	20674
858.731	20724
858.864	20705
858.997	20739
859.13	20857
859.263	20800
859.396	20796
859.529	20826
859.662	20769
859.795	20659
859.928	20708
860.061	21001
860.194	20887
860.327	20880
860.46	20819
860.592	20876
860.725	20750
860.858	20746
860.99	20773
861.123	20632
861.256	20644
861.388	20788
861.521	21268
861.653	20625
861.786	20621
861.918	20655
862.05	20617
862.183	20731
862.315	20602
862.447	20720
862.58	20587
862.712	20457
862.844	20320
862.976	20533
863.108	20545
863.24	20792
863.372	20294
863.504	20552
863.636	20469
863.768	20579
863.9	20423
864.032	20305
864.164	20358
864.296	20533
864.428	20537
864.559	20511
864.691	20495
864.823	20343
864.954	20465
865.086	20385
865.217	20377
865.349	20168
865.48	20377
865.612	20336
865.743	20488
865.875	20358
866.006	20294
866.137	20381
866.269	20374
866.4	20320
866.531	20202
866.662	20252
866.793	20206
866.924	20199
867.055	20389
867.186	20210
867.317	20168
867.448	20149
867.579	20218
867.71	20115
867.841	20187
867.972	20244
868.103	20176
868.233	20309
868.364	20328
868.495	20404
868.625	20518
868.756	20682
868.886	20385
869.017	20492
869.147	20705
869.278	20571
869.408	20670
869.539	20480
869.669	20659
869.799	20495
869.929	20731
870.06	20552
870.19	20849
870.32	20864
870.45	20845
870.58	20895
870.71	20967
870.84	21055
870.97	20876
871.1	20872
871.23	21020
871.36	21131
871.489	21028
871.619	21108
871.749	21085
871.879	21192
872.008	21169
872.138	21195
872.267	21089
872.397	20963
872.526	20902
872.656	21001
872.785	21055
872.915	21146
873.044	21188
873.173	21180
873.303	21279
873.432	21165
873.561	21188
873.69	21188
873.819	21138
873.948	21222
874.077	21214
874.206	21036
874.335	21112
874.464	21165
874.593	21370
874.722	21370
874.851	21454
874.979	21332
875.108	21405
875.237	21279
875.365	21279
875.494	21386
875.623	21405
875.751	21317
875.88	21496
876.008	21614
876.136	21671
876.265	21747
876.393	21835
876.521	21808
876.65	21915
876.778	21762
876.906	21854
877.034	21728
877.162	21797
877.29	21675
877.418	21633
877.546	21690
877.674	21808
877.802	21804
877.93	21869
878.058	21671
878.185	21618
878.313	21736
878.441	21747
878.568	21466
878.696	21663
878.824	21804
878.951	21816
879.079	22017
879.206	22120
879.333	21774
879.461	21713
879.588	21953
879.715	22021
879.842	22010
879.97	21762
880.097	21580
880.224	21618
880.351	21561
880.478	21701
880.605	21583
880.732	21576
880.859	21698
880.986	21633
881.112	21572
881.239	21359
881.366	21355
881.493	21260
881.619	21165
881.746	21169
881.872	21150
881.999	21005
882.125	21100
882.252	21127
882.378	21104
882.505	21249
882.631	20975
882.757	20781
882.883	20937
883.01	20918
883.136	20762
883.262	20678
883.388	20735
883.514	20941
883.64	20872
883.766	20811
883.892	20708
884.018	20697
884.143	20887
884.269	20918
884.395	20686
884.52	20476
884.646	20575
884.772	20412
884.897	20400
885.023	20438
885.148	20533
885.274	20511
885.399	20511
885.524	20370
885.65	20514
885.775	20552
885.9	20476
886.025	20575
886.15	20511
886.275	20575
886.4	20465
886.525	20465
886.65	20454
886.775	20434
886.9	20514
887.025	20636
887.149	20457
887.274	20263
887.399	20313
887.523	20351
887.648	20142
887.773	20096
887.897	20347
888.021	20263
888.146	20161
888.27	20385
888.395	20309
888.519	20286
888.643	20282
888.767	20336
888.891	20107
889.015	20149
889.139	20157
889.263	20012
889.387	20130
889.511	20290
889.635	20237
889.759	20031
889.883	19997
890.006	20069
890.13	20115
890.254	19932
890.377	20031
890.501	19761
890.624	19795
890.748	19849
890.871	19727
890.995	19624
891.118	19590
891.241	19689
891.364	19670
891.488	19674
891.611	19597
891.734	19632
891.857	19727
891.98	19696
892.103	19677
892.226	19670
892.349	19567
892.471	19529
892.594	19533
892.717	19575
892.839	19578
892.962	19559
893.085	19677
893.207	19586
893.33	19480
893.452	19480
893.575	19597
893.697	19400
893.819	19662
893.941	19700
894.064	19666
894.186	19537
894.308	19438
894.43	19628
894.552	19731
894.674	19635
894.796	19502
894.918	19548
895.04	19525
895.161	19616
895.283	19495
895.405	19476
895.526	19613
895.648	19540
895.769	19651
895.891	19510
896.012	19601
896.134	19609
896.255	19624
896.376	19510
896.498	19510
896.619	19537
896.74	19635
896.861	19556
896.982	19944
897.103	19963
897.224	19784
897.345	19807
897.466	19643
897.587	19784
897.708	19879
897.828	19837
897.949	19761
898.07	19605
898.19	19727
898.311	19811
898.431	19795
898.552	19837
898.672	19959
898.792	19928
898.913	19849
899.033	19761
899.153	19590
899.273	19449
899.393	19624
899.513	19540
899.633	19521
899.753	19559
899.873	19460
899.993	19514
900.113	19533
900.232	19457
900.352	19502
900.472	19381
900.591	19381
900.711	19472
900.83	19304
900.95	19445
901.069	19449
901.189	19362
901.308	19023
901.427	19008
901.546	18909
901.665	19034
901.784	18859
901.904	18795
902.023	18814
902.141	18635
902.26	18475
902.379	18601
902.498	18486
902.617	18361
902.735	18471
902.854	18460
902.973	18384
903.091	18136
903.21	18125
903.328	18174
903.446	18064
903.565	17935
903.683	17931
903.801	17927
903.919	17901
904.038	17878
904.156	17813
904.274	17802
904.392	17745
904.51	17745
904.627	17649
904.745	17714
904.863	17737
904.981	17528
905.098	17402
905.216	17387
905.334	17433
905.451	17440
905.569	17345
905.686	17474
905.803	17433
905.921	17360
906.038	17246
906.155	17280
906.272	17022
906.389	17056
906.506	16862
906.623	16915
906.74	16957
906.857	16771
906.974	16801
907.091	16976
907.208	17067
907.324	16908
907.441	16889
907.557	16713
907.674	16573
907.79	16478
907.907	16664
908.023	16713
908.139	16668
908.256	16717
908.372	16527
908.488	16478
908.604	16386
908.72	16284
908.836	16352
908.952	16371
909.068	16348
909.184	16519
909.3	16375
909.415	16451
909.531	16417
909.647	16204
909.762	16162
909.878	16105
909.993	16067
910.108	16173
910.224	15968
910.339	16025
910.454	15998
910.57	15876
910.685	15797
910.8	16093
910.915	16074
911.03	15930
911.145	15671
911.259	15698
911.374	15770
911.489	15545
911.604	15561
911.718	15420
911.833	15511
911.947	15408
912.062	15287
912.176	15488
912.291	15435
912.405	15564
912.519	15656
912.633	15736
912.748	15500
912.862	15439
912.976	15268
913.09	15184
913.204	15138
913.318	15233
913.431	15367
913.545	15405
913.659	15397
913.772	15310
913.886	15097
914	15039
914.113	15169
914.226	15119
914.34	15085
914.453	15036
914.566	15032
914.68	14963
914.793	14937
914.906	14785
915.019	14705
915.132	14640
915.245	14686
915.358	14701
915.47	14663
915.583	14705
915.696	14701
915.809	14777
915.921	14887
916.034	14610
916.146	14526
916.259	14579
916.371	14644
916.483	14678
916.595	14434
916.708	14590
916.82	14473
916.932	14469
917.044	14495
917.156	14461
917.268	14396
917.38	14419
917.491	14427
917.603	14343
917.715	14495
917.826	14446
917.938	14301
918.049	14199
918.161	14339
918.272	14446
918.384	14419
918.495	14305
918.606	14187
918.717	13944
918.828	14183
918.939	14176
919.05	14073
919.161	14164
919.272	13803
919.383	14031
919.494	14107
919.604	14278
919.715	14145
919.826	13997
919.936	14024
920.047	14172
920.157	14092
920.267	14339
920.378	14126
920.488	14046
920.598	14282
920.708	14362
920.818	14195
920.928	14263
921.038	14396
921.148	14278
921.258	14027
921.368	13959
921.477	13982
921.587	13833
921.697	13788
921.806	13860
921.916	13723
922.025	13575
922.134	13548
922.244	13445
922.353	13559
922.462	13282
922.571	13289
922.68	13187
922.789	13149
922.898	13187
923.007	13061
923.116	13198
923.224	13076
923.333	13103
923.442	12947
923.55	12905
923.659	12985
923.767	13038
923.876	12920
923.984	12977
924.092	12890
924.201	12821
924.309	12878
924.417	12844
924.525	12753
924.633	12810
924.741	13689
924.849	12585
924.956	12688
925.064	12555
925.172	12456
925.279	12585
925.387	12642
925.494	12551
925.602	12703
925.709	12650
925.816	12426
925.924	12471
926.031	12604
926.138	12513
926.245	12551
926.352	12395
926.459	12559
926.566	12623
926.673	12441
926.779	12327
926.886	12388
926.993	12216
927.099	12190
927.206	12129
927.312	12095
927.419	12079
927.525	12194
927.631	12136
927.737	11999
927.843	12030
927.95	11904
928.056	12079
928.162	12022
928.267	11980
928.373	12730
928.479	12060
928.585	11878
928.69	11950
928.796	12019
928.901	11843
929.007	11760
929.112	11832
929.218	11802
929.323	11726
929.428	11771
929.533	11855
929.638	11634
929.743	11764
929.848	11680
929.953	11668
930.058	11619
930.163	11455
930.267	11497
930.372	11600
930.477	11398
930.581	11577
930.685	11532
930.79	11349
930.894	11383
930.998	11337
931.103	11345
931.207	11041
931.311	10984
931.415	10896
931.519	10710
931.623	10691
