Data from test_V78500241_1763.txt Node
Date: Fri Mar 25 15:22:07 CST 2022
User: usil
Spectrometer: V785-0024
Trigger mode: 0
Integration Time (sec): 4.000000E-1
Scans to average: 1
Nonlinearity correction enabled: false
Boxcar width: 0
Storing dark spectrum: false
XAxis mode: Wavelengths
Number of Pixels in Spectrum: 1024
>>>>>Begin Spectral Data<<<<<
801.071	27975
801.214	28002
801.356	27698
801.499	27591
801.641	27427
801.783	27507
801.926	27519
802.068	27412
802.211	27515
802.353	27283
802.496	27203
802.638	27039
802.78	26914
802.923	27032
803.065	27062
803.208	27047
803.35	27184
803.492	27199
803.635	27184
803.777	27218
803.919	27336
804.061	27633
804.204	27450
804.346	27249
804.488	27332
804.63	27226
804.773	27256
804.915	27416
805.057	27424
805.199	27351
805.341	27473
805.483	27447
805.626	27435
805.768	27408
805.91	27397
806.052	27336
806.194	27287
806.336	27610
806.478	27492
806.62	27340
806.762	27637
806.904	27789
807.046	28055
807.188	27793
807.33	27873
807.472	28002
807.614	27823
807.756	27884
807.898	27671
808.04	27709
808.182	27644
808.324	27732
808.465	27679
808.607	27994
808.749	28131
808.891	28131
809.033	28204
809.174	28120
809.316	28025
809.458	28063
809.6	28048
809.741	28226
809.883	28253
810.025	28280
810.166	28284
810.308	28356
810.45	28314
810.591	28219
810.733	28036
810.875	27998
811.016	28032
811.158	27960
811.299	28173
811.441	28204
811.582	28226
811.724	28128
811.865	28063
812.007	28036
812.148	28074
812.29	28120
812.431	28253
812.573	28303
812.714	28641
812.855	28596
812.997	28630
813.138	28854
813.279	28653
813.421	28523
813.562	28478
813.703	28561
813.845	28318
813.986	28097
814.127	27945
814.268	27846
814.41	27816
814.551	27644
814.692	27850
814.833	27747
814.974	27656
815.115	27892
815.256	27747
815.397	27675
815.539	27671
815.68	27473
815.821	27564
815.962	27667
816.103	27576
816.244	27462
816.385	27466
816.526	27272
816.666	27184
816.807	27108
816.948	27146
817.089	27138
817.23	27180
817.371	27001
817.512	27047
817.653	27081
817.793	26906
817.934	27017
818.075	27058
818.216	27066
818.356	26990
818.497	26845
818.638	26891
818.778	26697
818.919	26826
819.06	26921
819.2	26948
819.341	27024
819.481	27043
819.622	27173
819.762	27393
819.903	27211
820.043	27169
820.184	27340
820.324	27165
820.465	27180
820.605	27165
820.746	27306
820.886	27028
821.026	27070
821.167	27085
821.307	27150
821.447	27127
821.588	27127
821.728	26807
821.868	26731
822.008	26530
822.149	26655
822.289	26469
822.429	26324
822.569	26267
822.709	26252
822.849	25978
822.99	25982
823.13	26088
823.27	25974
823.41	25894
823.55	25830
823.69	26024
823.83	25986
823.97	25674
824.11	25845
824.25	25632
824.389	25658
824.529	25856
824.669	25814
824.809	25921
824.949	25799
825.089	25928
825.228	25696
825.368	25613
825.508	25544
825.648	25651
825.787	25643
825.927	25674
826.067	25556
826.206	25518
826.346	25586
826.485	25693
826.625	25468
826.765	25685
826.904	25567
827.044	25297
827.183	25301
827.323	25346
827.462	25381
827.601	25384
827.741	25396
827.88	25228
828.02	25263
828.159	25213
828.298	25324
828.437	25206
828.577	25255
828.716	25259
828.855	25236
828.994	25012
829.134	25103
829.273	25114
829.412	24867
829.551	24901
829.69	24947
829.829	24848
829.968	25019
830.107	25042
830.246	25019
830.385	24882
830.524	24913
830.663	24875
830.802	24642
830.941	24593
831.08	24513
831.219	24623
831.357	24661
831.496	24875
831.635	24688
831.774	24559
831.913	24467
832.051	24422
832.19	24315
832.329	24407
832.467	24350
832.606	24167
832.744	24220
832.883	24296
833.022	24281
833.16	24114
833.299	24365
833.437	24323
833.576	24433
833.714	24433
833.852	24285
833.991	24361
834.129	24585
834.267	24467
834.406	24308
834.544	24410
834.682	24407
834.821	24311
834.959	24597
835.097	24224
835.235	24346
835.373	24441
835.511	24334
835.65	24220
835.788	24323
835.926	23961
836.064	23988
836.202	24095
836.34	24338
836.478	24254
836.615	24106
836.753	24148
836.891	24384
837.029	24228
837.167	24117
837.305	24163
837.443	23961
837.58	24110
837.718	24125
837.856	24041
837.993	24003
838.131	23973
838.269	23946
838.406	24057
838.544	23874
838.681	23577
838.819	23600
838.956	23573
839.094	23520
839.231	23680
839.369	23642
839.506	23863
839.643	23904
839.781	23531
839.918	23493
840.055	23630
840.193	23353
840.33	23353
840.467	23421
840.604	23463
840.742	23600
840.879	23280
841.016	23353
841.153	23307
841.29	23486
841.427	23444
841.564	23379
841.701	23372
841.838	23372
841.975	23280
842.112	23322
842.249	23258
842.385	23162
842.522	23341
842.659	23181
842.796	23193
842.933	23094
843.069	23113
843.206	23117
843.343	23193
843.479	23117
843.616	23200
843.752	23014
843.889	22965
844.025	23193
844.162	22965
844.298	23132
844.435	22949
844.571	22793
844.708	23117
844.844	23052
844.98	23075
845.117	23094
845.253	22771
845.389	22831
845.525	22809
845.661	22816
845.798	22679
845.934	22809
846.07	22626
846.206	22645
846.342	22805
846.478	22611
846.614	22481
846.75	22478
846.886	22474
847.022	22557
847.158	22402
847.294	22470
847.429	22478
847.565	22478
847.701	22557
847.837	22173
847.972	22234
848.108	22276
848.244	22295
848.379	22139
848.515	22051
848.65	21964
848.786	21979
848.921	22158
849.057	22036
849.192	21994
849.328	22025
849.463	22025
849.598	21918
849.734	21926
849.869	21789
850.004	21793
850.14	21819
850.275	21762
850.41	21747
850.545	21766
850.68	21701
850.815	21751
850.95	21876
851.085	22044
851.22	21911
851.355	21827
851.49	21846
851.625	21713
851.76	21671
851.895	21713
852.03	21762
852.165	21644
852.299	21755
852.434	21865
852.569	21728
852.703	21800
852.838	21808
852.973	21876
853.107	21884
853.242	21797
853.376	21568
853.511	21496
853.645	21511
853.78	21770
853.914	21656
854.048	21545
854.183	21542
854.317	21572
854.451	21800
854.585	21606
854.72	21701
854.854	21610
854.988	21523
855.122	21583
855.256	21454
855.39	21583
855.524	21690
855.658	21675
855.792	21660
855.926	21500
856.06	21637
856.194	21785
856.327	21549
856.461	21591
856.595	21504
856.729	21530
856.862	21656
856.996	21462
857.13	21656
857.263	21892
857.397	21637
857.53	21572
857.664	21515
857.797	21561
857.931	21694
858.064	21595
858.197	21656
858.331	21492
858.464	21603
858.597	21481
858.731	21545
858.864	21572
858.997	21561
859.13	21572
859.263	21637
859.396	21690
859.529	21564
859.662	21580
859.795	21412
859.928	21564
860.061	21625
860.194	21781
860.327	21618
860.46	21538
860.592	21671
860.725	21728
860.858	21663
860.99	21644
861.123	21511
861.256	21519
861.388	21603
861.521	22249
861.653	21378
861.786	21370
861.918	21416
862.05	21412
862.183	21462
862.315	21488
862.447	21469
862.58	21504
862.712	21298
862.844	21317
862.976	21321
863.108	21298
863.24	21690
863.372	21176
863.504	21165
863.636	21161
863.768	21279
863.9	21245
864.032	21237
864.164	21214
864.296	21386
864.428	21492
864.559	21287
864.691	21405
864.823	21340
864.954	21336
865.086	21268
865.217	21096
865.349	21188
865.48	21211
865.612	21241
865.743	21260
865.875	21165
866.006	21180
866.137	21180
866.269	21237
866.4	21211
866.531	21070
866.662	21020
866.793	21226
866.924	21074
867.055	21039
867.186	21245
867.317	21009
867.448	21157
867.579	21138
867.71	21074
867.841	21142
867.972	21207
868.103	21047
868.233	21017
868.364	21203
868.495	21150
868.625	21435
868.756	21469
868.886	21237
869.017	21291
869.147	21500
869.278	21412
869.408	21317
869.539	21538
869.669	21351
869.799	21393
869.929	21534
870.06	21511
870.19	21652
870.32	21682
870.45	21682
870.58	21766
870.71	21876
870.84	21911
870.97	21686
871.1	21736
871.23	21964
871.36	21903
871.489	21850
871.619	21895
871.749	21816
871.879	21983
872.008	22204
872.138	21998
872.267	21835
872.397	21873
872.526	21766
872.656	21854
872.785	21838
872.915	21953
873.044	22109
873.173	21998
873.303	22036
873.432	22135
873.561	22150
873.69	22063
873.819	21854
873.948	21979
874.077	21960
874.206	21915
874.335	22036
874.464	21994
874.593	22124
874.722	22101
874.851	22158
874.979	22299
875.108	22204
875.237	22093
875.365	22131
875.494	22143
875.623	22367
875.751	22135
875.88	22211
876.008	22341
876.136	22371
876.265	22691
876.393	22733
876.521	22694
876.65	22752
876.778	22660
876.906	22527
877.034	22535
877.162	22531
877.29	22432
877.418	22554
877.546	22580
877.674	22645
877.802	22538
877.93	22554
878.058	22550
878.185	22417
878.313	22523
878.441	22519
878.568	22386
878.696	22443
878.824	22523
878.951	22736
879.079	22573
879.206	22820
879.333	22679
879.461	22630
879.588	22542
879.715	22626
879.842	22786
879.97	22626
880.097	22394
880.224	22223
880.351	22451
880.478	22421
880.605	22299
880.732	22306
880.859	22531
880.986	22386
881.112	22542
881.239	22303
881.366	22128
881.493	22101
881.619	22006
881.746	22086
881.872	21922
881.999	21949
882.125	21918
882.252	22013
882.378	22002
882.505	21991
882.631	21850
882.757	21614
882.883	21618
883.01	21519
883.136	21549
883.262	21538
883.388	21481
883.514	21675
883.64	21690
883.766	21553
883.892	21443
884.018	21332
884.143	21599
884.269	21549
884.395	21416
884.52	21291
884.646	21245
884.772	21245
884.897	21104
885.023	21279
885.148	21332
885.274	21485
885.399	21252
885.524	21294
885.65	21283
885.775	21237
885.9	21321
886.025	21302
886.15	21211
886.275	21264
886.4	21199
886.525	21287
886.65	21199
886.775	21184
886.9	21233
887.025	21374
887.149	21230
887.274	21047
887.399	21074
887.523	21119
887.648	20960
887.773	20982
887.897	21112
888.021	21081
888.146	20982
888.27	21176
888.395	21116
888.519	21131
888.643	21036
888.767	21055
888.891	21001
889.015	20834
889.139	20842
889.263	20956
889.387	20952
889.511	21100
889.635	20925
889.759	20796
889.883	20853
890.006	20948
890.13	20933
890.254	20746
890.377	20807
890.501	20507
890.624	20492
890.748	20720
890.871	20598
890.995	20419
891.118	20423
891.241	20381
891.364	20374
891.488	20484
891.611	20412
891.734	20488
891.857	20457
891.98	20461
892.103	20400
892.226	20389
892.349	20408
892.471	20130
892.594	20355
892.717	20256
892.839	20381
892.962	20389
893.085	20358
893.207	20290
893.33	20119
893.452	20206
893.575	20465
893.697	20286
893.819	20377
893.941	20484
894.064	20488
894.186	20244
894.308	20237
894.43	20465
894.552	20446
894.674	20294
894.796	20164
894.918	20358
895.04	20267
895.161	20408
895.283	20385
895.405	20229
895.526	20172
895.648	20298
895.769	20343
895.891	20305
896.012	20377
896.134	20259
896.255	20339
896.376	20256
896.498	20355
896.619	20263
896.74	20153
896.861	20377
896.982	20670
897.103	20678
897.224	20552
897.345	20480
897.466	20442
897.587	20438
897.708	20708
897.828	20533
897.949	20484
898.07	20324
898.19	20465
898.311	20587
898.431	20442
898.552	20560
898.672	20598
898.792	20575
898.913	20503
899.033	20332
899.153	20347
899.273	20153
899.393	20267
899.513	20381
899.633	20225
899.753	20256
899.873	20168
899.993	20294
900.113	20275
900.232	20153
900.352	20229
900.472	20164
900.591	20062
900.711	19978
900.83	19928
900.95	20035
901.069	20046
901.189	19894
901.308	19757
901.427	19609
901.546	19616
901.665	19582
901.784	19563
901.904	19487
902.023	19403
902.141	19343
902.26	19095
902.379	19179
902.498	19156
902.617	19198
902.735	19190
902.854	19072
902.973	18993
903.091	18821
903.21	18734
903.328	18722
903.446	18726
903.565	18604
903.683	18589
903.801	18574
903.919	18604
904.038	18502
904.156	18452
904.274	18521
904.392	18418
904.51	18304
904.627	18327
904.745	18372
904.863	18357
904.981	18213
905.098	18114
905.216	18068
905.334	17988
905.451	17988
905.569	18026
905.686	18098
905.803	17958
905.921	17836
906.038	17916
906.155	17843
906.272	17779
906.389	17733
906.506	17539
906.623	17471
906.74	17524
906.857	17455
906.974	17436
907.091	17615
907.208	17642
907.324	17653
907.441	17474
907.557	17254
907.674	17334
907.79	17140
907.907	17265
908.023	17280
908.139	17265
908.256	17155
908.372	17132
908.488	17113
908.604	17041
908.72	17029
908.836	17045
908.952	16972
909.068	16972
909.184	17121
909.3	16991
909.415	16991
909.531	16938
909.647	16755
909.762	16713
909.878	16675
909.993	16771
910.108	16649
910.224	16679
910.339	16675
910.454	16512
910.57	16546
910.685	16462
910.8	16687
910.915	16618
911.03	16451
911.145	16322
911.259	16280
911.374	16322
911.489	16249
911.604	16040
911.718	16017
911.833	16090
911.947	15960
912.062	15785
912.176	15975
912.291	15991
912.405	15994
912.519	16177
912.633	16207
912.748	16048
912.862	15937
912.976	15873
913.09	15827
913.204	15804
913.318	15903
913.431	15922
913.545	16006
913.659	16021
913.772	15793
913.886	15682
914	15641
914.113	15762
914.226	15736
914.34	15633
914.453	15519
914.566	15679
914.68	15473
914.793	15416
914.906	15363
915.019	15264
915.132	15123
915.245	15340
915.358	15348
915.47	15325
915.583	15374
915.696	15230
915.809	15439
915.921	15283
916.034	15222
916.146	15135
916.259	15131
916.371	15367
916.483	15146
916.595	15058
916.708	15051
916.82	15104
916.932	15085
917.044	15036
917.156	14990
917.268	14921
917.38	14952
917.491	14826
917.603	14914
917.715	14948
917.826	14982
917.938	14861
918.049	14800
918.161	14762
918.272	14925
918.384	14960
918.495	14823
918.606	14659
918.717	14514
918.828	14613
918.939	14689
919.05	14667
919.161	14560
919.272	14400
919.383	14575
919.494	14629
919.604	14792
919.715	14617
919.826	14560
919.936	14499
920.047	14640
920.157	14583
920.267	14800
920.378	14632
920.488	14526
920.598	14819
920.708	14902
920.818	14758
920.928	14655
921.038	14750
921.148	14815
921.258	14537
921.368	14465
921.477	14355
921.587	14404
921.697	14214
921.806	14381
921.916	14218
922.025	14077
922.134	13940
922.244	13951
922.353	13951
922.462	13822
922.571	13704
922.68	13738
922.789	13719
922.898	13685
923.007	13506
923.116	13658
923.224	13696
923.333	13529
923.442	13502
923.55	13438
923.659	13514
923.767	13556
923.876	13415
923.984	13476
924.092	13377
924.201	13453
924.309	13411
924.417	13339
924.525	13331
924.633	13289
924.741	14027
924.849	13038
924.956	13225
925.064	13027
925.172	12875
925.279	13069
925.387	13061
925.494	13042
925.602	13107
925.709	13091
925.816	12985
925.924	12935
926.031	13126
926.138	12977
926.245	13080
926.352	12871
926.459	12958
926.566	13061
926.673	12981
926.779	12783
926.886	12840
926.993	12623
927.099	12642
927.206	12532
927.312	12467
927.419	12608
927.525	12601
927.631	12673
927.737	12559
927.843	12452
927.95	12353
928.056	12506
928.162	12467
928.267	12483
928.373	13031
928.479	12506
928.585	12270
928.69	12395
928.796	12418
928.901	12395
929.007	12129
929.112	12228
929.218	12216
929.323	12155
929.428	12091
929.533	12262
929.638	12038
929.743	12076
929.848	12106
929.953	12171
930.058	11999
930.163	11874
930.267	11813
930.372	12011
930.477	11741
930.581	11961
930.685	11859
930.79	11745
930.894	11726
930.998	11653
931.103	11756
931.207	11463
931.311	11368
931.415	11261
931.519	11064
931.623	11098
