Data from test_V78500241_2340.txt Node
Date: Fri Mar 25 15:26:09 CST 2022
User: usil
Spectrometer: V785-0024
Trigger mode: 0
Integration Time (sec): 4.000000E-1
Scans to average: 1
Nonlinearity correction enabled: false
Boxcar width: 0
Storing dark spectrum: false
XAxis mode: Wavelengths
Number of Pixels in Spectrum: 1024
>>>>>Begin Spectral Data<<<<<
801.071	27443
801.214	27321
801.356	27256
801.499	27062
801.641	27135
801.783	26971
801.926	27066
802.068	27058
802.211	26864
802.353	26758
802.496	26731
802.638	26667
802.78	26590
802.923	26678
803.065	26545
803.208	26568
803.35	26625
803.492	26739
803.635	26902
803.777	26708
803.919	26826
804.061	27157
804.204	26826
804.346	26781
804.488	26769
804.63	26849
804.773	26815
804.915	26842
805.057	26804
805.199	26750
805.341	26906
805.483	27058
805.626	26758
805.768	26838
805.91	26895
806.052	26986
806.194	26887
806.336	26963
806.478	27066
806.62	26918
806.762	26933
806.904	27374
807.046	27420
807.188	27321
807.33	27386
807.472	27519
807.614	27298
807.756	27211
807.898	27237
808.04	27218
808.182	27089
808.324	27176
808.465	27226
808.607	27458
808.749	27481
808.891	27553
809.033	27755
809.174	27488
809.316	27599
809.458	27644
809.6	27538
809.741	27606
809.883	27686
810.025	27797
810.166	27774
810.308	27759
810.45	27606
810.591	27694
810.733	27625
810.875	27667
811.016	27454
811.158	27344
811.299	27603
811.441	27610
811.582	27614
811.724	27564
811.865	27625
812.007	27473
812.148	27427
812.29	27549
812.431	27682
812.573	27793
812.714	27926
812.855	28010
812.997	28029
813.138	28226
813.279	28295
813.421	27983
813.562	28059
813.703	27800
813.845	27713
813.986	27488
814.127	27268
814.268	27291
814.41	27291
814.551	27142
814.692	27150
814.833	27119
814.974	27218
815.115	27214
815.256	27066
815.397	27066
815.539	27180
815.68	27150
815.821	26857
815.962	27142
816.103	26861
816.244	26826
816.385	26948
816.526	26735
816.666	26571
816.807	26446
816.948	26408
817.089	26476
817.23	26453
817.371	26400
817.512	26465
817.653	26393
817.793	26503
817.934	26507
818.075	26408
818.216	26609
818.356	26374
818.497	26301
818.638	26233
818.778	26286
818.919	26183
819.06	26259
819.2	26320
819.341	26518
819.481	26446
819.622	26640
819.762	26762
819.903	26781
820.043	26716
820.184	26571
820.324	26526
820.465	26727
820.605	26682
820.746	26629
820.886	26518
821.026	26564
821.167	26514
821.307	26750
821.447	26556
821.588	26377
821.728	26199
821.868	26138
822.008	25978
822.149	25902
822.289	25955
822.429	25727
822.569	25571
822.709	25594
822.849	25460
822.99	25556
823.13	25350
823.27	25419
823.41	25225
823.55	25228
823.69	25282
823.83	25240
823.97	25194
824.11	25053
824.25	25038
824.389	25023
824.529	25160
824.669	25027
824.809	25175
824.949	25255
825.089	25225
825.228	25141
825.368	24856
825.508	24928
825.648	24837
825.787	24939
825.927	24958
826.067	24856
826.206	24901
826.346	24916
826.485	25107
826.625	24947
826.765	25046
826.904	25076
827.044	24844
827.183	24753
827.323	24673
827.462	24810
827.601	24772
827.741	24585
827.88	24779
828.02	24528
828.159	24604
828.298	24627
828.437	24688
828.577	24616
828.716	24757
828.855	24589
828.994	24407
829.134	24426
829.273	24327
829.412	24380
829.551	24254
829.69	24407
829.829	24433
829.968	24357
830.107	24407
830.246	24327
830.385	24216
830.524	24182
830.663	24125
830.802	24136
830.941	24057
831.08	23973
831.219	24121
831.357	24057
831.496	24076
831.635	23878
831.774	23988
831.913	23821
832.051	23802
832.19	23687
832.329	23840
832.467	23714
832.606	23661
832.744	23691
832.883	23653
833.022	23668
833.16	23661
833.299	23714
833.437	23710
833.576	23668
833.714	23661
833.852	23760
833.991	23653
834.129	23821
834.267	23817
834.406	23684
834.544	23691
834.682	23824
834.821	23707
834.959	23931
835.097	23642
835.235	23741
835.373	23756
835.511	23703
835.65	23425
835.788	23535
835.926	23501
836.064	23345
836.202	23356
836.34	23524
836.478	23684
836.615	23486
836.753	23562
836.891	23646
837.029	23531
837.167	23474
837.305	23486
837.443	23463
837.58	23440
837.718	23425
837.856	23482
837.993	23459
838.131	23353
838.269	23315
838.406	23235
838.544	23246
838.681	22991
838.819	23060
838.956	22957
839.094	22923
839.231	22984
839.369	22991
839.506	23322
839.643	23178
839.781	22850
839.918	22744
840.055	22812
840.193	22759
840.33	22740
840.467	22763
840.604	22854
840.742	23064
840.879	22786
841.016	22706
841.153	22675
841.29	22881
841.427	22797
841.564	22881
841.701	22771
841.838	22702
841.975	22733
842.112	22706
842.249	22615
842.385	22557
842.522	22664
842.659	22531
842.796	22512
842.933	22436
843.069	22466
843.206	22535
843.343	22470
843.479	22592
843.616	22516
843.752	22402
843.889	22226
844.025	22451
844.162	22238
844.298	22348
844.435	22272
844.571	22253
844.708	22261
844.844	22421
844.98	22436
845.117	22470
845.253	22173
845.389	22257
845.525	22215
845.661	22158
845.798	21979
845.934	22139
846.07	21994
846.206	22078
846.342	22135
846.478	21983
846.614	21800
846.75	21800
846.886	21690
847.022	21838
847.158	21884
847.294	21861
847.429	21907
847.565	21789
847.701	22036
847.837	21561
847.972	21466
848.108	21641
848.244	21614
848.379	21401
848.515	21302
848.65	21237
848.786	21351
848.921	21408
849.057	21424
849.192	21447
849.328	21488
849.463	21412
849.598	21321
849.734	21317
849.869	21138
850.004	21096
850.14	21119
850.275	21207
850.41	21138
850.545	21085
850.68	21116
850.815	21169
850.95	21211
851.085	21245
851.22	21275
851.355	21165
851.49	21173
851.625	21017
851.76	21195
851.895	21112
852.03	21020
852.165	21138
852.299	21176
852.434	21180
852.569	21241
852.703	21127
852.838	21233
852.973	21272
853.107	21252
853.242	21165
853.376	21001
853.511	20811
853.645	20967
853.78	21043
853.914	21005
854.048	20998
854.183	21066
854.317	21047
854.451	21245
854.585	21077
854.72	20967
854.854	20956
854.988	21058
855.122	21043
855.256	20708
855.39	20952
855.524	21096
855.658	21055
855.792	21005
855.926	21074
856.06	21066
856.194	20956
856.327	21001
856.461	20937
856.595	20914
856.729	21043
856.862	21150
856.996	21055
857.13	20960
857.263	20948
857.397	21055
857.53	20872
857.664	20929
857.797	21085
857.931	21062
858.064	20948
858.197	20994
858.331	20921
858.464	20990
858.597	20887
858.731	20887
858.864	20891
858.997	20933
859.13	20975
859.263	21066
859.396	20982
859.529	20937
859.662	20868
859.795	20838
859.928	20975
860.061	21020
860.194	21188
860.327	21001
860.46	20944
860.592	21070
860.725	21142
860.858	21165
860.99	21047
861.123	20838
861.256	20876
861.388	21036
861.521	21549
861.653	20868
861.786	20773
861.918	20899
862.05	20872
862.183	20967
862.315	20914
862.447	20979
862.58	20914
862.712	20644
862.844	20697
862.976	20845
863.108	20872
863.24	21085
863.372	20651
863.504	20697
863.636	20655
863.768	20705
863.9	20682
864.032	20697
864.164	20674
864.296	20731
864.428	20743
864.559	20686
864.691	20727
864.823	20682
864.954	20556
865.086	20640
865.217	20583
865.349	20507
865.48	20644
865.612	20632
865.743	20682
865.875	20655
866.006	20511
866.137	20606
866.269	20568
866.4	20492
866.531	20484
866.662	20400
866.793	20571
866.924	20503
867.055	20537
867.186	20530
867.317	20461
867.448	20499
867.579	20552
867.71	20434
867.841	20457
867.972	20541
868.103	20518
868.233	20560
868.364	20530
868.495	20579
868.625	20712
868.756	20834
868.886	20739
869.017	20682
869.147	20880
869.278	20891
869.408	20834
869.539	20731
869.669	20769
869.799	20861
869.929	20941
870.06	20910
870.19	21020
870.32	21005
870.45	21085
870.58	21020
870.71	21306
870.84	21233
870.97	21207
871.1	21222
871.23	21329
871.36	21302
871.489	21310
871.619	21310
871.749	21306
871.879	21363
872.008	21469
872.138	21424
872.267	21363
872.397	21214
872.526	21214
872.656	21058
872.785	21230
872.915	21329
873.044	21428
873.173	21332
873.303	21488
873.432	21511
873.561	21519
873.69	21313
873.819	21359
873.948	21492
874.077	21401
874.206	21264
874.335	21332
874.464	21652
874.593	21667
874.722	21466
874.851	21724
874.979	21622
875.108	21656
875.237	21485
875.365	21408
875.494	21614
875.623	21675
875.751	21713
875.88	21549
876.008	21751
876.136	21861
876.265	21934
876.393	22166
876.521	22131
876.65	22090
876.778	22021
876.906	22101
877.034	21998
877.162	22032
877.29	21884
877.418	21975
877.546	21987
877.674	21831
877.802	21968
877.93	22105
878.058	21888
878.185	21941
878.313	21895
878.441	21953
878.568	21747
878.696	21854
878.824	21991
878.951	22036
879.079	22082
879.206	22238
879.333	22086
879.461	21972
879.588	22040
879.715	22090
879.842	22371
879.97	22051
880.097	21736
880.224	21751
880.351	21793
880.478	21835
880.605	21812
880.732	21698
880.859	22006
880.986	21823
881.112	21842
881.239	21656
881.366	21500
881.493	21458
881.619	21374
881.746	21416
881.872	21355
881.999	21325
882.125	21188
882.252	21420
882.378	21325
882.505	21462
882.631	21230
882.757	21005
882.883	21184
883.01	21066
883.136	20956
883.262	21001
883.388	20876
883.514	21062
883.64	21169
883.766	21085
883.892	20788
884.018	20864
884.143	21047
884.269	21188
884.395	20739
884.52	20644
884.646	20758
884.772	20712
884.897	20594
885.023	20701
885.148	20785
885.274	20796
885.399	20800
885.524	20746
885.65	20788
885.775	20712
885.9	20724
886.025	20788
886.15	20845
886.275	20743
886.4	20667
886.525	20602
886.65	20613
886.775	20598
886.9	20693
887.025	20895
887.149	20712
887.274	20522
887.399	20415
887.523	20446
887.648	20473
887.773	20415
887.897	20549
888.021	20495
888.146	20362
888.27	20526
888.395	20507
888.519	20579
888.643	20450
888.767	20541
888.891	20492
889.015	20267
889.139	20355
889.263	20362
889.387	20343
889.511	20537
889.635	20366
889.759	20332
889.883	20317
890.006	20286
890.13	20343
890.254	20191
890.377	20286
890.501	20054
890.624	20035
890.748	20202
890.871	19944
890.995	19841
891.118	19913
891.241	19841
891.364	19890
891.488	19940
891.611	19887
891.734	19841
891.857	19978
891.98	19909
892.103	19765
892.226	19811
892.349	19761
892.471	19704
892.594	19746
892.717	19917
892.839	19883
892.962	19757
893.085	19837
893.207	19833
893.33	19670
893.452	19738
893.575	19837
893.697	19689
893.819	19833
893.941	19917
894.064	19772
894.186	19677
894.308	19628
894.43	19887
894.552	19887
894.674	19826
894.796	19674
894.918	19715
895.04	19746
895.161	19841
895.283	19769
895.405	19655
895.526	19734
895.648	19700
895.769	19658
895.891	19757
896.012	19837
896.134	19864
896.255	19833
896.376	19833
896.498	19731
896.619	19818
896.74	19738
896.861	19780
896.982	20100
897.103	20256
897.224	20035
897.345	20157
897.466	19978
897.587	19989
897.708	20039
897.828	20088
897.949	19932
898.07	19860
898.19	19921
898.311	20073
898.431	19776
898.552	20058
898.672	20145
898.792	20077
898.913	20005
899.033	19830
899.153	19803
899.273	19708
899.393	19784
899.513	19784
899.633	19734
899.753	19814
899.873	19681
899.993	19738
900.113	19731
900.232	19715
900.352	19685
900.472	19666
900.591	19552
900.711	19506
900.83	19407
900.95	19639
901.069	19708
901.189	19426
901.308	19179
901.427	19293
901.546	19050
901.665	19038
901.784	19148
901.904	19027
902.023	18871
902.141	18722
902.26	18616
902.379	18692
902.498	18753
902.617	18589
902.735	18650
902.854	18646
902.973	18517
903.091	18426
903.21	18308
903.328	18292
903.446	18232
903.565	18114
903.683	18194
903.801	18038
903.919	18110
904.038	18152
904.156	17916
904.274	18106
904.392	17870
904.51	17813
904.627	17931
904.745	17882
904.863	17882
904.981	17581
905.098	17615
905.216	17653
905.334	17623
905.451	17554
905.569	17570
905.686	17467
905.803	17619
905.921	17292
906.038	17417
906.155	17254
906.272	17277
906.389	17235
906.506	17056
906.623	17311
906.74	17064
906.857	16995
906.974	16999
907.091	17113
907.208	17200
907.324	17174
907.441	17105
907.557	16976
907.674	16869
907.79	16744
907.907	16733
908.023	16850
908.139	16869
908.256	16820
908.372	16797
908.488	16694
908.604	16584
908.72	16607
908.836	16592
908.952	16512
909.068	16478
909.184	16596
909.3	16645
909.415	16527
909.531	16550
909.647	16386
909.762	16265
909.878	16215
909.993	16363
910.108	16253
910.224	16303
910.339	16226
910.454	16025
910.57	16063
910.685	15915
910.8	16306
910.915	16249
911.03	16078
911.145	15888
911.259	15717
911.374	15842
911.489	15671
911.604	15770
911.718	15614
911.833	15591
911.947	15458
912.062	15420
912.176	15656
912.291	15553
912.405	15523
912.519	15751
912.633	15686
912.748	15572
912.862	15625
912.976	15370
913.09	15344
913.204	15370
913.318	15329
913.431	15496
913.545	15447
913.659	15443
913.772	15401
913.886	15268
914	15146
914.113	15351
914.226	15401
914.34	15252
914.453	15131
914.566	15370
914.68	15157
914.793	15104
914.906	14861
915.019	14872
915.132	14815
915.245	14830
915.358	14758
915.47	14838
915.583	14765
915.696	14956
915.809	14842
915.921	14921
916.034	14781
916.146	14746
916.259	14644
916.371	14739
916.483	14739
916.595	14674
916.708	14682
916.82	14629
916.932	14610
917.044	14632
917.156	14587
917.268	14499
917.38	14530
917.491	14545
917.603	14495
917.715	14583
917.826	14465
917.938	14473
918.049	14404
918.161	14454
918.272	14602
918.384	14564
918.495	14377
918.606	14317
918.717	14225
918.828	14324
918.939	14301
919.05	14195
919.161	14172
919.272	14050
919.383	14103
919.494	14275
919.604	14446
919.715	14202
919.826	14138
919.936	14206
920.047	14282
920.157	14187
920.267	14381
920.378	14172
920.488	14176
920.598	14309
920.708	14412
920.818	14362
920.928	14385
921.038	14530
921.148	14393
921.258	14237
921.368	14107
921.477	13993
921.587	13989
921.697	13967
921.806	13989
921.916	13909
922.025	13647
922.134	13506
922.244	13628
922.353	13601
922.462	13559
922.571	13392
922.68	13312
922.789	13343
922.898	13282
923.007	13289
923.116	13255
923.224	13377
923.333	13304
923.442	13084
923.55	13088
923.659	13141
923.767	13202
923.876	13042
923.984	13080
924.092	13072
924.201	13080
924.309	13076
924.417	12939
924.525	12970
924.633	12901
924.741	13898
924.849	12829
924.956	12901
925.064	12757
925.172	12726
925.279	12681
925.387	12757
925.494	12745
925.602	12692
925.709	12662
925.816	12662
925.924	12719
926.031	12753
926.138	12692
926.245	12627
926.352	12612
926.459	12719
926.566	12703
926.673	12578
926.779	12479
926.886	12506
926.993	12380
927.099	12334
927.206	12285
927.312	12247
927.419	12224
927.525	12232
927.631	12319
927.737	12129
927.843	12152
927.95	12091
928.056	12076
928.162	12167
928.267	12190
928.373	12722
928.479	12182
928.585	12038
928.69	12144
928.796	12072
928.901	11927
929.007	11847
929.112	11999
929.218	11847
929.323	11783
929.428	11779
929.533	11958
929.638	11714
929.743	11817
929.848	11790
929.953	11824
930.058	11726
930.163	11493
930.267	11577
930.372	11680
930.477	11463
930.581	11680
930.685	11524
930.79	11395
930.894	11459
930.998	11383
931.103	11532
931.207	11105
931.311	11090
931.415	11060
931.519	10809
931.623	10805
