Data from test_V78500241_1934.txt Node
Date: Fri Mar 25 15:23:19 CST 2022
User: usil
Spectrometer: V785-0024
Trigger mode: 0
Integration Time (sec): 4.000000E-1
Scans to average: 1
Nonlinearity correction enabled: false
Boxcar width: 0
Storing dark spectrum: false
XAxis mode: Wavelengths
Number of Pixels in Spectrum: 1024
>>>>>Begin Spectral Data<<<<<
801.071	27656
801.214	27686
801.356	27534
801.499	27435
801.641	27302
801.783	27344
801.926	27264
802.068	27298
802.211	27218
802.353	27127
802.496	26952
802.638	26944
802.78	26937
802.923	26762
803.065	26792
803.208	26762
803.35	26971
803.492	26982
803.635	27203
803.777	27020
803.919	27017
804.061	27420
804.204	27165
804.346	27230
804.488	27096
804.63	27081
804.773	27024
804.915	27173
805.057	27275
805.199	27055
805.341	27108
805.483	27249
805.626	27287
805.768	27108
805.91	27176
806.052	27245
806.194	27070
806.336	27348
806.478	27214
806.62	27233
806.762	27374
806.904	27507
807.046	27652
807.188	27701
807.33	27671
807.472	27694
807.614	27500
807.756	27622
807.898	27447
808.04	27408
808.182	27557
808.324	27424
808.465	27580
808.607	27770
808.749	27724
808.891	27991
809.033	28010
809.174	27903
809.316	27774
809.458	27751
809.6	27873
809.741	27994
809.883	27911
810.025	28086
810.166	28147
810.308	28147
810.45	28090
810.591	28006
810.733	27873
810.875	27759
811.016	27694
811.158	27629
811.299	27865
811.441	27983
811.582	28029
811.724	27789
811.865	27656
812.007	27614
812.148	27888
812.29	27880
812.431	28021
812.573	28181
812.714	28303
812.855	28348
812.997	28371
813.138	28607
813.279	28478
813.421	28325
813.562	28249
813.703	28215
813.845	27987
813.986	27682
814.127	27637
814.268	27610
814.41	27580
814.551	27511
814.692	27644
814.833	27500
814.974	27439
815.115	27549
815.256	27469
815.397	27496
815.539	27416
815.68	27306
815.821	27329
815.962	27317
816.103	27279
816.244	27207
816.385	27222
816.526	27074
816.666	26998
816.807	26899
816.948	26842
817.089	26952
817.23	26792
817.371	26845
817.512	26899
817.653	26887
817.793	26705
817.934	26906
818.075	26891
818.216	26697
818.356	26617
818.497	26674
818.638	26575
818.778	26571
818.919	26606
819.06	26545
819.2	26644
819.341	26773
819.481	26807
819.622	27032
819.762	27233
819.903	27161
820.043	26986
820.184	26887
820.324	26906
820.465	27024
820.605	26906
820.746	26956
820.886	26838
821.026	26876
821.167	27005
821.307	26948
821.447	26830
821.588	26613
821.728	26644
821.868	26408
822.008	26256
822.149	26328
822.289	26218
822.429	26107
822.569	26035
822.709	25932
822.849	25909
822.99	25875
823.13	25830
823.27	25651
823.41	25624
823.55	25441
823.69	25689
823.83	25723
823.97	25479
824.11	25308
824.25	25377
824.389	25464
824.529	25499
824.669	25335
824.809	25575
824.949	25479
825.089	25613
825.228	25438
825.368	25346
825.508	25244
825.648	25183
825.787	25324
825.927	25403
826.067	25339
826.206	25240
826.346	25381
826.485	25388
826.625	25244
826.765	25453
826.904	25331
827.044	25069
827.183	25194
827.323	24928
827.462	25145
827.601	25095
827.741	25027
827.88	24973
828.02	24833
828.159	25110
828.298	25015
828.437	25084
828.577	24951
828.716	25137
828.855	24913
828.994	24852
829.134	24745
829.273	24760
829.412	24726
829.551	24684
829.69	24688
829.829	24719
829.968	24932
830.107	24760
830.246	24829
830.385	24726
830.524	24669
830.663	24460
830.802	24502
830.941	24308
831.08	24171
831.219	24471
831.357	24365
831.496	24502
831.635	24277
831.774	24308
831.913	24311
832.051	24232
832.19	24091
832.329	24076
832.467	24038
832.606	23969
832.744	23973
832.883	24057
833.022	24045
833.16	23912
833.299	24121
833.437	24087
833.576	24102
833.714	24133
833.852	24110
833.991	24102
834.129	24121
834.267	24057
834.406	24102
834.544	24155
834.682	24152
834.821	24167
834.959	24220
835.097	23942
835.235	24022
835.373	24068
835.511	24083
835.65	23935
835.788	23965
835.926	23817
836.064	23718
836.202	23718
836.34	24057
836.478	23965
836.615	23912
836.753	23965
836.891	24091
837.029	24095
837.167	23863
837.305	23760
837.443	23714
837.58	23817
837.718	23931
837.856	23680
837.993	23646
838.131	23779
838.269	23486
838.406	23672
838.544	23619
838.681	23471
838.819	23436
838.956	23197
839.094	23280
839.231	23303
839.369	23421
839.506	23661
839.643	23505
839.781	23311
839.918	23067
840.055	23212
840.193	23235
840.33	23174
840.467	23174
840.604	23151
840.742	23372
840.879	22980
841.016	23056
841.153	22942
841.29	23292
841.427	23151
841.564	23227
841.701	23200
841.838	23029
841.975	22987
842.112	22987
842.249	22930
842.385	22896
842.522	23079
842.659	23044
842.796	22854
842.933	22915
843.069	22923
843.206	22862
843.343	22881
843.479	22953
843.616	22999
843.752	22744
843.889	22679
844.025	22854
844.162	22717
844.298	22752
844.435	22778
844.571	22622
844.708	22694
844.844	22839
844.98	22805
845.117	22831
845.253	22634
845.389	22504
845.525	22675
845.661	22516
845.798	22390
845.934	22409
846.07	22375
846.206	22466
846.342	22557
846.478	22341
846.614	22207
846.75	22097
846.886	22116
847.022	22207
847.158	22200
847.294	22147
847.429	22204
847.565	22090
847.701	22474
847.837	21899
847.972	21873
848.108	21994
848.244	21994
848.379	21789
848.515	21637
848.65	21717
848.786	21797
848.921	21800
849.057	21861
849.192	21812
849.328	21724
849.463	21724
849.598	21732
849.734	21713
849.869	21591
850.004	21675
850.14	21587
850.275	21492
850.41	21428
850.545	21530
850.68	21466
850.815	21629
850.95	21538
851.085	21671
851.22	21603
851.355	21515
851.49	21473
851.625	21545
851.76	21412
851.895	21473
852.03	21473
852.165	21469
852.299	21564
852.434	21614
852.569	21526
852.703	21466
852.838	21496
852.973	21629
853.107	21603
853.242	21561
853.376	21370
853.511	21173
853.645	21161
853.78	21648
853.914	21329
854.048	21169
854.183	21233
854.317	21450
854.451	21583
854.585	21428
854.72	21355
854.854	21507
854.988	21302
855.122	21374
855.256	21317
855.39	21268
855.524	21374
855.658	21348
855.792	21298
855.926	21291
856.06	21325
856.194	21348
856.327	21325
856.461	21329
856.595	21332
856.729	21260
856.862	21367
856.996	21374
857.13	21325
857.263	21447
857.397	21504
857.53	21260
857.664	21370
857.797	21329
857.931	21378
858.064	21355
858.197	21313
858.331	21321
858.464	21310
858.597	21203
858.731	21249
858.864	21340
858.997	21310
859.13	21382
859.263	21241
859.396	21344
859.529	21138
859.662	21222
859.795	21245
859.928	21405
860.061	21473
860.194	21466
860.327	21291
860.46	21313
860.592	21405
860.725	21545
860.858	21454
860.99	21245
861.123	21230
861.256	21332
861.388	21351
861.521	21987
861.653	21283
861.786	21066
861.918	21131
862.05	21176
862.183	21298
862.315	21237
862.447	21275
862.58	21233
862.712	21131
862.844	21028
862.976	21077
863.108	21096
863.24	21538
863.372	21024
863.504	21085
863.636	20975
863.768	21051
863.9	21146
864.032	21062
864.164	21017
864.296	21013
864.428	21066
864.559	21195
864.691	21077
864.823	21013
864.954	21047
865.086	20944
865.217	20986
865.349	20868
865.48	20868
865.612	20861
865.743	21058
865.875	21055
866.006	20826
866.137	20952
866.269	20952
866.4	20883
866.531	20762
866.662	20807
866.793	20777
866.924	20960
867.055	20979
867.186	20975
867.317	20826
867.448	20682
867.579	20899
867.71	20853
867.841	20834
867.972	20838
868.103	20811
868.233	20906
868.364	20925
868.495	20967
868.625	21154
868.756	21169
868.886	21123
869.017	21093
869.147	21332
869.278	21138
869.408	21165
869.539	21116
869.669	21188
869.799	21135
869.929	21249
870.06	21157
870.19	21382
870.32	21500
870.45	21382
870.58	21454
870.71	21496
870.84	21595
870.97	21519
871.1	21473
871.23	21633
871.36	21637
871.489	21553
871.619	21637
871.749	21545
871.879	21690
872.008	21956
872.138	21663
872.267	21732
872.397	21648
872.526	21557
872.656	21675
872.785	21583
872.915	21671
873.044	21865
873.173	21686
873.303	21781
873.432	21774
873.561	21694
873.69	21591
873.819	21717
873.948	21751
874.077	21583
874.206	21679
874.335	21736
874.464	21892
874.593	21880
874.722	22021
874.851	21949
874.979	22044
875.108	21922
875.237	21907
875.365	21865
875.494	21949
875.623	21945
875.751	21857
875.88	21972
876.008	22036
876.136	22112
876.265	22287
876.393	22379
876.521	22527
876.65	22409
876.778	22436
876.906	22363
877.034	22284
877.162	22196
877.29	22299
877.418	22219
877.546	22238
877.674	22173
877.802	22276
877.93	22166
878.058	22272
878.185	22196
878.313	22394
878.441	22295
878.568	22124
878.696	22192
878.824	22284
878.951	22447
879.079	22474
879.206	22630
879.333	22382
879.461	22257
879.588	22413
879.715	22462
879.842	22664
879.97	22451
880.097	22185
880.224	22097
880.351	22097
880.478	22090
880.605	22082
880.732	22112
880.859	22394
880.986	22135
881.112	22055
881.239	22090
881.366	21800
881.493	21759
881.619	21705
881.746	21762
881.872	21793
881.999	21583
882.125	21701
882.252	21835
882.378	21686
882.505	21819
882.631	21454
882.757	21313
882.883	21500
883.01	21435
883.136	21374
883.262	21203
883.388	21199
883.514	21382
883.64	21545
883.766	21367
883.892	21184
884.018	21230
884.143	21279
884.269	21397
884.395	21089
884.52	20979
884.646	21077
884.772	21081
884.897	20967
885.023	21055
885.148	21127
885.274	21142
885.399	21233
885.524	21119
885.65	20979
885.775	21123
885.9	21020
886.025	21169
886.15	21230
886.275	21051
886.4	20811
886.525	21032
886.65	20887
886.775	20895
886.9	21142
887.025	21226
887.149	20963
887.274	20910
887.399	20788
887.523	20785
887.648	20727
887.773	20720
887.897	20994
888.021	20941
888.146	20598
888.27	20906
888.395	20895
888.519	20914
888.643	20815
888.767	20944
888.891	20746
889.015	20670
889.139	20758
889.263	20571
889.387	20792
889.511	20804
889.635	20720
889.759	20708
889.883	20625
890.006	20488
890.13	20640
890.254	20427
890.377	20537
890.501	20305
890.624	20457
890.748	20351
890.871	20256
890.995	20149
891.118	20161
891.241	20244
891.364	20229
891.488	20267
891.611	20149
891.734	20199
891.857	20218
891.98	20183
892.103	20278
892.226	20096
892.349	20210
892.471	19970
892.594	20081
892.717	20157
892.839	20024
892.962	20115
893.085	20191
893.207	20058
893.33	19883
893.452	19963
893.575	20088
893.697	20046
893.819	20199
893.941	20339
894.064	20145
894.186	19978
894.308	20035
894.43	20119
894.552	20145
894.674	20244
894.796	19898
894.918	20058
895.04	20092
895.161	20145
895.283	20096
895.405	19951
895.526	20130
895.648	20081
895.769	20103
895.891	20054
896.012	20065
896.134	20161
896.255	20039
896.376	20062
896.498	20183
896.619	20031
896.74	20134
896.861	20096
896.982	20450
897.103	20427
897.224	20221
897.345	20199
897.466	20275
897.587	20202
897.708	20358
897.828	20309
897.949	20115
898.07	20202
898.19	20145
898.311	20362
898.431	20202
898.552	20309
898.672	20309
898.792	20324
898.913	20275
899.033	20206
899.153	20107
899.273	19928
899.393	20012
899.513	20103
899.633	20046
899.753	20054
899.873	19974
899.993	20020
900.113	19879
900.232	19997
900.352	19856
900.472	19856
900.591	19746
900.711	19845
900.83	19830
900.95	19860
901.069	19860
901.189	19906
901.308	19441
901.427	19331
901.546	19381
901.665	19419
901.784	19339
901.904	19274
902.023	19206
902.141	18848
902.26	18833
902.379	18932
902.498	18878
902.617	18977
902.735	18962
902.854	18928
902.973	18798
903.091	18601
903.21	18593
903.328	18509
903.446	18494
903.565	18399
903.683	18426
903.801	18304
903.919	18258
904.038	18338
904.156	18125
904.274	18304
904.392	18144
904.51	18083
904.627	18144
904.745	18262
904.863	18209
904.981	17988
905.098	17786
905.216	17870
905.334	17885
905.451	17874
905.569	17718
905.686	17935
905.803	17729
905.921	17577
906.038	17756
906.155	17771
906.272	17440
906.389	17573
906.506	17417
906.623	17379
906.74	17448
906.857	17258
906.974	17299
907.091	17311
907.208	17482
907.324	17353
907.441	17174
907.557	17162
907.674	17083
907.79	17018
907.907	17067
908.023	17083
908.139	17029
908.256	16991
908.372	16991
908.488	16991
908.604	16923
908.72	16824
908.836	16858
908.952	16820
909.068	16824
909.184	16862
909.3	16820
909.415	16748
909.531	16778
909.647	16615
909.762	16504
909.878	16421
909.993	16508
910.108	16474
910.224	16443
910.339	16443
910.454	16333
910.57	16333
910.685	16166
910.8	16474
910.915	16394
911.03	16386
911.145	16109
911.259	16029
911.374	16139
911.489	15979
911.604	16071
911.718	15857
911.833	15857
911.947	15614
912.062	15671
912.176	15854
912.291	15816
912.405	15869
912.519	15998
912.633	16055
912.748	15808
912.862	15835
912.976	15739
913.09	15591
913.204	15584
913.318	15762
913.431	15743
913.545	15690
913.659	15679
913.772	15682
913.886	15469
914	15416
914.113	15572
914.226	15561
914.34	15603
914.453	15370
914.566	15386
914.68	15397
914.793	15317
914.906	15085
915.019	15112
915.132	14921
915.245	14967
915.358	15089
915.47	15142
915.583	15077
915.696	15199
915.809	15116
915.921	15135
916.034	15047
916.146	14921
916.259	14914
916.371	15036
916.483	15051
916.595	14906
916.708	14956
916.82	14834
916.932	14876
917.044	14815
917.156	14956
917.268	14750
917.38	14727
917.491	14689
917.603	14724
917.715	14701
917.826	14807
917.938	14655
918.049	14613
918.161	14632
918.272	14727
918.384	14758
918.495	14594
918.606	14533
918.717	14450
918.828	14484
918.939	14571
919.05	14336
919.161	14492
919.272	14301
919.383	14347
919.494	14514
919.604	14651
919.715	14469
919.826	14374
919.936	14461
920.047	14484
920.157	14438
920.267	14663
920.378	14396
920.488	14434
920.598	14587
920.708	14686
920.818	14530
920.928	14499
921.038	14800
921.148	14590
921.258	14400
921.368	14252
921.477	14062
921.587	14187
921.697	14008
921.806	14240
921.916	13967
922.025	13811
922.134	13822
922.244	13734
922.353	13879
922.462	13723
922.571	13628
922.68	13499
922.789	13514
922.898	13502
923.007	13415
923.116	13483
923.224	13548
923.333	13441
923.442	13396
923.55	13270
923.659	13285
923.767	13354
923.876	13301
923.984	13320
924.092	13263
924.201	13221
924.309	13175
924.417	13266
924.525	13065
924.633	13118
924.741	14142
924.849	13046
924.956	13141
925.064	12924
925.172	12802
925.279	12814
925.387	12886
925.494	12871
925.602	13012
925.709	12985
925.816	12867
925.924	12829
926.031	12821
926.138	12814
926.245	12844
926.352	12753
926.459	12924
926.566	12954
926.673	12722
926.779	12601
926.886	12559
926.993	12490
927.099	12498
927.206	12448
927.312	12445
927.419	12509
927.525	12555
927.631	12528
927.737	12300
927.843	12330
927.95	12159
928.056	12262
928.162	12262
928.267	12289
928.373	12886
928.479	12410
928.585	12121
928.69	12285
928.796	12232
928.901	12194
929.007	11984
929.112	12175
929.218	12129
929.323	12007
929.428	11965
929.533	12087
929.638	11973
929.743	12068
929.848	12076
929.953	11927
930.058	11828
930.163	11661
930.267	11748
930.372	11855
930.477	11661
930.581	11832
930.685	11676
930.79	11615
930.894	11615
930.998	11524
931.103	11714
931.207	11326
931.311	11254
931.415	11189
931.519	10976
931.623	10999
