Data from test_V78500241_1927.txt Node
Date: Fri Mar 25 15:23:16 CST 2022
User: usil
Spectrometer: V785-0024
Trigger mode: 0
Integration Time (sec): 4.000000E-1
Scans to average: 1
Nonlinearity correction enabled: false
Boxcar width: 0
Storing dark spectrum: false
XAxis mode: Wavelengths
Number of Pixels in Spectrum: 1024
>>>>>Begin Spectral Data<<<<<
801.071	27827
801.214	27774
801.356	27462
801.499	27370
801.641	27355
801.783	27313
801.926	27374
802.068	27264
802.211	27249
802.353	27104
802.496	26971
802.638	27017
802.78	26929
802.923	26918
803.065	26853
803.208	27036
803.35	26960
803.492	27127
803.635	27116
803.777	27055
803.919	27230
804.061	27583
804.204	27336
804.346	27146
804.488	27051
804.63	27127
804.773	26963
804.915	27184
805.057	27203
805.199	27119
805.341	27188
805.483	27325
805.626	27313
805.768	27123
805.91	27272
806.052	27230
806.194	27154
806.336	27477
806.478	27256
806.62	27332
806.762	27351
806.904	27538
807.046	27819
807.188	27709
807.33	27774
807.472	27816
807.614	27625
807.756	27724
807.898	27580
808.04	27568
808.182	27526
808.324	27507
808.465	27496
808.607	27880
808.749	27956
808.891	28010
809.033	28116
809.174	27991
809.316	28055
809.458	27934
809.6	27797
809.741	28025
809.883	27964
810.025	28257
810.166	28124
810.308	28105
810.45	28177
810.591	28059
810.733	27941
810.875	27850
811.016	27724
811.158	27781
811.299	28029
811.441	28090
811.582	27991
811.724	28006
811.865	27960
812.007	28006
812.148	27983
812.29	27945
812.431	28051
812.573	28379
812.714	28405
812.855	28542
812.997	28599
813.138	28611
813.279	28432
813.421	28493
813.562	28440
813.703	28223
813.845	28074
813.986	27880
814.127	27831
814.268	27614
814.41	27629
814.551	27603
814.692	27797
814.833	27564
814.974	27629
815.115	27690
815.256	27473
815.397	27424
815.539	27378
815.68	27469
815.821	27447
815.962	27370
816.103	27370
816.244	27226
816.385	27344
816.526	27188
816.666	26929
816.807	26857
816.948	26982
817.089	27093
817.23	26861
817.371	26933
817.512	26921
817.653	27013
817.793	26807
817.934	26811
818.075	26944
818.216	26891
818.356	26826
818.497	26735
818.638	26495
818.778	26712
818.919	26667
819.06	26769
819.2	26857
819.341	26925
819.481	26944
819.622	27039
819.762	27264
819.903	27161
820.043	27077
820.184	26956
820.324	27028
820.465	27039
820.605	27028
820.746	26910
820.886	26948
821.026	27043
821.167	26986
821.307	27009
821.447	26925
821.588	26765
821.728	26724
821.868	26602
822.008	26336
822.149	26423
822.289	26282
822.429	26180
822.569	26027
822.709	26115
822.849	25940
822.99	25959
823.13	25818
823.27	25894
823.41	25719
823.55	25571
823.69	25677
823.83	25662
823.97	25651
824.11	25339
824.25	25487
824.389	25491
824.529	25597
824.669	25502
824.809	25556
824.949	25575
825.089	25499
825.228	25571
825.368	25304
825.508	25396
825.648	25270
825.787	25324
825.927	25453
826.067	25384
826.206	25324
826.346	25438
826.485	25487
826.625	25396
826.765	25415
826.904	25457
827.044	25236
827.183	25088
827.323	25152
827.462	25183
827.601	25110
827.741	25046
827.88	25236
828.02	24981
828.159	25069
828.298	25133
828.437	25015
828.577	25103
828.716	25152
828.855	25031
828.994	24840
829.134	24852
829.273	24806
829.412	24795
829.551	24753
829.69	24848
829.829	24909
829.968	24985
830.107	24913
830.246	24863
830.385	24776
830.524	24707
830.663	24722
830.802	24646
830.941	24502
831.08	24475
831.219	24566
831.357	24357
831.496	24741
831.635	24403
831.774	24235
831.913	24414
832.051	24152
832.19	24232
832.329	24338
832.467	24110
832.606	24057
832.744	23999
832.883	24152
833.022	24068
833.16	24098
833.299	24152
833.437	24155
833.576	24277
833.714	24205
833.852	24254
833.991	24247
834.129	24304
834.267	24403
834.406	24148
834.544	24300
834.682	24197
834.821	24155
834.959	24498
835.097	23950
835.235	24209
835.373	24121
835.511	24087
835.65	24015
835.788	24015
835.926	23874
836.064	23863
836.202	23817
836.34	24106
836.478	23996
836.615	23851
836.753	23958
836.891	24133
837.029	24034
837.167	23992
837.305	23954
837.443	23980
837.58	23760
837.718	23824
837.856	24030
837.993	23699
838.131	23878
838.269	23707
838.406	23680
838.544	23619
838.681	23478
838.819	23524
838.956	23315
839.094	23368
839.231	23311
839.369	23497
839.506	23748
839.643	23520
839.781	23254
839.918	23311
840.055	23277
840.193	23303
840.33	23326
840.467	23212
840.604	23379
840.742	23531
840.879	23178
841.016	23037
841.153	23189
841.29	23452
841.427	23170
841.564	23341
841.701	23284
841.838	23189
841.975	23105
842.112	23235
842.249	22991
842.385	22995
842.522	23143
842.659	23056
842.796	23014
842.933	22942
843.069	23029
843.206	22972
843.343	23143
843.479	22984
843.616	22980
843.752	22774
843.889	22771
844.025	22847
844.162	22790
844.298	22805
844.435	22854
844.571	22687
844.708	22881
844.844	22858
844.98	22843
845.117	22820
845.253	22755
845.389	22641
845.525	22839
845.661	22607
845.798	22519
845.934	22592
846.07	22417
846.206	22417
846.342	22653
846.478	22500
846.614	22386
846.75	22147
846.886	22169
847.022	22276
847.158	22261
847.294	22257
847.429	22325
847.565	22223
847.701	22512
847.837	22010
847.972	21880
848.108	22048
848.244	22025
848.379	21857
848.515	21968
848.65	21778
848.786	21892
848.921	21930
849.057	21960
849.192	21911
849.328	21831
849.463	21823
849.598	21732
849.734	21705
849.869	21743
850.004	21618
850.14	21648
850.275	21709
850.41	21469
850.545	21542
850.68	21641
850.815	21599
850.95	21439
851.085	21785
851.22	21751
851.355	21603
851.49	21549
851.625	21538
851.76	21637
851.895	21511
852.03	21462
852.165	21587
852.299	21576
852.434	21717
852.569	21652
852.703	21614
852.838	21686
852.973	21622
853.107	21739
853.242	21545
853.376	21401
853.511	21336
853.645	21367
853.78	21488
853.914	21504
854.048	21313
854.183	21405
854.317	21466
854.451	21679
854.585	21458
854.72	21477
854.854	21359
854.988	21416
855.122	21458
855.256	21195
855.39	21336
855.524	21374
855.658	21500
855.792	21424
855.926	21408
856.06	21389
856.194	21511
856.327	21340
856.461	21283
856.595	21306
856.729	21370
856.862	21473
856.996	21526
857.13	21553
857.263	21462
857.397	21462
857.53	21408
857.664	21363
857.797	21466
857.931	21507
858.064	21420
858.197	21530
858.331	21355
858.464	21317
858.597	21336
858.731	21458
858.864	21389
858.997	21401
859.13	21386
859.263	21412
859.396	21466
859.529	21344
859.662	21488
859.795	21294
859.928	21462
860.061	21572
860.194	21679
860.327	21466
860.46	21412
860.592	21728
860.725	21603
860.858	21488
860.99	21386
861.123	21329
861.256	21317
861.388	21401
861.521	22059
861.653	21332
861.786	21176
861.918	21283
862.05	21435
862.183	21306
862.315	21443
862.447	21332
862.58	21321
862.712	21100
862.844	21127
862.976	21268
863.108	21108
863.24	21603
863.372	20975
863.504	21135
863.636	21169
863.768	21116
863.9	21085
864.032	20960
864.164	21077
864.296	21142
864.428	21150
864.559	21165
864.691	21230
864.823	21024
864.954	21241
865.086	21161
865.217	21138
865.349	20956
865.48	21062
865.612	21005
865.743	21157
865.875	21070
866.006	21123
866.137	21066
866.269	20895
866.4	21051
866.531	21001
866.662	20887
866.793	20960
866.924	20925
867.055	20952
867.186	20952
867.317	21005
867.448	20819
867.579	20975
867.71	20842
867.841	20929
867.972	21001
868.103	20921
868.233	20834
868.364	21032
868.495	21020
868.625	21199
868.756	21275
868.886	21020
869.017	21184
869.147	21351
869.278	21374
869.408	21154
869.539	21112
869.669	21176
869.799	21184
869.929	21363
870.06	21245
870.19	21545
870.32	21511
870.45	21450
870.58	21618
870.71	21667
870.84	21778
870.97	21549
871.1	21511
871.23	21785
871.36	21701
871.489	21614
871.619	21804
871.749	21774
871.879	21911
872.008	21884
872.138	21823
872.267	21686
872.397	21622
872.526	21564
872.656	21652
872.785	21610
872.915	21819
873.044	21838
873.173	21888
873.303	21819
873.432	21911
873.561	21857
873.69	21808
873.819	21781
873.948	21876
874.077	21785
874.206	21876
874.335	21797
874.464	21975
874.593	22040
874.722	21994
874.851	22112
874.979	22063
875.108	22154
875.237	22025
875.365	21972
875.494	21880
875.623	22158
875.751	21960
875.88	22124
876.008	22101
876.136	22207
876.265	22462
876.393	22592
876.521	22459
876.65	22474
876.778	22390
876.906	22226
877.034	22329
877.162	22303
877.29	22272
877.418	22402
877.546	22417
877.674	22306
877.802	22379
877.93	22405
878.058	22344
878.185	22257
878.313	22329
878.441	22405
878.568	22177
878.696	22287
878.824	22500
878.951	22485
879.079	22512
879.206	22634
879.333	22550
879.461	22497
879.588	22561
879.715	22440
879.842	22683
879.97	22481
880.097	22166
880.224	22196
880.351	22219
880.478	22303
880.605	22135
880.732	22272
880.859	22379
880.986	22124
881.112	22093
881.239	22109
881.366	21903
881.493	21838
881.619	21739
881.746	21759
881.872	21732
881.999	21785
882.125	21755
882.252	21873
882.378	21698
882.505	21816
882.631	21656
882.757	21587
882.883	21614
883.01	21420
883.136	21481
883.262	21393
883.388	21355
883.514	21507
883.64	21633
883.766	21370
883.892	21230
884.018	21256
884.143	21401
884.269	21587
884.395	21188
884.52	21127
884.646	21150
884.772	21100
884.897	21024
885.023	21138
885.148	21108
885.274	21237
885.399	21203
885.524	21062
885.65	21131
885.775	21135
885.9	21051
886.025	21169
886.15	21096
886.275	20975
886.4	20971
886.525	21070
886.65	21093
886.775	21264
886.9	21226
887.025	21332
887.149	21180
887.274	20838
887.399	21028
887.523	20883
887.648	20849
887.773	20811
887.897	20849
888.021	20746
888.146	20834
888.27	20963
888.395	20849
888.519	20891
888.643	20880
888.767	20982
888.891	20895
889.015	20762
889.139	20834
889.263	20549
889.387	20826
889.511	20826
889.635	20857
889.759	20556
889.883	20670
890.006	20708
890.13	20819
890.254	20545
890.377	20507
890.501	20446
890.624	20366
890.748	20450
890.871	20275
890.995	20180
891.118	20221
891.241	20202
891.364	20317
891.488	20393
891.611	20301
891.734	20214
891.857	20343
891.98	20206
892.103	20248
892.226	20362
892.349	20240
892.471	19970
892.594	20172
892.717	20221
892.839	20084
892.962	20081
893.085	20191
893.207	20027
893.33	20012
893.452	20100
893.575	20187
893.697	20157
893.819	20309
893.941	20275
894.064	20309
894.186	20046
894.308	20073
894.43	20191
894.552	20313
894.674	20355
894.796	19947
894.918	20084
895.04	20103
895.161	20218
895.283	20119
895.405	20119
895.526	20043
895.648	20149
895.769	20275
895.891	20142
896.012	20134
896.134	20183
896.255	20043
896.376	20035
896.498	20180
896.619	20309
896.74	20134
896.861	20225
896.982	20438
897.103	20571
897.224	20374
897.345	20423
897.466	20305
897.587	20294
897.708	20431
897.828	20347
897.949	20259
898.07	20233
898.19	20278
898.311	20469
898.431	20355
898.552	20355
898.672	20313
898.792	20370
898.913	20389
899.033	20240
899.153	20142
899.273	20176
899.393	20035
899.513	20157
899.633	20062
899.753	20065
899.873	20039
899.993	20027
900.113	20039
900.232	20027
900.352	20035
900.472	19879
900.591	19830
900.711	19909
900.83	19719
900.95	19932
901.069	19978
901.189	19833
901.308	19457
901.427	19396
901.546	19400
901.665	19453
901.784	19491
901.904	19320
902.023	19293
902.141	19084
902.26	19008
902.379	19004
902.498	19050
902.617	18894
902.735	19065
902.854	18863
902.973	18867
903.091	18696
903.21	18585
903.328	18635
903.446	18620
903.565	18490
903.683	18528
903.801	18403
903.919	18289
904.038	18483
904.156	18209
904.274	18213
904.392	18148
904.51	18060
904.627	18243
904.745	18167
904.863	18209
904.981	17901
905.098	17950
905.216	17817
905.334	17870
905.451	17843
905.569	17878
905.686	17961
905.803	17870
905.921	17638
906.038	17733
906.155	17699
906.272	17558
906.389	17577
906.506	17360
906.623	17429
906.74	17410
906.857	17280
906.974	17322
907.091	17516
907.208	17554
907.324	17444
907.441	17299
907.557	17204
907.674	17208
907.79	17124
907.907	17094
908.023	17140
908.139	17200
908.256	17018
908.372	17086
908.488	17056
908.604	16885
908.72	16896
908.836	16843
908.952	16915
909.068	16889
909.184	16976
909.3	16691
909.415	16881
909.531	16843
909.647	16683
909.762	16588
909.878	16664
909.993	16489
910.108	16535
910.224	16538
910.339	16504
910.454	16462
910.57	16352
910.685	16356
910.8	16588
910.915	16474
911.03	16394
911.145	16322
911.259	16207
911.374	16154
911.489	16131
911.604	15975
911.718	15873
911.833	16029
911.947	15808
912.062	15755
912.176	15884
912.291	15915
912.405	15800
912.519	16029
912.633	16139
912.748	15983
912.862	15804
912.976	15698
913.09	15603
913.204	15736
913.318	15724
913.431	15892
913.545	15819
913.659	15797
913.772	15682
913.886	15511
914	15488
914.113	15694
914.226	15614
914.34	15561
914.453	15382
914.566	15545
914.68	15450
914.793	15279
914.906	15150
915.019	15135
915.132	15066
915.245	15104
915.358	15135
915.47	15131
915.583	15203
915.696	15207
915.809	15192
915.921	15275
916.034	15017
916.146	15001
916.259	15051
916.371	15032
916.483	15013
916.595	14967
916.708	14963
916.82	15009
916.932	15005
917.044	14902
917.156	14876
917.268	14746
917.38	14796
917.491	14693
917.603	14781
917.715	14925
917.826	14876
917.938	14773
918.049	14632
918.161	14712
918.272	14891
918.384	14842
918.495	14644
918.606	14533
918.717	14427
918.828	14533
918.939	14541
919.05	14465
919.161	14518
919.272	14309
919.383	14412
919.494	14575
919.604	14727
919.715	14423
919.826	14408
919.936	14454
920.047	14514
920.157	14412
920.267	14743
920.378	14514
920.488	14427
920.598	14632
920.708	14754
920.818	14571
920.928	14552
921.038	14731
921.148	14819
921.258	14427
921.368	14370
921.477	14206
921.587	14225
921.697	14100
921.806	14233
921.916	14035
922.025	13913
922.134	13902
922.244	13765
922.353	13883
922.462	13723
922.571	13685
922.68	13605
922.789	13571
922.898	13540
923.007	13495
923.116	13544
923.224	13453
923.333	13567
923.442	13426
923.55	13316
923.659	13327
923.767	13537
923.876	13278
923.984	13411
924.092	13183
924.201	13282
924.309	13282
924.417	13285
924.525	13206
924.633	13095
924.741	14092
924.849	12935
924.956	13164
925.064	13015
925.172	12886
925.279	12859
925.387	12954
925.494	12985
925.602	13053
925.709	12989
925.816	12745
925.924	12795
926.031	12962
926.138	12886
926.245	12859
926.352	12863
926.459	12878
926.566	12882
926.673	12837
926.779	12692
926.886	12722
926.993	12528
927.099	12490
927.206	12464
927.312	12456
927.419	12479
927.525	12445
927.631	12544
927.737	12399
927.843	12407
927.95	12232
928.056	12395
928.162	12365
928.267	12270
928.373	12703
928.479	12334
928.585	12148
928.69	12334
928.796	12304
928.901	12178
929.007	12125
929.112	12178
929.218	12117
929.323	12121
929.428	12038
929.533	12106
929.638	11969
929.743	11992
929.848	12060
929.953	11992
930.058	11920
930.163	11714
930.267	11707
930.372	11870
930.477	11707
930.581	11980
930.685	11737
930.79	11646
930.894	11585
930.998	11630
931.103	11790
931.207	11337
931.311	11223
931.415	11201
931.519	11037
931.623	11025
