Data from test_V78500241_3392.txt Node
Date: Fri Mar 25 15:33:28 CST 2022
User: usil
Spectrometer: V785-0024
Trigger mode: 0
Integration Time (sec): 4.000000E-1
Scans to average: 1
Nonlinearity correction enabled: false
Boxcar width: 0
Storing dark spectrum: false
XAxis mode: Wavelengths
Number of Pixels in Spectrum: 1024
>>>>>Begin Spectral Data<<<<<
801.071	27291
801.214	27245
801.356	27013
801.499	26986
801.641	26872
801.783	26724
801.926	26807
802.068	26674
802.211	26750
802.353	26629
802.496	26465
802.638	26423
802.78	26377
802.923	26366
803.065	26278
803.208	26313
803.35	26271
803.492	26571
803.635	26682
803.777	26465
803.919	26659
804.061	26899
804.204	26651
804.346	26587
804.488	26507
804.63	26507
804.773	26374
804.915	26393
805.057	26777
805.199	26541
805.341	26575
805.483	26697
805.626	26625
805.768	26598
805.91	26560
806.052	26731
806.194	26545
806.336	26815
806.478	26712
806.62	26667
806.762	26785
806.904	26864
807.046	27123
807.188	27138
807.33	27173
807.472	27154
807.614	26933
807.756	27032
807.898	26883
808.04	26975
808.182	26845
808.324	27066
808.465	27058
808.607	27077
808.749	27355
808.891	27462
809.033	27313
809.174	27302
809.316	27264
809.458	27165
809.6	27275
809.741	27389
809.883	27424
810.025	27542
810.166	27671
810.308	27652
810.45	27473
810.591	27587
810.733	27344
810.875	27252
811.016	27154
811.158	27211
811.299	27374
811.441	27439
811.582	27408
811.724	27260
811.865	27085
812.007	27268
812.148	27150
812.29	27279
812.431	27526
812.573	27576
812.714	27466
812.855	27656
812.997	27743
813.138	27979
813.279	27720
813.421	27743
813.562	27625
813.703	27633
813.845	27515
813.986	27176
814.127	26986
814.268	26887
814.41	26956
814.551	26792
814.692	27104
814.833	26918
814.974	26910
815.115	26807
815.256	26800
815.397	26712
815.539	26807
815.68	26716
815.821	26640
815.962	26689
816.103	26785
816.244	26594
816.385	26533
816.526	26412
816.666	26301
816.807	26134
816.948	26237
817.089	26180
817.23	26210
817.371	26172
817.512	26058
817.653	26221
817.793	26111
817.934	26206
818.075	26016
818.216	26096
818.356	26092
818.497	26164
818.638	26027
818.778	25989
818.919	25993
819.06	25966
819.2	26092
819.341	26115
819.481	26134
819.622	26259
819.762	26450
819.903	26514
820.043	26267
820.184	26237
820.324	26210
820.465	26351
820.605	26221
820.746	26214
820.886	26172
821.026	26271
821.167	26164
821.307	26358
821.447	26069
821.588	26054
821.728	25955
821.868	25753
822.008	25761
822.149	25616
822.289	25567
822.429	25529
822.569	25274
822.709	25438
822.849	25080
822.99	25190
823.13	25145
823.27	25023
823.41	24882
823.55	24856
823.69	25027
823.83	24985
823.97	24981
824.11	24730
824.25	24798
824.389	24711
824.529	24749
824.669	24833
824.809	24882
824.949	24817
825.089	24985
825.228	24749
825.368	24658
825.508	24726
825.648	24707
825.787	24757
825.927	24772
826.067	24525
826.206	24570
826.346	24627
826.485	24825
826.625	24650
826.765	24760
826.904	24764
827.044	24414
827.183	24445
827.323	24315
827.462	24407
827.601	24490
827.741	24353
827.88	24456
828.02	24197
828.159	24235
828.298	24334
828.437	24441
828.577	24319
828.716	24350
828.855	24292
828.994	24030
829.134	24087
829.273	24121
829.412	24057
829.551	23969
829.69	24087
829.829	24110
829.968	24072
830.107	24102
830.246	24136
830.385	23965
830.524	23904
830.663	23874
830.802	23790
830.941	23638
831.08	23745
831.219	23752
831.357	23695
831.496	23977
831.635	23627
831.774	23570
831.913	23714
832.051	23509
832.19	23551
832.329	23493
832.467	23326
832.606	23277
832.744	23311
832.883	23387
833.022	23239
833.16	23349
833.299	23303
833.437	23474
833.576	23402
833.714	23562
833.852	23417
833.991	23589
834.129	23592
834.267	23493
834.406	23436
834.544	23535
834.682	23474
834.821	23402
834.959	23547
835.097	23269
835.235	23467
835.373	23478
835.511	23337
835.65	23337
835.788	23299
835.926	23258
836.064	23029
836.202	23075
836.34	23269
836.478	23330
836.615	23117
836.753	23212
836.891	23334
837.029	23368
837.167	23223
837.305	23193
837.443	23288
837.58	23124
837.718	23239
837.856	23208
837.993	23220
838.131	23189
838.269	22980
838.406	23044
838.544	22889
838.681	22847
838.819	22809
838.956	22531
839.094	22630
839.231	22679
839.369	22736
839.506	22957
839.643	22881
839.781	22584
839.918	22565
840.055	22664
840.193	22637
840.33	22508
840.467	22611
840.604	22542
840.742	22911
840.879	22455
841.016	22481
841.153	22440
841.29	22675
841.427	22588
841.564	22500
841.701	22443
841.838	22580
841.975	22508
842.112	22428
842.249	22341
842.385	22310
842.522	22451
842.659	22348
842.796	22291
842.933	22325
843.069	22318
843.206	22303
843.343	22375
843.479	22394
843.616	22246
843.752	22078
843.889	22082
844.025	22150
844.162	21949
844.298	22185
844.435	22093
844.571	22021
844.708	22109
844.844	22192
844.98	22219
845.117	22181
845.253	22017
845.389	22048
845.525	22109
845.661	21975
845.798	21732
845.934	21934
846.07	21785
846.206	21743
846.342	21884
846.478	21831
846.614	21549
846.75	21583
846.886	21690
847.022	21652
847.158	21519
847.294	21519
847.429	21637
847.565	21439
847.701	21816
847.837	21298
847.972	21351
848.108	21443
848.244	21344
848.379	21207
848.515	21131
848.65	21252
848.786	21226
848.921	21169
849.057	21252
849.192	21252
849.328	21268
849.463	21154
849.598	21100
849.734	21070
849.869	21001
850.004	21017
850.14	20933
850.275	21017
850.41	20876
850.545	20902
850.68	20921
850.815	20914
850.95	20933
851.085	20986
851.22	21055
851.355	20899
851.49	20853
851.625	20861
851.76	20891
851.895	20918
852.03	20857
852.165	20948
852.299	21020
852.434	20880
852.569	20853
852.703	20891
852.838	20971
852.973	21009
853.107	20952
853.242	20792
853.376	20777
853.511	20686
853.645	20754
853.78	20754
853.914	20701
854.048	20636
854.183	20746
854.317	20785
854.451	20872
854.585	20834
854.72	20712
854.854	20834
854.988	20769
855.122	20716
855.256	20484
855.39	20705
855.524	20739
855.658	20735
855.792	20830
855.926	20632
856.06	20777
856.194	20727
856.327	20765
856.461	20705
856.595	20648
856.729	20796
856.862	20872
856.996	20773
857.13	20708
857.263	20861
857.397	20830
857.53	20739
857.664	20758
857.797	20853
857.931	20861
858.064	20849
858.197	20902
858.331	20629
858.464	20655
858.597	20621
858.731	20644
858.864	20640
858.997	20651
859.13	20682
859.263	20796
859.396	20785
859.529	20716
859.662	20674
859.795	20670
859.928	20781
860.061	20864
860.194	20975
860.327	20758
860.46	20754
860.592	20887
860.725	20971
860.858	20956
860.99	20720
861.123	20773
861.256	20678
861.388	20765
861.521	21473
861.653	20716
861.786	20495
861.918	20659
862.05	20602
862.183	20651
862.315	20621
862.447	20845
862.58	20686
862.712	20434
862.844	20480
862.976	20522
863.108	20526
863.24	20887
863.372	20480
863.504	20431
863.636	20412
863.768	20503
863.9	20358
864.032	20454
864.164	20446
864.296	20423
864.428	20674
864.559	20579
864.691	20461
864.823	20400
864.954	20358
865.086	20389
865.217	20381
865.349	20347
865.48	20358
865.612	20313
865.743	20526
865.875	20309
866.006	20237
866.137	20347
866.269	20282
866.4	20320
866.531	20195
866.662	20259
866.793	20202
866.924	20153
867.055	20324
867.186	20309
867.317	20244
867.448	20218
867.579	20259
867.71	20256
867.841	20161
867.972	20389
868.103	20233
868.233	20320
868.364	20290
868.495	20298
868.625	20530
868.756	20648
868.886	20442
869.017	20541
869.147	20629
869.278	20716
869.408	20476
869.539	20552
869.669	20613
869.799	20621
869.929	20648
870.06	20598
870.19	20925
870.32	20842
870.45	20811
870.58	20963
870.71	21119
870.84	21017
870.97	20941
871.1	20941
871.23	21123
871.36	21100
871.489	21070
871.619	21070
871.749	21032
871.879	21176
872.008	21176
872.138	21291
872.267	21036
872.397	21135
872.526	20933
872.656	20937
872.785	20952
872.915	21169
873.044	21252
873.173	21249
873.303	21306
873.432	21264
873.561	21237
873.69	21218
873.819	21245
873.948	21275
874.077	21100
874.206	21036
874.335	21180
874.464	21268
874.593	21367
874.722	21367
874.851	21450
874.979	21458
875.108	21420
875.237	21370
875.365	21287
875.494	21447
875.623	21492
875.751	21313
875.88	21492
876.008	21519
876.136	21557
876.265	21838
876.393	21998
876.521	21838
876.65	21930
876.778	21762
876.906	21724
877.034	21739
877.162	21766
877.29	21629
877.418	21774
877.546	21781
877.674	21808
877.802	21778
877.93	21747
878.058	21690
878.185	21717
878.313	21732
878.441	21751
878.568	21663
878.696	21705
878.824	21857
878.951	21747
879.079	21884
879.206	21998
879.333	21850
879.461	21884
879.588	21770
879.715	21991
879.842	21991
879.97	21804
880.097	21488
880.224	21561
880.351	21724
880.478	21557
880.605	21572
880.732	21652
880.859	21755
880.986	21667
881.112	21633
881.239	21466
881.366	21298
881.493	21294
881.619	21154
881.746	21203
881.872	21085
881.999	21096
882.125	21218
882.252	21154
882.378	21123
882.505	21237
882.631	21093
882.757	20891
882.883	20952
883.01	20872
883.136	20811
883.262	20800
883.388	20701
883.514	20845
883.64	20765
883.766	20792
883.892	20716
884.018	20659
884.143	20739
884.269	20811
884.395	20625
884.52	20469
884.646	20511
884.772	20415
884.897	20450
885.023	20575
885.148	20629
885.274	20613
885.399	20651
885.524	20533
885.65	20484
885.775	20552
885.9	20518
886.025	20697
886.15	20552
886.275	20552
886.4	20301
886.525	20503
886.65	20419
886.775	20362
886.9	20564
887.025	20724
887.149	20469
887.274	20408
887.399	20298
887.523	20244
887.648	20374
887.773	20168
887.897	20301
888.021	20404
888.146	20225
888.27	20442
888.395	20423
888.519	20377
888.643	20313
888.767	20396
888.891	20263
889.015	20183
889.139	20168
889.263	19993
889.387	20210
889.511	20244
889.635	20336
889.759	19947
889.883	20039
890.006	20103
890.13	20134
890.254	20077
890.377	20039
890.501	19811
890.624	19845
890.748	19841
890.871	19799
890.995	19571
891.118	19590
891.241	19624
891.364	19704
891.488	19830
891.611	19753
891.734	19719
891.857	19624
891.98	19784
892.103	19693
892.226	19643
892.349	19514
892.471	19521
892.594	19586
892.717	19548
892.839	19609
892.962	19597
893.085	19609
893.207	19620
893.33	19533
893.452	19483
893.575	19681
893.697	19556
893.819	19837
893.941	19753
894.064	19689
894.186	19571
894.308	19518
894.43	19841
894.552	19811
894.674	19643
894.796	19533
894.918	19605
895.04	19567
895.161	19628
895.283	19575
895.405	19499
895.526	19571
895.648	19506
895.769	19613
895.891	19567
896.012	19715
896.134	19590
896.255	19655
896.376	19571
896.498	19685
896.619	19639
896.74	19586
896.861	19757
896.982	19959
897.103	20008
897.224	19822
897.345	19894
897.466	19894
897.587	19841
897.708	20016
897.828	19849
897.949	19643
898.07	19712
898.19	19742
898.311	19925
898.431	19879
898.552	19830
898.672	19925
898.792	19894
898.913	19890
899.033	19757
899.153	19594
899.273	19643
899.393	19639
899.513	19639
899.633	19677
899.753	19582
899.873	19438
899.993	19765
900.113	19445
900.232	19521
900.352	19396
900.472	19457
900.591	19274
900.711	19400
900.83	19282
900.95	19415
901.069	19457
901.189	19244
901.308	19118
901.427	18856
901.546	18913
901.665	19046
901.784	18932
901.904	18886
902.023	18722
902.141	18582
902.26	18525
902.379	18525
902.498	18483
902.617	18357
902.735	18471
902.854	18429
902.973	18429
903.091	18129
903.21	18136
903.328	18148
903.446	17992
903.565	17980
903.683	18068
903.801	17832
903.919	17908
904.038	17958
904.156	17741
904.274	17817
904.392	17802
904.51	17695
904.627	17623
904.745	17855
904.863	17805
904.981	17585
905.098	17376
905.216	17356
905.334	17406
905.451	17395
905.569	17341
905.686	17383
905.803	17410
905.921	17265
906.038	17239
906.155	17067
906.272	17048
906.389	17128
906.506	16965
906.623	16900
906.74	16987
906.857	16748
906.974	16877
907.091	17071
907.208	17094
907.324	17079
907.441	16881
907.557	16790
907.674	16611
907.79	16577
907.907	16546
908.023	16729
908.139	16687
908.256	16698
908.372	16596
908.488	16588
908.604	16398
908.72	16443
908.836	16455
908.952	16386
909.068	16382
909.184	16466
909.3	16390
909.415	16447
909.531	16363
909.647	16093
909.762	16097
909.878	16074
909.993	16097
910.108	16086
910.224	15998
910.339	16112
910.454	16002
910.57	15945
910.685	15819
910.8	16051
910.915	16093
911.03	15975
911.145	15747
911.259	15701
911.374	15732
911.489	15633
911.604	15542
911.718	15519
911.833	15447
911.947	15340
912.062	15294
912.176	15450
912.291	15462
912.405	15466
912.519	15587
912.633	15633
912.748	15477
912.862	15435
912.976	15408
913.09	15150
913.204	15272
913.318	15313
913.431	15351
913.545	15363
913.659	15408
913.772	15211
913.886	15058
914	15100
914.113	15119
914.226	15192
914.34	15108
914.453	15028
914.566	15169
914.68	14952
914.793	15017
914.906	14746
915.019	14651
915.132	14651
915.245	14678
915.358	14594
915.47	14712
915.583	14708
915.696	14659
915.809	14838
915.921	14857
916.034	14575
916.146	14568
916.259	14556
916.371	14655
916.483	14621
916.595	14564
916.708	14621
916.82	14514
916.932	14492
917.044	14484
917.156	14469
917.268	14427
917.38	14362
917.491	14434
917.603	14465
917.715	14374
917.826	14385
917.938	14343
918.049	14221
918.161	14252
918.272	14473
918.384	14404
918.495	14358
918.606	14202
918.717	14183
918.828	14138
918.939	14157
919.05	14039
919.161	14084
919.272	13997
919.383	14020
919.494	14176
919.604	14301
919.715	14142
919.826	14046
919.936	14111
920.047	14161
920.157	14107
920.267	14263
920.378	14153
920.488	14100
920.598	14328
920.708	14415
920.818	14286
920.928	14237
921.038	14358
921.148	14355
921.258	14187
921.368	14005
921.477	13833
921.587	13822
921.697	13731
921.806	13849
921.916	13746
922.025	13540
922.134	13514
922.244	13422
922.353	13620
922.462	13438
922.571	13274
922.68	13137
922.789	13149
922.898	13137
923.007	13152
923.116	13187
923.224	13183
923.333	13091
923.442	13053
923.55	13004
923.659	13019
923.767	13042
923.876	12890
923.984	13015
924.092	12833
924.201	12916
924.309	12852
924.417	12913
924.525	12859
924.633	12787
924.741	13761
924.849	12631
924.956	12764
925.064	12597
925.172	12517
925.279	12589
925.387	12631
925.494	12654
925.602	12707
925.709	12700
925.816	12441
925.924	12532
926.031	12604
926.138	12570
926.245	12616
926.352	12502
926.459	12627
926.566	12616
926.673	12403
926.779	12304
926.886	12292
926.993	12133
927.099	12175
927.206	12060
927.312	12121
927.419	12197
927.525	12182
927.631	12194
927.737	12019
927.843	12060
927.95	11847
928.056	11958
928.162	11923
928.267	12117
928.373	12528
928.479	12076
928.585	11863
928.69	11969
928.796	11999
928.901	11840
929.007	11748
929.112	11885
929.218	11760
929.323	11786
929.428	11691
929.533	11805
929.638	11589
929.743	11653
929.848	11756
929.953	11718
930.058	11463
930.163	11391
930.267	11395
930.372	11585
930.477	11433
930.581	11615
930.685	11410
930.79	11311
930.894	11376
930.998	11356
931.103	11463
931.207	11071
931.311	10999
931.415	10900
931.519	10759
931.623	10649
