Data from test_V78500241_2587.txt Node
Date: Fri Mar 25 15:27:52 CST 2022
User: usil
Spectrometer: V785-0024
Trigger mode: 0
Integration Time (sec): 4.000000E-1
Scans to average: 1
Nonlinearity correction enabled: false
Boxcar width: 0
Storing dark spectrum: false
XAxis mode: Wavelengths
Number of Pixels in Spectrum: 1024
>>>>>Begin Spectral Data<<<<<
801.071	27138
801.214	26979
801.356	26785
801.499	26754
801.641	26503
801.783	26560
801.926	26568
802.068	26549
802.211	26423
802.353	26347
802.496	26138
802.638	26221
802.78	26168
802.923	26084
803.065	26024
803.208	26138
803.35	26210
803.492	26313
803.635	26339
803.777	26077
803.919	26305
804.061	26640
804.204	26317
804.346	26237
804.488	26317
804.63	26313
804.773	26214
804.915	26275
805.057	26263
805.199	26077
805.341	26393
805.483	26431
805.626	26431
805.768	26115
805.91	26488
806.052	26476
806.194	26313
806.336	26488
806.478	26507
806.62	26347
806.762	26419
806.904	26655
807.046	26899
807.188	26902
807.33	26845
807.472	26921
807.614	26697
807.756	26842
807.898	26739
808.04	26636
808.182	26697
808.324	26769
808.465	26701
808.607	26960
808.749	27005
808.891	27096
809.033	27275
809.174	26994
809.316	26990
809.458	27070
809.6	27009
809.741	27157
809.883	27123
810.025	27321
810.166	27176
810.308	27199
810.45	27173
810.591	27100
810.733	27032
810.875	26982
811.016	26990
811.158	26906
811.299	27112
811.441	27252
811.582	27279
811.724	26914
811.865	26891
812.007	26864
812.148	26895
812.29	27062
812.431	27100
812.573	27256
812.714	27370
812.855	27458
812.997	27466
813.138	27667
813.279	27587
813.421	27481
813.562	27389
813.703	27310
813.845	27055
813.986	26933
814.127	26838
814.268	26804
814.41	26659
814.551	26697
814.692	26659
814.833	26495
814.974	26484
815.115	26568
815.256	26594
815.397	26507
815.539	26518
815.68	26427
815.821	26358
815.962	26408
816.103	26374
816.244	26271
816.385	26244
816.526	26142
816.666	26062
816.807	25913
816.948	25875
817.089	26035
817.23	25909
817.371	25875
817.512	25928
817.653	25909
817.793	25750
817.934	25845
818.075	25913
818.216	25765
818.356	25932
818.497	25780
818.638	25495
818.778	25590
818.919	25620
819.06	25696
819.2	25830
819.341	25906
819.481	26005
819.622	25974
819.762	26263
819.903	26191
820.043	26062
820.184	25966
820.324	25966
820.465	25932
820.605	25989
820.746	26096
820.886	25917
821.026	25951
821.167	25989
821.307	26111
821.447	25879
821.588	25757
821.728	25719
821.868	25571
822.008	25335
822.149	25499
822.289	25400
822.429	25133
822.569	25065
822.709	25187
822.849	24996
822.99	24878
823.13	24741
823.27	24875
823.41	24692
823.55	24688
823.69	24734
823.83	24772
823.97	24631
824.11	24471
824.25	24483
824.389	24490
824.529	24483
824.669	24483
824.809	24688
824.949	24616
825.089	24582
825.228	24486
825.368	24464
825.508	24235
825.648	24433
825.787	24479
825.927	24456
826.067	24365
826.206	24369
826.346	24399
826.485	24437
826.625	24525
826.765	24490
826.904	24505
827.044	24057
827.183	24117
827.323	24133
827.462	24178
827.601	24041
827.741	23980
827.88	24041
828.02	23931
828.159	24125
828.298	24102
828.437	24182
828.577	24049
828.716	24152
828.855	23999
828.994	23767
829.134	23809
829.273	23889
829.412	23771
829.551	23741
829.69	23794
829.829	23882
829.968	23828
830.107	23870
830.246	23904
830.385	23729
830.524	23691
830.663	23760
830.802	23547
830.941	23349
831.08	23330
831.219	23539
831.357	23364
831.496	23649
831.635	23376
831.774	23322
831.913	23284
832.051	23235
832.19	23220
832.329	23216
832.467	23136
832.606	23037
832.744	22972
832.883	23128
833.022	23052
833.16	23048
833.299	23090
833.437	23128
833.576	23151
833.714	23064
833.852	23178
833.991	23208
834.129	23303
834.267	23132
834.406	23083
834.544	23155
834.682	23075
834.821	23105
834.959	23307
835.097	23166
835.235	23181
835.373	23151
835.511	23113
835.65	23056
835.788	23086
835.926	22873
836.064	22656
836.202	22889
836.34	23022
836.478	23052
836.615	22881
836.753	22915
836.891	22930
837.029	22957
837.167	22976
837.305	22866
837.443	23037
837.58	22915
837.718	23041
837.856	22877
837.993	22873
838.131	22908
838.269	22717
838.406	22755
838.544	22653
838.681	22550
838.819	22531
838.956	22459
839.094	22375
839.231	22306
839.369	22424
839.506	22767
839.643	22531
839.781	22249
839.918	22299
840.055	22329
840.193	22409
840.33	22234
840.467	22333
840.604	22367
840.742	22516
840.879	22120
841.016	22394
841.153	22135
841.29	22405
841.427	22139
841.564	22402
841.701	22272
841.838	22215
841.975	22249
842.112	22238
842.249	22082
842.385	22173
842.522	22310
842.659	22181
842.796	22017
842.933	21945
843.069	22040
843.206	22002
843.343	22158
843.479	22074
843.616	22124
843.752	21895
843.889	21819
844.025	21682
844.162	21842
844.298	21823
844.435	21698
844.571	21812
844.708	21812
844.844	21899
844.98	21926
845.117	21975
845.253	21755
845.389	21660
845.525	21717
845.661	21675
845.798	21568
845.934	21545
846.07	21545
846.206	21580
846.342	21686
846.478	21591
846.614	21397
846.75	21218
846.886	21443
847.022	21340
847.158	21325
847.294	21310
847.429	21332
847.565	21256
847.701	21557
847.837	21051
847.972	21024
848.108	21104
848.244	21062
848.379	21020
848.515	20914
848.65	20883
848.786	20861
848.921	20796
849.057	21074
849.192	21062
849.328	21020
849.463	20979
849.598	20849
849.734	20815
849.869	20712
850.004	20731
850.14	20712
850.275	20807
850.41	20617
850.545	20693
850.68	20640
850.815	20651
850.95	20708
851.085	20849
851.22	20788
851.355	20674
851.49	20667
851.625	20571
851.76	20583
851.895	20507
852.03	20575
852.165	20636
852.299	20712
852.434	20712
852.569	20693
852.703	20648
852.838	20777
852.973	20899
853.107	20686
853.242	20644
853.376	20473
853.511	20415
853.645	20351
853.78	20644
853.914	20526
854.048	20484
854.183	20556
854.317	20617
854.451	20648
854.585	20461
854.72	20556
854.854	20617
854.988	20381
855.122	20530
855.256	20343
855.39	20442
855.524	20560
855.658	20530
855.792	20507
855.926	20412
856.06	20495
856.194	20625
856.327	20419
856.461	20400
856.595	20442
856.729	20492
856.862	20602
856.996	20454
857.13	20579
857.263	20549
857.397	20587
857.53	20465
857.664	20606
857.797	20484
857.931	20606
858.064	20545
858.197	20495
858.331	20400
858.464	20518
858.597	20313
858.731	20454
858.864	20518
858.997	20446
859.13	20488
859.263	20465
859.396	20552
859.529	20457
859.662	20404
859.795	20511
859.928	20575
860.061	20606
860.194	20682
860.327	20503
860.46	20541
860.592	20526
860.725	20632
860.858	20495
860.99	20492
861.123	20412
861.256	20415
861.388	20400
861.521	21108
861.653	20294
861.786	20294
861.918	20309
862.05	20446
862.183	20374
862.315	20530
862.447	20499
862.58	20522
862.712	20187
862.844	20111
862.976	20301
863.108	20115
863.24	20689
863.372	20221
863.504	20164
863.636	20324
863.768	20271
863.9	20290
864.032	20202
864.164	20077
864.296	20202
864.428	20282
864.559	20305
864.691	20237
864.823	20168
864.954	20233
865.086	20168
865.217	20058
865.349	20164
865.48	20035
865.612	20176
865.743	20221
865.875	20138
866.006	20142
866.137	20134
866.269	20263
866.4	20183
866.531	20103
866.662	19993
866.793	20187
866.924	20092
867.055	20020
867.186	19951
867.317	20043
867.448	19890
867.579	20058
867.71	19852
867.841	19852
867.972	20027
868.103	20088
868.233	20008
868.364	20012
868.495	20191
868.625	20134
868.756	20317
868.886	20210
869.017	20347
869.147	20419
869.278	20320
869.408	20328
869.539	20290
869.669	20332
869.799	20339
869.929	20343
870.06	20423
870.19	20507
870.32	20537
870.45	20613
870.58	20670
870.71	20800
870.84	20788
870.97	20750
871.1	20689
871.23	20845
871.36	20849
871.489	20762
871.619	20781
871.749	21070
871.879	20960
872.008	21028
872.138	20845
872.267	20941
872.397	20845
872.526	20625
872.656	20750
872.785	20674
872.915	20929
873.044	20906
873.173	20937
873.303	21001
873.432	20899
873.561	21001
873.69	20910
873.819	20914
873.948	20990
874.077	20895
874.206	20853
874.335	20948
874.464	21066
874.593	21020
874.722	21020
874.851	21214
874.979	21256
875.108	21252
875.237	21085
875.365	21100
875.494	21154
875.623	21226
875.751	21180
875.88	21237
876.008	21378
876.136	21507
876.265	21523
876.393	21778
876.521	21603
876.65	21656
876.778	21538
876.906	21610
877.034	21447
877.162	21485
877.29	21462
877.418	21549
877.546	21610
877.674	21466
877.802	21515
877.93	21534
878.058	21485
878.185	21283
878.313	21397
878.441	21542
878.568	21268
878.696	21481
878.824	21534
878.951	21492
879.079	21694
879.206	21648
879.333	21663
879.461	21675
879.588	21534
879.715	21705
879.842	21930
879.97	21625
880.097	21401
880.224	21412
880.351	21405
880.478	21507
880.605	21363
880.732	21336
880.859	21450
880.986	21382
881.112	21226
881.239	21169
881.366	21173
881.493	20979
881.619	20925
881.746	20887
881.872	20834
881.999	20998
882.125	20796
882.252	21043
882.378	20952
882.505	20971
882.631	20834
882.757	20621
882.883	20762
883.01	20693
883.136	20609
883.262	20526
883.388	20545
883.514	20636
883.64	20670
883.766	20602
883.892	20446
884.018	20549
884.143	20533
884.269	20594
884.395	20351
884.52	20347
884.646	20271
884.772	20100
884.897	20259
885.023	20366
885.148	20434
885.274	20362
885.399	20412
885.524	20324
885.65	20366
885.775	20214
885.9	20389
886.025	20393
886.15	20355
886.275	20263
886.4	20199
886.525	20225
886.65	20240
886.775	20157
886.9	20328
887.025	20511
887.149	20267
887.274	20027
887.399	20069
887.523	20084
887.648	19974
887.773	19978
887.897	20157
888.021	20077
888.146	19909
888.27	20115
888.395	20149
888.519	20073
888.643	20077
888.767	20149
888.891	19986
889.015	19955
889.139	19947
889.263	19879
889.387	19959
889.511	20062
889.635	19986
889.759	19887
889.883	19974
890.006	19864
890.13	19902
890.254	19856
890.377	19715
890.501	19533
890.624	19586
890.748	19731
890.871	19453
890.995	19476
891.118	19411
891.241	19540
891.364	19537
891.488	19521
891.611	19381
891.734	19457
891.857	19460
891.98	19373
892.103	19495
892.226	19487
892.349	19320
892.471	19175
892.594	19304
892.717	19426
892.839	19407
892.962	19301
893.085	19460
893.207	19407
893.33	19270
893.452	19236
893.575	19346
893.697	19312
893.819	19556
893.941	19525
894.064	19411
894.186	19259
894.308	19225
894.43	19510
894.552	19499
894.674	19518
894.796	19335
894.918	19350
895.04	19289
895.161	19464
895.283	19411
895.405	19339
895.526	19411
895.648	19480
895.769	19358
895.891	19373
896.012	19506
896.134	19491
896.255	19255
896.376	19362
896.498	19407
896.619	19441
896.74	19346
896.861	19476
896.982	19639
897.103	19909
897.224	19791
897.345	19765
897.466	19571
897.587	19616
897.708	19670
897.828	19708
897.949	19689
898.07	19556
898.19	19411
898.311	19704
898.431	19445
898.552	19556
898.672	19666
898.792	19597
898.913	19597
899.033	19491
899.153	19548
899.273	19415
899.393	19392
899.513	19499
899.633	19422
899.753	19327
899.873	19270
899.993	19331
900.113	19388
900.232	19320
900.352	19236
900.472	19236
900.591	19126
900.711	19255
900.83	19072
900.95	19327
901.069	19236
901.189	19069
901.308	18852
901.427	18787
901.546	18844
901.665	18707
901.784	18741
901.904	18658
902.023	18574
902.141	18414
902.26	18380
902.379	18342
902.498	18220
902.617	18220
902.735	18262
902.854	18213
902.973	18319
903.091	17904
903.21	17897
903.328	17973
903.446	17809
903.565	17802
903.683	17733
903.801	17760
903.919	17627
904.038	17680
904.156	17535
904.274	17630
904.392	17452
904.51	17509
904.627	17471
904.745	17600
904.863	17665
904.981	17433
905.098	17277
905.216	17269
905.334	17273
905.451	17318
905.569	17239
905.686	17193
905.803	17220
905.921	17025
906.038	17090
906.155	17029
906.272	16927
906.389	16805
906.506	16904
906.623	16805
906.74	16664
906.857	16691
906.974	16588
907.091	16790
907.208	16828
907.324	16759
907.441	16801
907.557	16546
907.674	16535
907.79	16466
907.907	16432
908.023	16466
908.139	16398
908.256	16341
908.372	16405
908.488	16356
908.604	16234
908.72	16249
908.836	16291
908.952	16166
909.068	16303
909.184	16310
909.3	16226
909.415	16234
909.531	16223
909.647	15998
909.762	15941
909.878	15876
909.993	15998
910.108	15937
910.224	15892
910.339	15873
910.454	15854
910.57	15682
910.685	15713
910.8	15998
910.915	15819
911.03	15660
911.145	15580
911.259	15561
911.374	15545
911.489	15477
911.604	15355
911.718	15279
911.833	15325
911.947	15321
912.062	15169
912.176	15310
912.291	15287
912.405	15378
912.519	15473
912.633	15504
912.748	15287
912.862	15249
912.976	15039
913.09	15081
913.204	15005
913.318	15127
913.431	15218
913.545	15199
913.659	15146
913.772	15039
913.886	15039
914	14857
914.113	15028
914.226	15077
914.34	14937
914.453	14815
914.566	14872
914.68	14796
914.793	14735
914.906	14552
915.019	14545
915.132	14594
915.245	14488
915.358	14594
915.47	14514
915.583	14602
915.696	14541
915.809	14629
915.921	14659
916.034	14556
916.146	14469
916.259	14454
916.371	14530
916.483	14530
916.595	14396
916.708	14454
916.82	14389
916.932	14313
917.044	14377
917.156	14370
917.268	14161
917.38	14111
917.491	14210
917.603	14191
917.715	14237
917.826	14237
917.938	14164
918.049	14027
918.161	14157
918.272	14233
918.384	14221
918.495	14229
918.606	13997
918.717	13997
918.828	14035
918.939	14126
919.05	13830
919.161	13928
919.272	13833
919.383	13894
919.494	14092
919.604	14115
919.715	13986
919.826	13928
919.936	13997
920.047	14005
920.157	13986
920.267	14145
920.378	13913
920.488	13883
920.598	14107
920.708	14210
920.818	14168
920.928	13982
921.038	14252
921.148	14176
921.258	13894
921.368	13776
921.477	13700
921.587	13670
921.697	13655
921.806	13681
921.916	13613
922.025	13384
922.134	13365
922.244	13422
922.353	13388
922.462	13320
922.571	13164
922.68	13069
922.789	12848
922.898	13076
923.007	12920
923.116	13057
923.224	12970
923.333	12996
923.442	12821
923.55	12848
923.659	12859
923.767	12875
923.876	12779
923.984	12776
924.092	12601
924.201	12734
924.309	12760
924.417	12734
924.525	12760
924.633	12700
924.741	13674
924.849	12486
924.956	12677
925.064	12528
925.172	12380
925.279	12483
925.387	12513
925.494	12437
925.602	12513
925.709	12517
925.816	12361
925.924	12471
926.031	12502
926.138	12357
926.245	12399
926.352	12407
926.459	12494
926.566	12448
926.673	12357
926.779	12171
926.886	12220
926.993	12072
927.099	11992
927.206	11992
927.312	11969
927.419	12072
927.525	12068
927.631	12053
927.737	11942
927.843	12007
927.95	11764
928.056	11851
928.162	11923
928.267	11939
928.373	12353
928.479	11939
928.585	11775
928.69	11748
928.796	11786
928.901	11714
929.007	11535
929.112	11741
929.218	11646
929.323	11630
929.428	11657
929.533	11707
929.638	11558
929.743	11581
929.848	11570
929.953	11573
930.058	11436
930.163	11353
930.267	11269
930.372	11444
930.477	11273
930.581	11444
930.685	11395
930.79	11162
930.894	11265
930.998	11170
931.103	11360
931.207	10942
931.311	10862
931.415	10812
931.519	10664
931.623	10580
