Data from test_V78500241_1715.txt Node
Date: Fri Mar 25 15:21:47 CST 2022
User: usil
Spectrometer: V785-0024
Trigger mode: 0
Integration Time (sec): 4.000000E-1
Scans to average: 1
Nonlinearity correction enabled: false
Boxcar width: 0
Storing dark spectrum: false
XAxis mode: Wavelengths
Number of Pixels in Spectrum: 1024
>>>>>Begin Spectral Data<<<<<
801.071	27732
801.214	27751
801.356	27374
801.499	27454
801.641	27279
801.783	27317
801.926	27336
802.068	27348
802.211	27207
802.353	27351
802.496	27020
802.638	26857
802.78	26948
802.923	26933
803.065	26849
803.208	27096
803.35	26944
803.492	27157
803.635	27222
803.777	27032
803.919	27237
804.061	27515
804.204	27188
804.346	27123
804.488	26990
804.63	27036
804.773	27161
804.915	27226
805.057	27256
805.199	27214
805.341	27161
805.483	27348
805.626	27272
805.768	27218
805.91	27192
806.052	27348
806.194	27081
806.336	27542
806.478	27214
806.62	27245
806.762	27306
806.904	27408
807.046	27823
807.188	27766
807.33	27770
807.472	27701
807.614	27511
807.756	27599
807.898	27587
808.04	27412
808.182	27450
808.324	27587
808.465	27515
808.607	27557
808.749	27968
808.891	28025
809.033	28021
809.174	27903
809.316	27778
809.458	27960
809.6	27914
809.741	28086
809.883	28059
810.025	28173
810.166	28226
810.308	28272
810.45	28215
810.591	28101
810.733	28055
810.875	27892
811.016	27850
811.158	27816
811.299	27895
811.441	27983
811.582	27930
811.724	27854
811.865	27850
812.007	27880
812.148	27911
812.29	27804
812.431	28067
812.573	28147
812.714	28257
812.855	28314
812.997	28557
813.138	28668
813.279	28550
813.421	28481
813.562	28421
813.703	28154
813.845	28025
813.986	27907
814.127	27709
814.268	27557
814.41	27572
814.551	27500
814.692	27633
814.833	27583
814.974	27500
815.115	27637
815.256	27447
815.397	27523
815.539	27572
815.68	27344
815.821	27363
815.962	27439
816.103	27351
816.244	27252
816.385	27070
816.526	27245
816.666	26891
816.807	26982
816.948	26857
817.089	26868
817.23	26887
817.371	26868
817.512	26765
817.653	26902
817.793	26811
817.934	26944
818.075	26948
818.216	26800
818.356	26777
818.497	26727
818.638	26583
818.778	26575
818.919	26663
819.06	26674
819.2	26708
819.341	26826
819.481	26857
819.622	26902
819.762	27249
819.903	27104
820.043	27165
820.184	26887
820.324	26986
820.465	27074
820.605	26925
820.746	26899
820.886	26842
821.026	26990
821.167	26990
821.307	27013
821.447	26830
821.588	26773
821.728	26625
821.868	26442
822.008	26396
822.149	26351
822.289	26252
822.429	26039
822.569	26043
822.709	25887
822.849	25868
822.99	25864
823.13	25841
823.27	25784
823.41	25616
823.55	25540
823.69	25856
823.83	25681
823.97	25666
824.11	25552
824.25	25354
824.389	25483
824.529	25502
824.669	25525
824.809	25510
824.949	25514
825.089	25624
825.228	25525
825.368	25453
825.508	25240
825.648	25362
825.787	25285
825.927	25464
826.067	25438
826.206	25365
826.346	25419
826.485	25449
826.625	25422
826.765	25415
826.904	25430
827.044	25137
827.183	25194
827.323	25240
827.462	25137
827.601	25027
827.741	24966
827.88	25141
828.02	24996
828.159	25034
828.298	25194
828.437	25164
828.577	25042
828.716	25118
828.855	25107
828.994	24787
829.134	24833
829.273	24810
829.412	24700
829.551	24852
829.69	24783
829.829	24806
829.968	24905
830.107	24943
830.246	24817
830.385	24837
830.524	24681
830.663	24589
830.802	24574
830.941	24327
831.08	24483
831.219	24498
831.357	24528
831.496	24608
831.635	24479
831.774	24323
831.913	24350
832.051	24258
832.19	24224
832.329	24365
832.467	24190
832.606	23939
832.744	24076
832.883	24285
833.022	24045
833.16	24053
833.299	24129
833.437	24228
833.576	24186
833.714	24209
833.852	24201
833.991	24216
834.129	24361
834.267	24216
834.406	24254
834.544	24247
834.682	24083
834.821	24133
834.959	24433
835.097	24197
835.235	24148
835.373	24155
835.511	24224
835.65	24121
835.788	24079
835.926	23893
836.064	23874
836.202	23813
836.34	24015
836.478	24220
836.615	23996
836.753	23996
836.891	24041
837.029	24045
837.167	23958
837.305	23805
837.443	23824
837.58	23923
837.718	23863
837.856	23893
837.993	23866
838.131	23771
838.269	23866
838.406	23714
838.544	23745
838.681	23642
838.819	23672
838.956	23284
839.094	23497
839.231	23467
839.369	23520
839.506	23661
839.643	23684
839.781	23337
839.918	23334
840.055	23376
840.193	23269
840.33	23220
840.467	23189
840.604	23227
840.742	23623
840.879	23079
841.016	23056
841.153	23151
841.29	23273
841.427	23265
841.564	23254
841.701	23216
841.838	23121
841.975	23064
842.112	23121
842.249	23086
842.385	23014
842.522	23178
842.659	23029
842.796	23090
842.933	23121
843.069	22831
843.206	23064
843.343	23162
843.479	23006
843.616	23003
843.752	22786
843.889	22717
844.025	22927
844.162	22653
844.298	22847
844.435	22683
844.571	22698
844.708	22626
844.844	22885
844.98	22885
845.117	22900
845.253	22748
845.389	22679
845.525	22767
845.661	22569
845.798	22512
845.934	22626
846.07	22478
846.206	22634
846.342	22584
846.478	22474
846.614	22337
846.75	22211
846.886	22223
847.022	22272
847.158	22344
847.294	22291
847.429	22314
847.565	22204
847.701	22531
847.837	21835
847.972	22063
848.108	22032
848.244	22070
848.379	21949
848.515	21857
848.65	21812
848.786	21873
848.921	21861
849.057	21915
849.192	21774
849.328	21964
849.463	21888
849.598	21793
849.734	21789
849.869	21701
850.004	21542
850.14	21606
850.275	21599
850.41	21367
850.545	21473
850.68	21671
850.815	21682
850.95	21523
851.085	21781
851.22	21698
851.355	21477
851.49	21701
851.625	21557
851.76	21580
851.895	21466
852.03	21549
852.165	21610
852.299	21587
852.434	21778
852.569	21629
852.703	21496
852.838	21698
852.973	21637
853.107	21705
853.242	21583
853.376	21386
853.511	21249
853.645	21294
853.78	21458
853.914	21458
854.048	21401
854.183	21351
854.317	21481
854.451	21622
854.585	21374
854.72	21435
854.854	21473
854.988	21450
855.122	21473
855.256	21275
855.39	21397
855.524	21386
855.658	21599
855.792	21348
855.926	21576
856.06	21496
856.194	21397
856.327	21386
856.461	21268
856.595	21378
856.729	21344
856.862	21481
856.996	21462
857.13	21462
857.263	21393
857.397	21500
857.53	21416
857.664	21492
857.797	21523
857.931	21439
858.064	21481
858.197	21443
858.331	21344
858.464	21401
858.597	21230
858.731	21393
858.864	21382
858.997	21401
859.13	21443
859.263	21435
859.396	21504
859.529	21382
859.662	21340
859.795	21370
859.928	21469
860.061	21538
860.194	21511
860.327	21496
860.46	21534
860.592	21477
860.725	21599
860.858	21458
860.99	21431
861.123	21176
861.256	21378
861.388	21424
861.521	22166
861.653	21454
861.786	21203
861.918	21218
862.05	21268
862.183	21329
862.315	21313
862.447	21469
862.58	21344
862.712	21096
862.844	21131
862.976	21207
863.108	21146
863.24	21515
863.372	21085
863.504	21150
863.636	21180
863.768	21131
863.9	21195
864.032	21062
864.164	21081
864.296	21058
864.428	21226
864.559	21241
864.691	21066
864.823	21127
864.954	21116
865.086	21077
865.217	20963
865.349	20929
865.48	21009
865.612	21066
865.743	21157
865.875	21062
866.006	21192
866.137	21039
866.269	21058
866.4	20963
866.531	21039
866.662	20883
866.793	20864
866.924	20986
867.055	21036
867.186	21020
867.317	21013
867.448	20895
867.579	20929
867.71	20918
867.841	20842
867.972	20864
868.103	20902
868.233	20857
868.364	20975
868.495	20975
868.625	21154
868.756	21329
868.886	21161
869.017	21146
869.147	21169
869.278	21412
869.408	21188
869.539	21169
869.669	21355
869.799	21226
869.929	21325
870.06	21386
870.19	21557
870.32	21329
870.45	21603
870.58	21538
870.71	21603
870.84	21690
870.97	21542
871.1	21580
871.23	21766
871.36	21785
871.489	21713
871.619	21827
871.749	21747
871.879	21759
872.008	21899
872.138	21713
872.267	21819
872.397	21625
872.526	21648
872.656	21599
872.785	21561
872.915	21781
873.044	21781
873.173	21755
873.303	21819
873.432	21747
873.561	21884
873.69	21789
873.819	21816
873.948	21956
874.077	21808
874.206	21713
874.335	21808
874.464	21949
874.593	21968
874.722	21998
874.851	22074
874.979	22078
875.108	22086
875.237	22021
875.365	21888
875.494	21934
875.623	22230
875.751	22017
875.88	21960
876.008	22226
876.136	22139
876.265	22382
876.393	22432
876.521	22516
876.65	22535
876.778	22466
876.906	22306
877.034	22409
877.162	22462
877.29	22295
877.418	22219
877.546	22360
877.674	22360
877.802	22344
877.93	22405
878.058	22310
878.185	22234
878.313	22409
878.441	22405
878.568	22219
878.696	22287
878.824	22341
878.951	22386
879.079	22577
879.206	22637
879.333	22573
879.461	22474
879.588	22455
879.715	22519
879.842	22557
879.97	22436
880.097	22059
880.224	22215
880.351	22272
880.478	22147
880.605	22067
880.732	22169
880.859	22421
880.986	22211
881.112	22200
881.239	21956
881.366	21994
881.493	22036
881.619	21861
881.746	21819
881.872	21720
881.999	21865
882.125	21724
882.252	21751
882.378	21785
882.505	21720
882.631	21717
882.757	21408
882.883	21648
883.01	21443
883.136	21443
883.262	21351
883.388	21317
883.514	21458
883.64	21397
883.766	21515
883.892	21264
884.018	21272
884.143	21405
884.269	21507
884.395	21176
884.52	21066
884.646	21089
884.772	21142
884.897	21066
885.023	21131
885.148	21119
885.274	21161
885.399	21203
885.524	21047
885.65	21157
885.775	21066
885.9	21150
886.025	21203
886.15	21028
886.275	21062
886.4	21047
886.525	21074
886.65	21005
886.775	21047
886.9	21291
887.025	21329
887.149	21058
887.274	20944
887.399	20834
887.523	20834
887.648	20731
887.773	20796
887.897	20929
888.021	20811
888.146	20925
888.27	21024
888.395	20880
888.519	20963
888.643	20849
888.767	20986
888.891	20689
889.015	20663
889.139	20590
889.263	20644
889.387	20785
889.511	20883
889.635	20788
889.759	20663
889.883	20625
890.006	20678
890.13	20678
890.254	20590
890.377	20644
890.501	20431
890.624	20343
890.748	20366
890.871	20320
890.995	20286
891.118	20290
891.241	20263
891.364	20263
891.488	20286
891.611	20195
891.734	20119
891.857	20263
891.98	20225
892.103	20385
892.226	20218
892.349	20259
892.471	20016
892.594	20081
892.717	20088
892.839	20084
892.962	20107
893.085	20134
893.207	20138
893.33	20073
893.452	19974
893.575	20282
893.697	20180
893.819	20347
893.941	20301
894.064	20271
894.186	20145
894.308	20039
894.43	20248
894.552	20218
894.674	20149
894.796	20027
894.918	20043
895.04	20176
895.161	20126
895.283	20081
895.405	20111
895.526	20119
895.648	20107
895.769	20103
895.891	20084
896.012	20210
896.134	20168
896.255	20020
896.376	20149
896.498	20183
896.619	20096
896.74	20168
896.861	20199
896.982	20419
897.103	20655
897.224	20419
897.345	20358
897.466	20191
897.587	20305
897.708	20465
897.828	20305
897.949	20332
898.07	20263
898.19	20225
898.311	20476
898.431	20275
898.552	20381
898.672	20442
898.792	20377
898.913	20332
899.033	20259
899.153	20157
899.273	20115
899.393	20100
899.513	20195
899.633	20119
899.753	20111
899.873	20012
899.993	20001
900.113	20016
900.232	20054
900.352	20001
900.472	19993
900.591	19788
900.711	19955
900.83	19761
900.95	19879
901.069	20054
901.189	19742
901.308	19643
901.427	19441
901.546	19480
901.665	19472
901.784	19453
901.904	19472
902.023	19183
902.141	18985
902.26	19050
902.379	19118
902.498	18894
902.617	18947
902.735	18791
902.854	18970
902.973	18894
903.091	18650
903.21	18639
903.328	18635
903.446	18555
903.565	18460
903.683	18357
903.801	18327
903.919	18247
904.038	18273
904.156	18167
904.274	18216
904.392	18235
904.51	18201
904.627	18224
904.745	18235
904.863	18209
904.981	18068
905.098	17893
905.216	17794
905.334	18003
905.451	17870
905.569	17942
905.686	17916
905.803	17935
905.921	17687
906.038	17866
906.155	17676
906.272	17600
906.389	17585
906.506	17493
906.623	17433
906.74	17512
906.857	17391
906.974	17345
907.091	17417
907.208	17592
907.324	17493
907.441	17417
907.557	17193
907.674	17121
907.79	17124
907.907	17166
908.023	17143
908.139	17140
908.256	17006
908.372	17048
908.488	17079
908.604	16877
908.72	16968
908.836	16930
908.952	16923
909.068	16839
909.184	16889
909.3	16919
909.415	16896
909.531	16911
909.647	16607
909.762	16573
909.878	16554
909.993	16569
910.108	16577
910.224	16443
910.339	16470
910.454	16493
910.57	16375
910.685	16428
910.8	16656
910.915	16500
911.03	16337
911.145	16200
911.259	16215
911.374	16173
911.489	16173
911.604	16101
911.718	15945
911.833	15884
911.947	15774
912.062	15713
912.176	15835
912.291	15926
912.405	15907
912.519	16101
912.633	16063
912.748	15956
912.862	15793
912.976	15770
913.09	15690
913.204	15660
913.318	15694
913.431	15842
913.545	15747
913.659	15774
913.772	15713
913.886	15595
914	15481
914.113	15717
914.226	15603
914.34	15625
914.453	15477
914.566	15526
914.68	15496
914.793	15302
914.906	15233
915.019	15176
915.132	15097
915.245	15123
915.358	15077
915.47	15119
915.583	15127
915.696	15218
915.809	15268
915.921	15207
916.034	14986
916.146	15001
916.259	15047
916.371	15112
916.483	14998
916.595	14994
916.708	14933
916.82	15001
916.932	14929
917.044	14941
917.156	14921
917.268	14693
917.38	14819
917.491	14724
917.603	14925
917.715	14929
917.826	14925
917.938	14663
918.049	14724
918.161	14762
918.272	14823
918.384	14823
918.495	14693
918.606	14575
918.717	14583
918.828	14541
918.939	14629
919.05	14488
919.161	14602
919.272	14263
919.383	14362
919.494	14590
919.604	14765
919.715	14495
919.826	14499
919.936	14488
920.047	14606
920.157	14571
920.267	14712
920.378	14579
920.488	14480
920.598	14697
920.708	14735
920.818	14629
920.928	14602
921.038	14861
921.148	14765
921.258	14457
921.368	14431
921.477	14252
921.587	14161
921.697	14176
921.806	14206
921.916	14199
922.025	14043
922.134	13932
922.244	13898
922.353	13947
922.462	13841
922.571	13677
922.68	13632
922.789	13544
922.898	13457
923.007	13487
923.116	13639
923.224	13491
923.333	13548
923.442	13430
923.55	13377
923.659	13407
923.767	13411
923.876	13297
923.984	13377
924.092	13202
924.201	13171
924.309	13362
924.417	13228
924.525	13202
924.633	13183
924.741	13963
924.849	13004
924.956	13179
925.064	12958
925.172	12905
925.279	12951
925.387	12981
925.494	12951
925.602	13027
925.709	13027
925.816	12867
925.924	12935
926.031	12901
926.138	12863
926.245	12943
926.352	12795
926.459	12954
926.566	12962
926.673	12878
926.779	12722
926.886	12768
926.993	12536
927.099	12559
927.206	12490
927.312	12540
927.419	12540
927.525	12509
927.631	12509
927.737	12429
927.843	12452
927.95	12232
928.056	12365
928.162	12399
928.267	12418
928.373	12935
928.479	12452
928.585	12148
928.69	12273
928.796	12319
928.901	12186
929.007	12079
929.112	12110
929.218	12186
929.323	12129
929.428	12091
929.533	12140
929.638	11996
929.743	11973
929.848	11980
929.953	12038
930.058	11878
930.163	11790
930.267	11714
930.372	11893
930.477	11714
930.581	11996
930.685	11824
930.79	11653
930.894	11726
930.998	11562
931.103	11863
931.207	11337
931.311	11364
931.415	11250
931.519	10957
931.623	11052
