Data from test_V78500241_751.txt Node
Date: Fri Mar 25 15:15:05 CST 2022
User: usil
Spectrometer: V785-0024
Trigger mode: 0
Integration Time (sec): 4.000000E-1
Scans to average: 1
Nonlinearity correction enabled: false
Boxcar width: 0
Storing dark spectrum: false
XAxis mode: Wavelengths
Number of Pixels in Spectrum: 1024
>>>>>Begin Spectral Data<<<<<
801.071	27435
801.214	27397
801.356	27100
801.499	27237
801.641	27119
801.783	26967
801.926	27085
802.068	26925
802.211	26929
802.353	26830
802.496	26686
802.638	26693
802.78	26701
802.923	26651
803.065	26651
803.208	26670
803.35	26705
803.492	26838
803.635	26876
803.777	26746
803.919	26819
804.061	27180
804.204	26914
804.346	26667
804.488	26697
804.63	26750
804.773	26796
804.915	26731
805.057	26994
805.199	26804
805.341	26933
805.483	26929
805.626	26876
805.768	26857
805.91	26944
806.052	27020
806.194	26979
806.336	27154
806.478	26872
806.62	27127
806.762	27176
806.904	27256
807.046	27504
807.188	27424
807.33	27359
807.472	27344
807.614	27321
807.756	27340
807.898	27268
808.04	27203
808.182	27203
808.324	27260
808.465	27336
808.607	27511
808.749	27534
808.891	27629
809.033	27629
809.174	27652
809.316	27526
809.458	27679
809.6	27595
809.741	27686
809.883	27876
810.025	27819
810.166	27759
810.308	27861
810.45	27907
810.591	27732
810.733	27629
810.875	27652
811.016	27492
811.158	27492
811.299	27625
811.441	27694
811.582	27778
811.724	27583
811.865	27469
812.007	27595
812.148	27625
812.29	27534
812.431	27705
812.573	27793
812.714	27941
812.855	28128
812.997	28070
813.138	28485
813.279	28318
813.421	28226
813.562	28188
813.703	27808
813.845	27865
813.986	27454
814.127	27386
814.268	27287
814.41	27317
814.551	27332
814.692	27431
814.833	27306
814.974	27218
815.115	27272
815.256	27093
815.397	27161
815.539	27112
815.68	26921
815.821	27062
815.962	27100
816.103	27055
816.244	27077
816.385	26788
816.526	26739
816.666	26693
816.807	26526
816.948	26587
817.089	26636
817.23	26731
817.371	26518
817.512	26625
817.653	26480
817.793	26522
817.934	26473
818.075	26735
818.216	26537
818.356	26590
818.497	26476
818.638	26259
818.778	26282
818.919	26381
819.06	26446
819.2	26484
819.341	26606
819.481	26594
819.622	26697
819.762	26815
819.903	26861
820.043	26716
820.184	26750
820.324	26724
820.465	26609
820.605	26648
820.746	26682
820.886	26492
821.026	26727
821.167	26522
821.307	26625
821.447	26514
821.588	26526
821.728	26259
821.868	26008
822.008	26027
822.149	25875
822.289	25970
822.429	25731
822.569	25788
822.709	25643
822.849	25525
822.99	25518
823.13	25487
823.27	25476
823.41	25392
823.55	25259
823.69	25293
823.83	25270
823.97	25411
824.11	25103
824.25	25171
824.389	25156
824.529	25320
824.669	25175
824.809	25270
824.949	25244
825.089	25187
825.228	25072
825.368	25065
825.508	25019
825.648	25133
825.787	24951
825.927	25164
826.067	25099
826.206	24935
826.346	25168
826.485	24821
826.625	24947
826.765	25072
826.904	25015
827.044	24726
827.183	24734
827.323	24696
827.462	24684
827.601	24707
827.741	24646
827.88	24692
828.02	24677
828.159	24711
828.298	24738
828.437	24700
828.577	24639
828.716	24798
828.855	24604
828.994	24479
829.134	24490
829.273	24494
829.412	24502
829.551	24429
829.69	24410
829.829	24483
829.968	24585
830.107	24528
830.246	24445
830.385	24452
830.524	24171
830.663	24205
830.802	24159
830.941	24030
831.08	23992
831.219	24106
831.357	24076
831.496	24369
831.635	23996
831.774	23939
831.913	23923
832.051	23893
832.19	23737
832.329	23817
832.467	23657
832.606	23710
832.744	23661
832.883	23691
833.022	23649
833.16	23756
833.299	23699
833.437	23741
833.576	23657
833.714	23817
833.852	23767
833.991	23748
834.129	23775
834.267	23767
834.406	23920
834.544	23684
834.682	23741
834.821	23756
834.959	23908
835.097	23665
835.235	23737
835.373	23821
835.511	23821
835.65	23703
835.788	23608
835.926	23539
836.064	23387
836.202	23452
836.34	23570
836.478	23642
836.615	23543
836.753	23687
836.891	23783
837.029	23490
837.167	23581
837.305	23490
837.443	23478
837.58	23471
837.718	23440
837.856	23459
837.993	23459
838.131	23459
838.269	23303
838.406	23360
838.544	23208
838.681	22995
838.819	23162
838.956	23083
839.094	22965
839.231	23044
839.369	23102
839.506	23330
839.643	23109
839.781	22831
839.918	22820
840.055	22869
840.193	22911
840.33	22828
840.467	22797
840.604	22869
840.742	23064
840.879	22653
841.016	22843
841.153	22782
841.29	22915
841.427	22934
841.564	22919
841.701	22881
841.838	22744
841.975	22782
842.112	22736
842.249	22649
842.385	22497
842.522	22713
842.659	22653
842.796	22603
842.933	22504
843.069	22538
843.206	22554
843.343	22588
843.479	22592
843.616	22645
843.752	22371
843.889	22352
844.025	22554
844.162	22428
844.298	22508
844.435	22459
844.571	22223
844.708	22436
844.844	22596
844.98	22436
845.117	22459
845.253	22405
845.389	22337
845.525	22230
845.661	22086
845.798	22109
845.934	22078
846.07	21937
846.206	22154
846.342	22169
846.478	22143
846.614	21808
846.75	21827
846.886	21869
847.022	21861
847.158	21781
847.294	21888
847.429	21850
847.565	21819
847.701	22017
847.837	21599
847.972	21614
848.108	21724
848.244	21637
848.379	21443
848.515	21435
848.65	21408
848.786	21378
848.921	21412
849.057	21504
849.192	21576
849.328	21477
849.463	21355
849.598	21424
849.734	21279
849.869	21260
850.004	21157
850.14	21188
850.275	21176
850.41	21116
850.545	21260
850.68	21169
850.815	21291
850.95	21264
851.085	21351
851.22	21226
851.355	21116
851.49	21214
851.625	21119
851.76	21169
851.895	21089
852.03	21085
852.165	21146
852.299	21272
852.434	21264
852.569	21272
852.703	21096
852.838	21211
852.973	21367
853.107	21302
853.242	21039
853.376	21112
853.511	21089
853.645	21036
853.78	21165
853.914	21119
854.048	21089
854.183	21081
854.317	20982
854.451	21131
854.585	20887
854.72	20990
854.854	21112
854.988	21058
855.122	21013
855.256	20887
855.39	20998
855.524	21214
855.658	21077
855.792	21169
855.926	21062
856.06	21085
856.194	21009
856.327	20929
856.461	20960
856.595	20921
856.729	21009
856.862	21119
856.996	21085
857.13	21039
857.263	21157
857.397	21180
857.53	21096
857.664	21017
857.797	21062
857.931	21009
858.064	21058
858.197	21055
858.331	21039
858.464	20979
858.597	20826
858.731	20956
858.864	21009
858.997	20963
859.13	21104
859.263	21001
859.396	21123
859.529	20990
859.662	20952
859.795	21028
859.928	20960
860.061	21233
860.194	21252
860.327	20982
860.46	20902
860.592	21222
860.725	21211
860.858	21108
860.99	21058
861.123	20929
861.256	21108
861.388	21032
861.521	21739
861.653	20857
861.786	20773
861.918	20838
862.05	20952
862.183	21001
862.315	20902
862.447	21017
862.58	20956
862.712	20792
862.844	20845
862.976	20838
863.108	20750
863.24	20975
863.372	20670
863.504	20678
863.636	20682
863.768	20693
863.9	20727
864.032	20663
864.164	20716
864.296	20819
864.428	20800
864.559	20868
864.691	20769
864.823	20716
864.954	20750
865.086	20792
865.217	20648
865.349	20541
865.48	20606
865.612	20724
865.743	20815
865.875	20735
866.006	20655
866.137	20632
866.269	20613
866.4	20598
866.531	20469
866.662	20465
866.793	20533
866.924	20571
867.055	20640
867.186	20629
867.317	20434
867.448	20404
867.579	20674
867.71	20533
867.841	20488
867.972	20526
868.103	20613
868.233	20560
868.364	20530
868.495	20708
868.625	20902
868.756	20864
868.886	20678
869.017	20864
869.147	20895
869.278	20918
869.408	20815
869.539	20826
869.669	20910
869.799	20876
869.929	20971
870.06	20830
870.19	21081
870.32	20998
870.45	21108
870.58	21154
870.71	21344
870.84	21230
870.97	21176
871.1	21233
871.23	21336
871.36	21576
871.489	21195
871.619	21355
871.749	21424
871.879	21507
872.008	21538
872.138	21435
872.267	21310
872.397	21241
872.526	21192
872.656	21207
872.785	21116
872.915	21439
873.044	21481
873.173	21481
873.303	21469
873.432	21454
873.561	21515
873.69	21428
873.819	21466
873.948	21481
874.077	21450
874.206	21424
874.335	21405
874.464	21568
874.593	21713
874.722	21625
874.851	21629
874.979	21652
875.108	21827
875.237	21564
875.365	21682
875.494	21629
875.623	21869
875.751	21637
875.88	21736
876.008	21770
876.136	21816
876.265	22010
876.393	22196
876.521	22154
876.65	22124
876.778	21964
876.906	22067
877.034	21934
877.162	21979
877.29	21918
877.418	21964
877.546	22017
877.674	21937
877.802	22097
877.93	22013
878.058	21956
878.185	21842
878.313	21945
878.441	22017
878.568	21869
878.696	21987
878.824	22040
878.951	22040
879.079	22128
879.206	22363
879.333	22135
879.461	22059
879.588	22219
879.715	22169
879.842	22166
879.97	22067
880.097	21804
880.224	21800
880.351	21861
880.478	21785
880.605	21724
880.732	21819
880.859	22021
880.986	21732
881.112	21838
881.239	21759
881.366	21405
881.493	21416
881.619	21355
881.746	21389
881.872	21355
881.999	21317
882.125	21389
882.252	21355
882.378	21386
882.505	21591
882.631	21355
882.757	21233
882.883	21146
883.01	21096
883.136	21062
883.262	21005
883.388	20921
883.514	21116
883.64	21017
883.766	21096
883.892	20979
884.018	20971
884.143	21009
884.269	21226
884.395	20899
884.52	20765
884.646	20872
884.772	20549
884.897	20674
885.023	20758
885.148	20800
885.274	20899
885.399	20773
885.524	20842
885.65	20727
885.775	20777
885.9	20735
886.025	20777
886.15	20788
886.275	20678
886.4	20659
886.525	20682
886.65	20648
886.775	20651
886.9	20819
887.025	20941
887.149	20625
887.274	20480
887.399	20583
887.523	20492
887.648	20480
887.773	20480
887.897	20689
888.021	20552
888.146	20480
888.27	20750
888.395	20545
888.519	20446
888.643	20522
888.767	20495
888.891	20396
889.015	20252
889.139	20431
889.263	20263
889.387	20438
889.511	20545
889.635	20484
889.759	20324
889.883	20248
890.006	20271
890.13	20389
890.254	20351
890.377	20256
890.501	20046
890.624	20077
890.748	20103
890.871	19959
890.995	19875
891.118	19826
891.241	19906
891.364	19951
891.488	20103
891.611	19875
891.734	19928
891.857	19970
891.98	19932
892.103	19978
892.226	19921
892.349	19875
892.471	19715
892.594	19936
892.717	19868
892.839	19860
892.962	19925
893.085	19928
893.207	19833
893.33	19807
893.452	19727
893.575	19906
893.697	19925
893.819	19989
893.941	19955
894.064	19906
894.186	19830
894.308	19742
894.43	19830
894.552	19940
894.674	19871
894.796	19582
894.918	19776
895.04	19750
895.161	19921
895.283	19936
895.405	19719
895.526	19883
895.648	19761
895.769	19841
895.891	19822
896.012	19921
896.134	19875
896.255	19902
896.376	19742
896.498	19852
896.619	19951
896.74	19887
896.861	19830
896.982	20043
897.103	20183
897.224	20054
897.345	20103
897.466	19959
897.587	20043
897.708	20183
897.828	20130
897.949	19932
898.07	19925
898.19	20050
898.311	20016
898.431	19951
898.552	20016
898.672	20096
898.792	20073
898.913	20050
899.033	20027
899.153	19830
899.273	19700
899.393	19738
899.513	19784
899.633	19765
899.753	19860
899.873	19769
899.993	19769
900.113	19833
900.232	19803
900.352	19742
900.472	19609
900.591	19502
900.711	19662
900.83	19533
900.95	19689
901.069	19525
901.189	19468
901.308	19327
901.427	19133
901.546	19274
901.665	19266
901.784	19080
901.904	19118
902.023	18897
902.141	18798
902.26	18711
902.379	18776
902.498	18642
902.617	18715
902.735	18798
902.854	18620
902.973	18551
903.091	18429
903.21	18350
903.328	18407
903.446	18384
903.565	18243
903.683	18251
903.801	18106
903.919	18167
904.038	18102
904.156	17920
904.274	18091
904.392	17802
904.51	17855
904.627	17893
904.745	17893
904.863	17931
904.981	17695
905.098	17547
905.216	17615
905.334	17608
905.451	17642
905.569	17490
905.686	17630
905.803	17611
905.921	17402
906.038	17577
906.155	17356
906.272	17326
906.389	17360
906.506	17151
906.623	17140
906.74	17102
906.857	17067
906.974	17033
907.091	17242
907.208	17223
907.324	17216
907.441	17029
907.557	16866
907.674	16930
907.79	16729
907.907	16953
908.023	16957
908.139	16831
908.256	16877
908.372	16771
908.488	16672
908.604	16664
908.72	16561
908.836	16694
908.952	16641
909.068	16573
909.184	16744
909.3	16550
909.415	16516
909.531	16615
909.647	16325
909.762	16268
909.878	16284
909.993	16325
910.108	16280
910.224	16169
910.339	16249
910.454	16204
910.57	16124
910.685	16040
910.8	16219
910.915	16299
911.03	16051
911.145	15918
911.259	15850
911.374	15922
911.489	15800
911.604	15819
911.718	15652
911.833	15599
911.947	15564
912.062	15481
912.176	15580
912.291	15587
912.405	15584
912.519	15808
912.633	15774
912.748	15694
912.862	15526
912.976	15447
913.09	15367
913.204	15401
913.318	15412
913.431	15534
913.545	15538
913.659	15606
913.772	15412
913.886	15348
914	15226
914.113	15378
914.226	15306
914.34	15306
914.453	15199
914.566	15291
914.68	15135
914.793	15020
914.906	14967
915.019	14906
915.132	14876
915.245	14891
915.358	14815
915.47	14880
915.583	14902
915.696	14861
915.809	14960
915.921	14986
916.034	14807
916.146	14724
916.259	14731
916.371	14769
916.483	14872
916.595	14689
916.708	14716
916.82	14701
916.932	14701
917.044	14697
917.156	14590
917.268	14469
917.38	14625
917.491	14583
917.603	14419
917.715	14556
917.826	14613
917.938	14469
918.049	14381
918.161	14434
918.272	14575
918.384	14617
918.495	14549
918.606	14358
918.717	14252
918.828	14343
918.939	14317
919.05	14305
919.161	14259
919.272	14142
919.383	14214
919.494	14377
919.604	14511
919.715	14343
919.826	14130
919.936	14191
920.047	14324
920.157	14214
920.267	14518
920.378	14351
920.488	14214
920.598	14381
920.708	14583
920.818	14347
920.928	14415
921.038	14545
921.148	14568
921.258	14313
921.368	14058
921.477	14081
921.587	13967
921.697	13906
921.806	14046
921.916	13868
922.025	13662
922.134	13594
922.244	13620
922.353	13746
922.462	13559
922.571	13346
922.68	13316
922.789	13381
922.898	13335
923.007	13244
923.116	13301
923.224	13304
923.333	13168
923.442	13145
923.55	13057
923.659	13126
923.767	13126
923.876	13042
923.984	13175
924.092	13034
924.201	13137
924.309	13069
924.417	13091
924.525	13034
924.633	13031
924.741	13769
924.849	12802
924.956	12943
925.064	12795
925.172	12696
925.279	12757
925.387	12817
925.494	12772
925.602	12821
925.709	12745
925.816	12642
925.924	12722
926.031	12764
926.138	12665
926.245	12734
926.352	12658
926.459	12677
926.566	12753
926.673	12620
926.779	12437
926.886	12490
926.993	12414
927.099	12311
927.206	12232
927.312	12235
927.419	12289
927.525	12342
927.631	12315
927.737	12155
927.843	12148
927.95	12087
928.056	12117
928.162	12167
928.267	12251
928.373	12738
928.479	12186
928.585	11980
928.69	12205
928.796	12098
928.901	11996
929.007	11805
929.112	12095
929.218	11996
929.323	11874
929.428	11863
929.533	12076
929.638	11752
929.743	11752
929.848	11821
929.953	11737
930.058	11756
930.163	11573
930.267	11554
930.372	11707
930.477	11448
930.581	11847
930.685	11615
930.79	11440
930.894	11512
930.998	11455
931.103	11573
931.207	11201
931.311	11159
931.415	11102
931.519	10797
931.623	10767
