Data from test_V78500241_700.txt Node
Date: Fri Mar 25 15:14:43 CST 2022
User: usil
Spectrometer: V785-0024
Trigger mode: 0
Integration Time (sec): 4.000000E-1
Scans to average: 1
Nonlinearity correction enabled: false
Boxcar width: 0
Storing dark spectrum: false
XAxis mode: Wavelengths
Number of Pixels in Spectrum: 1024
>>>>>Begin Spectral Data<<<<<
801.071	28055
801.214	27941
801.356	27724
801.499	27743
801.641	27698
801.783	27652
801.926	27591
802.068	27534
802.211	27492
802.353	27374
802.496	27188
802.638	27332
802.78	27313
802.923	27127
803.065	27264
803.208	27214
803.35	27241
803.492	27401
803.635	27458
803.777	27389
803.919	27439
804.061	27698
804.204	27481
804.346	27427
804.488	27435
804.63	27382
804.773	27374
804.915	27401
805.057	27618
805.199	27473
805.341	27576
805.483	27477
805.626	27580
805.768	27473
805.91	27462
806.052	27488
806.194	27515
806.336	27743
806.478	27610
806.62	27553
806.762	27644
806.904	27850
807.046	28139
807.188	28109
807.33	28006
807.472	28013
807.614	27934
807.756	27930
807.898	27850
808.04	27854
808.182	27880
808.324	27918
808.465	27876
808.607	28055
808.749	28223
808.891	28303
809.033	28447
809.174	28284
809.316	28166
809.458	28280
809.6	28276
809.741	28398
809.883	28329
810.025	28683
810.166	28618
810.308	28500
810.45	28603
810.591	28497
810.733	28424
810.875	28223
811.016	28044
811.158	28154
811.299	28367
811.441	28337
811.582	28421
811.724	28196
811.865	28200
812.007	28135
812.148	28242
812.29	28284
812.431	28295
812.573	28580
812.714	28805
812.855	28911
812.997	28847
813.138	28949
813.279	28816
813.421	28896
813.562	28786
813.703	28698
813.845	28436
813.986	28219
814.127	28025
814.268	28051
814.41	28029
814.551	27842
814.692	27968
814.833	27930
814.974	27857
815.115	28021
815.256	27850
815.397	27861
815.539	27819
815.68	27667
815.821	27739
815.962	27717
816.103	27656
816.244	27656
816.385	27526
816.526	27462
816.666	27287
816.807	27165
816.948	27233
817.089	27317
817.23	27351
817.371	27313
817.512	27211
817.653	27252
817.793	27226
817.934	27233
818.075	27157
818.216	27298
818.356	27317
818.497	27127
818.638	26952
818.778	27077
818.919	27150
819.06	27055
819.2	27135
819.341	27313
819.481	27184
819.622	27321
819.762	27633
819.903	27557
820.043	27511
820.184	27393
820.324	27443
820.465	27439
820.605	27268
820.746	27275
820.886	27294
821.026	27287
821.167	27313
821.307	27481
821.447	27268
821.588	27123
821.728	27108
821.868	26918
822.008	26659
822.149	26716
822.289	26621
822.429	26408
822.569	26366
822.709	26492
822.849	26324
822.99	26130
823.13	26218
823.27	26058
823.41	26050
823.55	25940
823.69	26054
823.83	25997
823.97	26027
824.11	25913
824.25	25856
824.389	25913
824.529	25925
824.669	25807
824.809	26035
824.949	25849
825.089	25966
825.228	25936
825.368	25776
825.508	25624
825.648	25685
825.787	25826
825.927	25906
826.067	25784
826.206	25700
826.346	25811
826.485	25753
826.625	25811
826.765	25921
826.904	25860
827.044	25415
827.183	25441
827.323	25518
827.462	25571
827.601	25411
827.741	25350
827.88	25415
828.02	25358
828.159	25449
828.298	25464
828.437	25533
828.577	25400
828.716	25613
828.855	25362
828.994	25232
829.134	25038
829.273	25129
829.412	25091
829.551	25179
829.69	25110
829.829	25160
829.968	25213
830.107	25289
830.246	25137
830.385	25053
830.524	25072
830.663	24916
830.802	24783
830.941	24597
831.08	24760
831.219	24924
831.357	24890
831.496	24958
831.635	24711
831.774	24646
831.913	24623
832.051	24422
832.19	24471
832.329	24673
832.467	24445
832.606	24441
832.744	24334
832.883	24483
833.022	24403
833.16	24521
833.299	24452
833.437	24471
833.576	24551
833.714	24498
833.852	24601
833.991	24623
834.129	24673
834.267	24616
834.406	24547
834.544	24627
834.682	24486
834.821	24490
834.959	24700
835.097	24525
835.235	24452
835.373	24460
835.511	24528
835.65	24327
835.788	24376
835.926	24239
836.064	24060
836.202	24182
836.34	24338
836.478	24395
836.615	24380
836.753	24357
836.891	24330
837.029	24456
837.167	24247
837.305	24258
837.443	24190
837.58	24190
837.718	24148
837.856	24209
837.993	24136
838.131	24140
838.269	23977
838.406	23885
838.544	24022
838.681	23809
838.819	23745
838.956	23642
839.094	23745
839.231	23771
839.369	23714
839.506	24026
839.643	23714
839.781	23748
839.918	23543
840.055	23505
840.193	23642
840.33	23467
840.467	23592
840.604	23573
840.742	23745
840.879	23436
841.016	23391
841.153	23459
841.29	23676
841.427	23543
841.564	23566
841.701	23482
841.838	23516
841.975	23429
842.112	23436
842.249	23372
842.385	23250
842.522	23520
842.659	23414
842.796	23303
842.933	23254
843.069	23223
843.206	23273
843.343	23364
843.479	23277
843.616	23246
843.752	23056
843.889	23170
844.025	23223
844.162	23128
844.298	23200
844.435	23098
844.571	23044
844.708	23147
844.844	23178
844.98	23056
845.117	23159
845.253	22942
845.389	22869
845.525	22953
845.661	22930
845.798	22869
845.934	22972
846.07	22717
846.206	22892
846.342	22991
846.478	22691
846.614	22603
846.75	22516
846.886	22512
847.022	22645
847.158	22630
847.294	22577
847.429	22489
847.565	22466
847.701	22892
847.837	22306
847.972	22223
848.108	22299
848.244	22375
848.379	22207
848.515	22173
848.65	22128
848.786	22177
848.921	22169
849.057	22238
849.192	22261
849.328	22166
849.463	22131
849.598	22074
849.734	22105
849.869	21918
850.004	21827
850.14	21964
850.275	21983
850.41	21823
850.545	21884
850.68	21945
850.815	21945
850.95	21926
851.085	21861
851.22	21876
851.355	21888
851.49	21789
851.625	21903
851.76	21854
851.895	21880
852.03	21717
852.165	21884
852.299	21808
852.434	21941
852.569	21907
852.703	21937
852.838	21907
852.973	22017
853.107	22090
853.242	21778
853.376	21835
853.511	21378
853.645	21713
853.78	21842
853.914	21743
854.048	21599
854.183	21732
854.317	21774
854.451	21850
854.585	21667
854.72	21762
854.854	21751
854.988	21603
855.122	21743
855.256	21606
855.39	21778
855.524	21762
855.658	21751
855.792	21686
855.926	21751
856.06	21770
856.194	21766
856.327	21698
856.461	21644
856.595	21682
856.729	21603
856.862	21827
856.996	21831
857.13	21781
857.263	21747
857.397	21610
857.53	21694
857.664	21705
857.797	21819
857.931	21808
858.064	21759
858.197	21774
858.331	21663
858.464	21717
858.597	21576
858.731	21618
858.864	21625
858.997	21705
859.13	21720
859.263	21736
859.396	21857
859.529	21667
859.662	21648
859.795	21595
859.928	21766
860.061	21835
860.194	21831
860.327	21701
860.46	21720
860.592	21880
860.725	21873
860.858	21823
860.99	21637
861.123	21717
861.256	21587
861.388	21667
861.521	22470
861.653	21671
861.786	21496
861.918	21629
862.05	21580
862.183	21587
862.315	21549
862.447	21698
862.58	21599
862.712	21473
862.844	21481
862.976	21443
863.108	21473
863.24	21781
863.372	21287
863.504	21382
863.636	21477
863.768	21397
863.9	21454
864.032	21351
864.164	21348
864.296	21355
864.428	21534
864.559	21583
864.691	21553
864.823	21291
864.954	21416
865.086	21310
865.217	21260
865.349	21226
865.48	21321
865.612	21310
865.743	21363
865.875	21332
866.006	21367
866.137	21313
866.269	21393
866.4	21226
866.531	21249
866.662	21157
866.793	21173
866.924	21176
867.055	21329
867.186	21252
867.317	21211
867.448	21036
867.579	21249
867.71	21207
867.841	21218
867.972	21302
868.103	21161
868.233	21252
868.364	21199
868.495	21332
868.625	21488
868.756	21523
868.886	21439
869.017	21363
869.147	21564
869.278	21610
869.408	21416
869.539	21397
869.669	21553
869.799	21466
869.929	21648
870.06	21538
870.19	21713
870.32	21751
870.45	21850
870.58	21865
870.71	21907
870.84	21987
870.97	21789
871.1	21842
871.23	22074
871.36	22067
871.489	21956
871.619	22051
871.749	21922
871.879	22128
872.008	22063
872.138	21987
872.267	22093
872.397	21930
872.526	21846
872.656	21941
872.785	21895
872.915	22078
873.044	22139
873.173	22032
873.303	21979
873.432	22002
873.561	22284
873.69	22025
873.819	22017
873.948	22090
874.077	22055
874.206	21945
874.335	22173
874.464	22188
874.593	22341
874.722	22284
874.851	22341
874.979	22432
875.108	22291
875.237	22352
875.365	22226
875.494	22234
875.623	22363
875.751	22242
875.88	22333
876.008	22451
876.136	22333
876.265	22656
876.393	22691
876.521	22782
876.65	22786
876.778	22634
876.906	22634
877.034	22668
877.162	22698
877.29	22599
877.418	22675
877.546	22538
877.674	22592
877.802	22523
877.93	22672
878.058	22538
878.185	22497
878.313	22451
878.441	22523
878.568	22474
878.696	22516
878.824	22725
878.951	22839
879.079	22782
879.206	22976
879.333	22771
879.461	22672
879.588	22763
879.715	22687
879.842	22900
879.97	22698
880.097	22462
880.224	22398
880.351	22447
880.478	22428
880.605	22455
880.732	22455
880.859	22660
880.986	22462
881.112	22596
881.239	22325
881.366	22150
881.493	22154
881.619	21949
881.746	21979
881.872	22013
881.999	21975
882.125	21873
882.252	22070
882.378	22025
882.505	22166
882.631	21930
882.757	21850
882.883	21861
883.01	21816
883.136	21682
883.262	21641
883.388	21534
883.514	21747
883.64	21762
883.766	21580
883.892	21526
884.018	21473
884.143	21580
884.269	21781
884.395	21447
884.52	21382
884.646	21443
884.772	21283
884.897	21348
885.023	21298
885.148	21325
885.274	21606
885.399	21412
885.524	21317
885.65	21447
885.775	21428
885.9	21306
886.025	21618
886.15	21439
886.275	21264
886.4	21291
886.525	21359
886.65	21275
886.775	21287
886.9	21428
887.025	21610
887.149	21382
887.274	21131
887.399	21085
887.523	21070
887.648	21047
887.773	21047
887.897	21180
888.021	21241
888.146	21169
888.27	21237
888.395	21283
888.519	21310
888.643	21081
888.767	21127
888.891	20960
889.015	20937
889.139	21001
889.263	20895
889.387	21074
889.511	21131
889.635	21036
889.759	20880
889.883	20804
890.006	20998
890.13	21005
890.254	20838
890.377	20849
890.501	20667
890.624	20644
890.748	20739
890.871	20495
890.995	20412
891.118	20412
891.241	20415
891.364	20480
891.488	20495
891.611	20454
891.734	20564
891.857	20442
891.98	20522
892.103	20461
892.226	20484
892.349	20564
892.471	20305
892.594	20480
892.717	20442
892.839	20355
892.962	20412
893.085	20514
893.207	20492
893.33	20305
893.452	20343
893.575	20438
893.697	20328
893.819	20438
893.941	20583
894.064	20556
894.186	20294
894.308	20313
894.43	20469
894.552	20511
894.674	20351
894.796	20294
894.918	20256
895.04	20374
895.161	20476
895.283	20381
895.405	20400
895.526	20415
895.648	20499
895.769	20339
895.891	20488
896.012	20446
896.134	20419
896.255	20298
896.376	20358
896.498	20267
896.619	20423
896.74	20278
896.861	20431
896.982	20712
897.103	20826
897.224	20602
897.345	20552
897.466	20450
897.587	20579
897.708	20701
897.828	20731
897.949	20602
898.07	20419
898.19	20511
898.311	20667
898.431	20609
898.552	20560
898.672	20530
898.792	20625
898.913	20648
899.033	20579
899.153	20343
899.273	20282
899.393	20351
899.513	20332
899.633	20324
899.753	20415
899.873	20286
899.993	20457
900.113	20298
900.232	20256
900.352	20282
900.472	20286
900.591	20134
900.711	20111
900.83	20176
900.95	20199
901.069	20332
901.189	19963
901.308	19807
901.427	19746
901.546	19731
901.665	19624
901.784	19647
901.904	19704
902.023	19514
902.141	19293
902.26	19244
902.379	19407
902.498	19236
902.617	19251
902.735	19377
902.854	19209
902.973	19168
903.091	18920
903.21	18905
903.328	18886
903.446	18863
903.565	18749
903.683	18734
903.801	18608
903.919	18616
904.038	18650
904.156	18490
904.274	18681
904.392	18509
904.51	18407
904.627	18426
904.745	18483
904.863	18437
904.981	18285
905.098	18190
905.216	18205
905.334	18266
905.451	18098
905.569	18083
905.686	18102
905.803	18201
905.921	18026
906.038	18015
906.155	18003
906.272	17847
906.389	17859
906.506	17672
906.623	17767
906.74	17646
906.857	17520
906.974	17737
907.091	17786
907.208	17745
907.324	17760
907.441	17604
907.557	17368
907.674	17376
907.79	17402
907.907	17299
908.023	17433
908.139	17410
908.256	17284
908.372	17379
908.488	17216
908.604	17151
908.72	17060
908.836	17109
908.952	17083
909.068	17155
909.184	17204
909.3	17128
909.415	17162
909.531	17128
909.647	16839
909.762	16797
909.878	16740
909.993	16702
910.108	16774
910.224	16744
910.339	16721
910.454	16713
910.57	16679
910.685	16664
910.8	16873
910.915	16710
911.03	16584
911.145	16466
911.259	16299
911.374	16371
911.489	16253
911.604	16200
911.718	16196
911.833	16162
911.947	16074
912.062	15865
912.176	16158
912.291	16162
912.405	16040
912.519	16238
912.633	16329
912.748	16105
912.862	16128
912.976	16021
913.09	15823
913.204	15861
913.318	15895
913.431	16013
913.545	16025
913.659	16162
913.772	16048
913.886	15785
914	15812
914.113	15816
914.226	15945
914.34	15831
914.453	15584
914.566	15850
914.68	15606
914.793	15622
914.906	15454
915.019	15344
915.132	15355
915.245	15302
915.358	15401
915.47	15382
915.583	15302
915.696	15401
915.809	15519
915.921	15507
916.034	15298
916.146	15214
916.259	15317
916.371	15310
916.483	15329
916.595	15123
916.708	15131
916.82	15119
916.932	15131
917.044	15097
917.156	15169
917.268	14914
917.38	15043
917.491	14937
917.603	14990
917.715	15104
917.826	15081
917.938	14990
918.049	14804
918.161	14891
918.272	15047
918.384	15058
918.495	14910
918.606	14788
918.717	14602
918.828	14746
918.939	14788
919.05	14625
919.161	14739
919.272	14526
919.383	14590
919.494	14765
919.604	14895
919.715	14826
919.826	14716
919.936	14697
920.047	14777
920.157	14746
920.267	14929
920.378	14735
920.488	14708
920.598	14845
920.708	15047
920.818	14777
920.928	14861
921.038	14941
921.148	14933
921.258	14621
921.368	14469
921.477	14480
921.587	14423
921.697	14381
921.806	14385
921.916	14385
922.025	14248
922.134	14119
922.244	13974
922.353	14084
922.462	13936
922.571	13860
922.68	13685
922.789	13689
922.898	13765
923.007	13624
923.116	13818
923.224	13772
923.333	13719
923.442	13487
923.55	13620
923.659	13616
923.767	13643
923.876	13552
923.984	13586
924.092	13487
924.201	13540
924.309	13499
924.417	13483
924.525	13381
924.633	13411
924.741	14126
924.849	13232
924.956	13339
925.064	13251
925.172	13053
925.279	13050
925.387	13137
925.494	13145
925.602	13194
925.709	13164
925.816	13038
925.924	13095
926.031	13187
926.138	13038
926.245	13061
926.352	12943
926.459	13122
926.566	13156
926.673	13069
926.779	12970
926.886	12928
926.993	12738
927.099	12688
927.206	12681
927.312	12646
927.419	12772
927.525	12719
927.631	12738
927.737	12673
927.843	12448
927.95	12506
928.056	12471
928.162	12555
928.267	12604
928.373	13133
928.479	12612
928.585	12330
928.69	12589
928.796	12479
928.901	12346
929.007	12319
929.112	12330
929.218	12197
929.323	12277
929.428	12289
929.533	12311
929.638	12148
929.743	12163
929.848	12235
929.953	12277
930.058	12079
930.163	11908
930.267	11851
930.372	12079
930.477	11824
930.581	12171
930.685	11882
930.79	11813
930.894	11882
930.998	11767
931.103	11939
931.207	11551
931.311	11444
931.415	11372
931.519	11261
931.623	11178
