Data from test_V78500241_2818.txt Node
Date: Fri Mar 25 15:29:28 CST 2022
User: usil
Spectrometer: V785-0024
Trigger mode: 0
Integration Time (sec): 4.000000E-1
Scans to average: 1
Nonlinearity correction enabled: false
Boxcar width: 0
Storing dark spectrum: false
XAxis mode: Wavelengths
Number of Pixels in Spectrum: 1024
>>>>>Begin Spectral Data<<<<<
801.071	27340
801.214	27096
801.356	26906
801.499	26895
801.641	26849
801.783	26800
801.926	26804
802.068	26667
802.211	26781
802.353	26670
802.496	26396
802.638	26324
802.78	26355
802.923	26339
803.065	26263
803.208	26259
803.35	26518
803.492	26602
803.635	26613
803.777	26362
803.919	26484
804.061	26933
804.204	26533
804.346	26488
804.488	26541
804.63	26503
804.773	26419
804.915	26495
805.057	26552
805.199	26465
805.341	26667
805.483	26590
805.626	26777
805.768	26689
805.91	26655
806.052	26613
806.194	26522
806.336	26857
806.478	26720
806.62	26663
806.762	26705
806.904	27024
807.046	27051
807.188	27077
807.33	27055
807.472	27077
807.614	27009
807.756	27074
807.898	26853
808.04	26830
808.182	26811
808.324	26929
808.465	26899
808.607	27245
808.749	27306
808.891	27359
809.033	27302
809.174	27306
809.316	27195
809.458	27283
809.6	27173
809.741	27378
809.883	27405
810.025	27637
810.166	27488
810.308	27580
810.45	27454
810.591	27359
810.733	27195
810.875	27351
811.016	27096
811.158	27237
811.299	27329
811.441	27427
811.582	27310
811.724	27427
811.865	27214
812.007	27039
812.148	27279
812.29	27279
812.431	27473
812.573	27633
812.714	27656
812.855	27762
812.997	27804
813.138	27994
813.279	27720
813.421	27797
813.562	27644
813.703	27606
813.845	27408
813.986	27298
814.127	26937
814.268	26804
814.41	26944
814.551	26895
814.692	26899
814.833	26796
814.974	26788
815.115	27001
815.256	26880
815.397	26807
815.539	26845
815.68	26864
815.821	26579
815.962	26743
816.103	26632
816.244	26438
816.385	26442
816.526	26404
816.666	26423
816.807	26145
816.948	26172
817.089	26237
817.23	26107
817.371	26229
817.512	26005
817.653	26195
817.793	25947
817.934	26202
818.075	26199
818.216	26119
818.356	26031
818.497	26024
818.638	25822
818.778	25909
818.919	25841
819.06	26039
819.2	26039
819.341	26206
819.481	26035
819.622	26221
819.762	26507
819.903	26351
820.043	26381
820.184	26294
820.324	26233
820.465	26278
820.605	26229
820.746	26218
820.886	26119
821.026	26267
821.167	26149
821.307	26290
821.447	26149
821.588	26065
821.728	25738
821.868	25662
822.008	25597
822.149	25605
822.289	25700
822.429	25293
822.569	25411
822.709	25278
822.849	25156
822.99	25038
823.13	24996
823.27	25053
823.41	25000
823.55	24814
823.69	24981
823.83	24928
823.97	24848
824.11	24696
824.25	24639
824.389	24840
824.529	24981
824.669	24791
824.809	24734
824.949	24920
825.089	24871
825.228	24753
825.368	24582
825.508	24597
825.648	24555
825.787	24631
825.927	24623
826.067	24585
826.206	24700
826.346	24700
826.485	24757
826.625	24574
826.765	24684
826.904	24688
827.044	24471
827.183	24350
827.323	24319
827.462	24388
827.601	24311
827.741	24289
827.88	24285
828.02	24201
828.159	24357
828.298	24300
828.437	24426
828.577	24209
828.716	24391
828.855	24174
828.994	24057
829.134	24197
829.273	23973
829.412	24011
829.551	24034
829.69	23961
829.829	24106
829.968	24140
830.107	24121
830.246	23969
830.385	23992
830.524	23996
830.663	23931
830.802	23805
830.941	23779
831.08	23665
831.219	23581
831.357	23767
831.496	23813
831.635	23684
831.774	23520
831.913	23554
832.051	23414
832.19	23387
832.329	23539
832.467	23463
832.606	23269
832.744	23334
832.883	23311
833.022	23440
833.16	23250
833.299	23349
833.437	23299
833.576	23417
833.714	23349
833.852	23463
833.991	23501
834.129	23395
834.267	23467
834.406	23531
834.544	23455
834.682	23440
834.821	23296
834.959	23497
835.097	23307
835.235	23345
835.373	23379
835.511	23326
835.65	23353
835.788	23208
835.926	23181
836.064	23041
836.202	23124
836.34	23231
836.478	23277
836.615	23155
836.753	23235
836.891	23315
837.029	23242
837.167	23113
837.305	23140
837.443	23071
837.58	23067
837.718	23132
837.856	22938
837.993	23098
838.131	23178
838.269	22805
838.406	22957
838.544	22866
838.681	22771
838.819	22713
838.956	22470
839.094	22626
839.231	22546
839.369	22702
839.506	22968
839.643	22733
839.781	22577
839.918	22573
840.055	22546
840.193	22394
840.33	22478
840.467	22443
840.604	22580
840.742	22721
840.879	22306
841.016	22424
841.153	22325
841.29	22550
841.427	22535
841.564	22428
841.701	22573
841.838	22382
841.975	22398
842.112	22451
842.249	22447
842.385	22360
842.522	22554
842.659	22322
842.796	22219
842.933	22253
843.069	22150
843.206	22204
843.343	22265
843.479	22303
843.616	22234
843.752	22013
843.889	22093
844.025	22101
844.162	21994
844.298	21991
844.435	21945
844.571	21991
844.708	22090
844.844	22105
844.98	22192
845.117	22135
845.253	21903
845.389	21709
845.525	21880
845.661	21903
845.798	21759
845.934	21884
846.07	21682
846.206	21705
846.342	21838
846.478	21625
846.614	21401
846.75	21431
846.886	21568
847.022	21534
847.158	21526
847.294	21420
847.429	21538
847.565	21412
847.701	21774
847.837	21256
847.972	21150
848.108	21336
848.244	21169
848.379	21093
848.515	21013
848.65	20990
848.786	21119
848.921	21142
849.057	21161
849.192	21222
849.328	21112
849.463	20986
849.598	20990
849.734	20963
849.869	20868
850.004	20838
850.14	20891
850.275	20849
850.41	20754
850.545	20853
850.68	20845
850.815	20880
850.95	20796
851.085	20998
851.22	20906
851.355	20845
851.49	20853
851.625	20796
851.76	20876
851.895	20777
852.03	20716
852.165	20880
852.299	20937
852.434	20937
852.569	20762
852.703	20682
852.838	20921
852.973	21020
853.107	20899
853.242	20800
853.376	20682
853.511	20556
853.645	20571
853.78	20876
853.914	20587
854.048	20640
854.183	20629
854.317	20579
854.451	20868
854.585	20682
854.72	20667
854.854	20727
854.988	20571
855.122	20625
855.256	20522
855.39	20644
855.524	20682
855.658	20606
855.792	20606
855.926	20659
856.06	20598
856.194	20667
856.327	20564
856.461	20663
856.595	20587
856.729	20549
856.862	20746
856.996	20564
857.13	20640
857.263	20758
857.397	20819
857.53	20659
857.664	20686
857.797	20670
857.931	20716
858.064	20651
858.197	20743
858.331	20583
858.464	20575
858.597	20507
858.731	20511
858.864	20541
858.997	20621
859.13	20678
859.263	20655
859.396	20758
859.529	20651
859.662	20579
859.795	20609
859.928	20678
860.061	20906
860.194	20720
860.327	20720
860.46	20636
860.592	20804
860.725	20811
860.858	20804
860.99	20644
861.123	20590
861.256	20640
861.388	20564
861.521	21325
861.653	20495
861.786	20377
861.918	20507
862.05	20648
862.183	20473
862.315	20621
862.447	20583
862.58	20568
862.712	20473
862.844	20377
862.976	20358
863.108	20431
863.24	20834
863.372	20263
863.504	20336
863.636	20377
863.768	20313
863.9	20339
864.032	20278
864.164	20389
864.296	20412
864.428	20473
864.559	20556
864.691	20476
864.823	20400
864.954	20396
865.086	20434
865.217	20343
865.349	20077
865.48	20343
865.612	20305
865.743	20298
865.875	20244
866.006	20263
866.137	20305
866.269	20305
866.4	20358
866.531	20191
866.662	20180
866.793	20218
866.924	20259
867.055	20298
867.186	20145
867.317	20153
867.448	20050
867.579	20168
867.71	20126
867.841	20130
867.972	20218
868.103	20183
868.233	20305
868.364	20168
868.495	20381
868.625	20454
868.756	20412
868.886	20408
869.017	20393
869.147	20480
869.278	20564
869.408	20473
869.539	20492
869.669	20484
869.799	20480
869.929	20499
870.06	20568
870.19	20655
870.32	20777
870.45	20693
870.58	20861
870.71	20876
870.84	20952
870.97	20876
871.1	20849
871.23	20941
871.36	21043
871.489	21009
871.619	21062
871.749	21096
871.879	21028
872.008	21123
872.138	21009
872.267	21001
872.397	20906
872.526	20834
872.656	20925
872.785	20933
872.915	21001
873.044	21184
873.173	21020
873.303	21146
873.432	21245
873.561	21108
873.69	21043
873.819	20990
873.948	21195
874.077	21093
874.206	21138
874.335	21157
874.464	21218
874.593	21252
874.722	21275
874.851	21344
874.979	21283
875.108	21439
875.237	21207
875.365	21222
875.494	21233
875.623	21511
875.751	21260
875.88	21424
876.008	21530
876.136	21485
876.265	21694
876.393	21774
876.521	21800
876.65	21724
876.778	21633
876.906	21679
877.034	21580
877.162	21747
877.29	21751
877.418	21629
877.546	21606
877.674	21713
877.802	21736
877.93	21652
878.058	21606
878.185	21500
878.313	21679
878.441	21622
878.568	21431
878.696	21515
878.824	21622
878.951	21694
879.079	21892
879.206	22006
879.333	21797
879.461	21713
879.588	21778
879.715	21907
879.842	22044
879.97	21667
880.097	21485
880.224	21500
880.351	21542
880.478	21557
880.605	21542
880.732	21439
880.859	21576
880.986	21431
881.112	21553
881.239	21336
881.366	21279
881.493	21096
881.619	21173
881.746	21104
881.872	20994
881.999	21017
882.125	21036
882.252	21055
882.378	21081
882.505	21127
882.631	21001
882.757	20826
882.883	20750
883.01	20887
883.136	20861
883.262	20621
883.388	20727
883.514	20792
883.64	20697
883.766	20682
883.892	20629
884.018	20701
884.143	20864
884.269	20705
884.395	20431
884.52	20381
884.646	20370
884.772	20301
884.897	20332
885.023	20473
885.148	20598
885.274	20617
885.399	20552
885.524	20450
885.65	20454
885.775	20286
885.9	20389
886.025	20602
886.15	20579
886.275	20317
886.4	20381
886.525	20191
886.65	20370
886.775	20366
886.9	20492
887.025	20537
887.149	20404
887.274	20195
887.399	20183
887.523	20305
887.648	20092
887.773	20164
887.897	20256
888.021	20290
888.146	20142
888.27	20199
888.395	20275
888.519	20176
888.643	20199
888.767	20278
888.891	20069
889.015	20001
889.139	19925
889.263	19936
889.387	20157
889.511	20142
889.635	20012
889.759	19997
889.883	19997
890.006	19947
890.13	20058
890.254	19955
890.377	19970
890.501	19799
890.624	19712
890.748	19868
890.871	19689
890.995	19628
891.118	19556
891.241	19677
891.364	19495
891.488	19700
891.611	19559
891.734	19575
891.857	19681
891.98	19616
892.103	19586
892.226	19533
892.349	19594
892.471	19480
892.594	19384
892.717	19514
892.839	19521
892.962	19499
893.085	19559
893.207	19422
893.33	19529
893.452	19434
893.575	19529
893.697	19506
893.819	19643
893.941	19681
894.064	19578
894.186	19468
894.308	19472
894.43	19582
894.552	19525
894.674	19597
894.796	19472
894.918	19499
895.04	19430
895.161	19624
895.283	19537
895.405	19476
895.526	19472
895.648	19430
895.769	19613
895.891	19632
896.012	19567
896.134	19624
896.255	19597
896.376	19445
896.498	19605
896.619	19537
896.74	19510
896.861	19578
896.982	19788
897.103	19986
897.224	19803
897.345	19769
897.466	19613
897.587	19750
897.708	19894
897.828	19769
897.949	19689
898.07	19510
898.19	19658
898.311	19753
898.431	19784
898.552	19822
898.672	19750
898.792	19902
898.913	19734
899.033	19727
899.153	19468
899.273	19400
899.393	19521
899.513	19525
899.633	19571
899.753	19502
899.873	19346
899.993	19559
900.113	19441
900.232	19499
900.352	19388
900.472	19491
900.591	19270
900.711	19274
900.83	19304
900.95	19438
901.069	19407
901.189	19247
901.308	18943
901.427	18859
901.546	18894
901.665	18837
901.784	18894
901.904	18669
902.023	18684
902.141	18498
902.26	18380
902.379	18479
902.498	18342
902.617	18399
902.735	18448
902.854	18464
902.973	18388
903.091	18144
903.21	18102
903.328	18007
903.446	17996
903.565	17954
903.683	17977
903.801	17775
903.919	17836
904.038	17863
904.156	17729
904.274	17771
904.392	17551
904.51	17619
904.627	17562
904.745	17783
904.863	17657
904.981	17455
905.098	17341
905.216	17353
905.334	17349
905.451	17318
905.569	17311
905.686	17349
905.803	17280
905.921	17151
906.038	17208
906.155	17231
906.272	16968
906.389	17124
906.506	16927
906.623	16949
906.74	16866
906.857	16748
906.974	16786
907.091	16930
907.208	17010
907.324	16771
907.441	16812
907.557	16668
907.674	16512
907.79	16535
907.907	16481
908.023	16694
908.139	16660
908.256	16596
908.372	16421
908.488	16554
908.604	16363
908.72	16276
908.836	16322
908.952	16325
909.068	16303
909.184	16428
909.3	16322
909.415	16356
909.531	16405
909.647	16067
909.762	15994
909.878	16032
909.993	16036
910.108	16040
910.224	15907
910.339	16017
910.454	15869
910.57	15861
910.685	15717
910.8	16055
910.915	15956
911.03	15880
911.145	15618
911.259	15686
911.374	15667
911.489	15618
911.604	15496
911.718	15424
911.833	15431
911.947	15340
912.062	15294
912.176	15447
912.291	15367
912.405	15507
912.519	15580
912.633	15553
912.748	15473
912.862	15359
912.976	15214
913.09	15081
913.204	15146
913.318	15249
913.431	15241
913.545	15157
913.659	15351
913.772	15119
913.886	15066
914	14952
914.113	15070
914.226	15157
914.34	15051
914.453	14872
914.566	14994
914.68	15024
914.793	14872
914.906	14701
915.019	14701
915.132	14552
915.245	14651
915.358	14655
915.47	14689
915.583	14594
915.696	14697
915.809	14838
915.921	14853
916.034	14526
916.146	14461
916.259	14629
916.371	14632
916.483	14514
916.595	14522
916.708	14526
916.82	14560
916.932	14374
917.044	14412
917.156	14339
917.268	14343
917.38	14347
917.491	14290
917.603	14282
917.715	14355
917.826	14358
917.938	14229
918.049	14164
918.161	14221
918.272	14415
918.384	14374
918.495	14294
918.606	14024
918.717	14001
918.828	14115
918.939	14172
919.05	13906
919.161	14081
919.272	13852
919.383	13940
919.494	14161
919.604	14309
919.715	14077
919.826	13997
919.936	13989
920.047	14126
920.157	14001
920.267	14278
920.378	14145
920.488	14031
920.598	14172
920.708	14377
920.818	14115
920.928	14183
921.038	14305
921.148	14263
921.258	13982
921.368	13932
921.477	13883
921.587	13803
921.697	13624
921.806	13811
921.916	13666
922.025	13468
922.134	13434
922.244	13354
922.353	13491
922.462	13320
922.571	13335
922.68	13110
922.789	13114
922.898	13156
923.007	13015
923.116	13141
923.224	13084
923.333	13034
923.442	12920
923.55	12954
923.659	12935
923.767	12981
923.876	12905
923.984	12905
924.092	12817
924.201	12871
924.309	12817
924.417	12844
924.525	12760
924.633	12848
924.741	13567
924.849	12547
924.956	12658
925.064	12532
925.172	12486
925.279	12502
925.387	12525
925.494	12506
925.602	12642
925.709	12563
925.816	12361
925.924	12494
926.031	12521
926.138	12445
926.245	12498
926.352	12433
926.459	12513
926.566	12509
926.673	12403
926.779	12258
926.886	12334
926.993	12178
927.099	12060
927.206	12106
927.312	12045
927.419	12114
927.525	12106
927.631	12117
927.737	11946
927.843	12015
927.95	11866
928.056	11927
928.162	11992
928.267	11973
928.373	12585
928.479	12022
928.585	11798
928.69	11927
928.796	11916
928.901	11783
929.007	11672
929.112	11843
929.218	11760
929.323	11646
929.428	11699
929.533	11832
929.638	11649
929.743	11608
929.848	11573
929.953	11604
930.058	11463
930.163	11349
930.267	11364
930.372	11474
930.477	11303
930.581	11585
930.685	11444
930.79	11223
930.894	11311
930.998	11265
931.103	11406
931.207	10980
931.311	11022
931.415	10858
931.519	10733
931.623	10645
