Data from test_V78500241_2299.txt Node
Date: Fri Mar 25 15:25:51 CST 2022
User: usil
Spectrometer: V785-0024
Trigger mode: 0
Integration Time (sec): 4.000000E-1
Scans to average: 1
Nonlinearity correction enabled: false
Boxcar width: 0
Storing dark spectrum: false
XAxis mode: Wavelengths
Number of Pixels in Spectrum: 1024
>>>>>Begin Spectral Data<<<<<
801.071	27736
801.214	27610
801.356	27431
801.499	27310
801.641	27089
801.783	27214
801.926	27230
802.068	27272
802.211	27047
802.353	27184
802.496	26944
802.638	26781
802.78	26800
802.923	26735
803.065	26857
803.208	26838
803.35	26929
803.492	26861
803.635	27169
803.777	27013
803.919	27017
804.061	27382
804.204	27161
804.346	27081
804.488	27062
804.63	27176
804.773	27020
804.915	27241
805.057	27199
805.199	27077
805.341	27249
805.483	27283
805.626	27230
805.768	27039
805.91	27287
806.052	27195
806.194	27176
806.336	27268
806.478	27237
806.62	27203
806.762	27374
806.904	27469
807.046	27675
807.188	27793
807.33	27633
807.472	27789
807.614	27663
807.756	27591
807.898	27485
808.04	27325
808.182	27427
808.324	27454
808.465	27591
808.607	27705
808.749	27812
808.891	27884
809.033	28044
809.174	27800
809.316	27603
809.458	27804
809.6	27705
809.741	27968
809.883	27850
810.025	28116
810.166	28204
810.308	28006
810.45	28207
810.591	27949
810.733	27953
810.875	27778
811.016	27705
811.158	27717
811.299	27846
811.441	27926
811.582	27914
811.724	27850
811.865	27797
812.007	27671
812.148	27717
812.29	27781
812.431	28025
812.573	28150
812.714	28367
812.855	28192
812.997	28360
813.138	28478
813.279	28447
813.421	28344
813.562	28333
813.703	28059
813.845	27975
813.986	27694
814.127	27564
814.268	27724
814.41	27671
814.551	27492
814.692	27568
814.833	27435
814.974	27507
815.115	27523
815.256	27553
815.397	27367
815.539	27298
815.68	27291
815.821	27325
815.962	27249
816.103	27256
816.244	27146
816.385	27135
816.526	27024
816.666	26868
816.807	26918
816.948	26880
817.089	26838
817.23	26845
817.371	26796
817.512	26670
817.653	26906
817.793	26693
817.934	26754
818.075	26796
818.216	26880
818.356	26651
818.497	26644
818.638	26556
818.778	26549
818.919	26590
819.06	26545
819.2	26648
819.341	26750
819.481	26910
819.622	26887
819.762	27085
819.903	27089
820.043	27024
820.184	26963
820.324	26861
820.465	26868
820.605	26868
820.746	26781
820.886	26697
821.026	26697
821.167	26925
821.307	26887
821.447	26796
821.588	26659
821.728	26514
821.868	26507
822.008	26259
822.149	26298
822.289	26286
822.429	26062
822.569	25921
822.709	25898
822.849	25708
822.99	25715
823.13	25811
823.27	25601
823.41	25552
823.55	25556
823.69	25457
823.83	25613
823.97	25449
824.11	25293
824.25	25426
824.389	25411
824.529	25343
824.669	25445
824.809	25464
824.949	25487
825.089	25525
825.228	25483
825.368	25171
825.508	25187
825.648	25407
825.787	25187
825.927	25304
826.067	25114
826.206	25369
826.346	25324
826.485	25320
826.625	25236
826.765	25320
826.904	25285
827.044	25072
827.183	25076
827.323	25000
827.462	25126
827.601	25046
827.741	24928
827.88	24947
828.02	24943
828.159	24856
828.298	24970
828.437	25091
828.577	24856
828.716	25000
828.855	24928
828.994	24582
829.134	24692
829.273	24661
829.412	24589
829.551	24658
829.69	24677
829.829	24776
829.968	24772
830.107	24563
830.246	24715
830.385	24597
830.524	24555
830.663	24490
830.802	24334
830.941	24178
831.08	24178
831.219	24277
831.357	24330
831.496	24361
831.635	24190
831.774	24178
831.913	24205
832.051	24015
832.19	24110
832.329	24167
832.467	24068
832.606	23874
832.744	23946
832.883	23961
833.022	23851
833.16	23950
833.299	23988
833.437	23988
833.576	24095
833.714	23973
833.852	23931
833.991	24163
834.129	24117
834.267	23980
834.406	23935
834.544	24038
834.682	24060
834.821	23893
834.959	24110
835.097	23977
835.235	24003
835.373	23973
835.511	23958
835.65	23832
835.788	23992
835.926	23809
836.064	23699
836.202	23703
836.34	23783
836.478	23893
836.615	23786
836.753	23855
836.891	23916
837.029	23855
837.167	23783
837.305	23649
837.443	23592
837.58	23672
837.718	23710
837.856	23733
837.993	23615
838.131	23589
838.269	23562
838.406	23524
838.544	23490
838.681	23326
838.819	23216
838.956	23037
839.094	23132
839.231	23212
839.369	23360
839.506	23630
839.643	23337
839.781	23273
839.918	23113
840.055	23162
840.193	23010
840.33	23022
840.467	23029
840.604	23006
840.742	23303
840.879	22957
841.016	22965
841.153	22793
841.29	23235
841.427	23056
841.564	23029
841.701	23064
841.838	23010
841.975	23003
842.112	22976
842.249	22965
842.385	22892
842.522	22957
842.659	22843
842.796	22744
842.933	22938
843.069	22839
843.206	22649
843.343	22889
843.479	22752
843.616	22786
843.752	22626
843.889	22588
844.025	22790
844.162	22557
844.298	22744
844.435	22706
844.571	22691
844.708	22656
844.844	22759
844.98	22744
845.117	22630
845.253	22557
845.389	22436
845.525	22519
845.661	22428
845.798	22265
845.934	22299
846.07	22291
846.206	22299
846.342	22341
846.478	22219
846.614	22067
846.75	22013
846.886	22169
847.022	22120
847.158	22013
847.294	22036
847.429	22082
847.565	22013
847.701	22333
847.837	21808
847.972	21827
848.108	21888
848.244	21918
848.379	21686
848.515	21671
848.65	21675
848.786	21523
848.921	21682
849.057	21724
849.192	21732
849.328	21675
849.463	21736
849.598	21652
849.734	21485
849.869	21519
850.004	21321
850.14	21435
850.275	21370
850.41	21367
850.545	21287
850.68	21370
850.815	21382
850.95	21378
851.085	21534
851.22	21595
851.355	21473
851.49	21378
851.625	21450
851.76	21405
851.895	21408
852.03	21420
852.165	21386
852.299	21477
852.434	21511
852.569	21462
852.703	21344
852.838	21466
852.973	21553
853.107	21462
853.242	21317
853.376	21230
853.511	21116
853.645	21199
853.78	21389
853.914	21340
854.048	21188
854.183	21165
854.317	21249
854.451	21378
854.585	21241
854.72	21199
854.854	21313
854.988	21135
855.122	21142
855.256	21096
855.39	21226
855.524	21313
855.658	21211
855.792	21233
855.926	21249
856.06	21310
856.194	21447
856.327	21146
856.461	21032
856.595	21192
856.729	21287
856.862	21298
856.996	21230
857.13	21374
857.263	21412
857.397	21222
857.53	21317
857.664	21329
857.797	21340
857.931	21511
858.064	21272
858.197	21447
858.331	21154
858.464	21142
858.597	21138
858.731	21230
858.864	21241
858.997	21100
859.13	21279
859.263	21256
859.396	21431
859.529	21207
859.662	21173
859.795	21173
859.928	21272
860.061	21332
860.194	21386
860.327	21382
860.46	21241
860.592	21336
860.725	21374
860.858	21488
860.99	21268
861.123	21264
861.256	21325
861.388	21260
861.521	21930
861.653	21123
861.786	21036
861.918	21096
862.05	21123
862.183	21066
862.315	21249
862.447	21222
862.58	21123
862.712	20956
862.844	20864
862.976	21005
863.108	20998
863.24	21382
863.372	20918
863.504	21009
863.636	20830
863.768	20891
863.9	20921
864.032	20887
864.164	20967
864.296	20929
864.428	21058
864.559	21074
864.691	21058
864.823	20815
864.954	20823
865.086	20941
865.217	20933
865.349	20750
865.48	20876
865.612	20758
865.743	20967
865.875	20830
866.006	20819
866.137	20845
866.269	20849
866.4	20800
866.531	20807
866.662	20712
866.793	20731
866.924	20686
867.055	20785
867.186	20819
867.317	20743
867.448	20693
867.579	20739
867.71	20659
867.841	20609
867.972	20678
868.103	20701
868.233	20811
868.364	20731
868.495	20796
868.625	20975
868.756	21051
868.886	20906
869.017	21096
869.147	21146
869.278	21116
869.408	21100
869.539	21131
869.669	21085
869.799	21055
869.929	21096
870.06	21165
870.19	21237
870.32	21351
870.45	21405
870.58	21233
870.71	21466
870.84	21447
870.97	21321
871.1	21466
871.23	21557
871.36	21641
871.489	21492
871.619	21595
871.749	21690
871.879	21633
872.008	21705
872.138	21667
872.267	21720
872.397	21477
872.526	21473
872.656	21416
872.785	21534
872.915	21667
873.044	21633
873.173	21652
873.303	21682
873.432	21671
873.561	21755
873.69	21705
873.819	21701
873.948	21759
874.077	21644
874.206	21576
874.335	21538
874.464	21789
874.593	21854
874.722	21808
874.851	21800
874.979	21907
875.108	21838
875.237	21934
875.365	21747
875.494	21895
875.623	21945
875.751	21800
875.88	21835
876.008	21979
876.136	21960
876.265	22337
876.393	22341
876.521	22356
876.65	22325
876.778	22188
876.906	22192
877.034	22246
877.162	22299
877.29	22105
877.418	22268
877.546	22280
877.674	22150
877.802	22177
877.93	22314
878.058	22196
878.185	22013
878.313	22166
878.441	22188
878.568	22082
878.696	22181
878.824	22173
878.951	22242
879.079	22382
879.206	22630
879.333	22405
879.461	22097
879.588	22371
879.715	22398
879.842	22443
879.97	22306
880.097	22131
880.224	22025
880.351	21930
880.478	22074
880.605	22010
880.732	22025
880.859	22310
880.986	22025
881.112	22097
881.239	21888
881.366	21709
881.493	21713
881.619	21599
881.746	21778
881.872	21606
881.999	21644
882.125	21534
882.252	21641
882.378	21629
882.505	21728
882.631	21469
882.757	21344
882.883	21443
883.01	21268
883.136	21135
883.262	21218
883.388	21214
883.514	21397
883.64	21287
883.766	21317
883.892	21013
884.018	21047
884.143	21287
884.269	21207
884.395	21055
884.52	20925
884.646	21089
884.772	20899
884.897	20921
885.023	20952
885.148	21146
885.274	21211
885.399	21032
885.524	20880
885.65	20944
885.775	20910
885.9	20941
886.025	21157
886.15	20990
886.275	20906
886.4	20929
886.525	20891
886.65	20800
886.775	20895
886.9	20975
887.025	21119
887.149	20826
887.274	20724
887.399	20792
887.523	20754
887.648	20781
887.773	20606
887.897	20819
888.021	20708
888.146	20632
888.27	20785
888.395	20705
888.519	20754
888.643	20727
888.767	20659
888.891	20705
889.015	20526
889.139	20663
889.263	20511
889.387	20609
889.511	20804
889.635	20739
889.759	20480
889.883	20530
890.006	20541
890.13	20682
890.254	20537
890.377	20385
890.501	20278
890.624	20237
890.748	20313
890.871	20145
890.995	20088
891.118	20073
891.241	19963
891.364	20054
891.488	20183
891.611	20214
891.734	20088
891.857	20153
891.98	20027
892.103	20092
892.226	20195
892.349	20005
892.471	19822
892.594	19986
892.717	20069
892.839	20001
892.962	19932
893.085	20115
893.207	19993
893.33	19887
893.452	19970
893.575	20062
893.697	19974
893.819	20081
893.941	20161
894.064	20161
894.186	19982
894.308	19852
894.43	20073
894.552	20263
894.674	20073
894.796	19860
894.918	19974
895.04	19871
895.161	20062
895.283	20016
895.405	19909
895.526	19894
895.648	19852
895.769	19894
895.891	19928
896.012	20046
896.134	20062
896.255	19989
896.376	19909
896.498	20008
896.619	20092
896.74	20024
896.861	20069
896.982	20336
897.103	20336
897.224	20385
897.345	20256
897.466	20206
897.587	20149
897.708	20282
897.828	20294
897.949	20244
898.07	20065
898.19	20077
898.311	20256
898.431	20130
898.552	20240
898.672	20263
898.792	20275
898.913	20183
899.033	20153
899.153	20073
899.273	19868
899.393	20046
899.513	19982
899.633	19932
899.753	19925
899.873	19970
899.993	20016
900.113	19940
900.232	19921
900.352	19871
900.472	19708
900.591	19681
900.711	19822
900.83	19746
900.95	19902
901.069	19818
901.189	19643
901.308	19365
901.427	19274
901.546	19346
901.665	19441
901.784	19449
901.904	19133
902.023	19099
902.141	18875
902.26	18913
902.379	18924
902.498	18859
902.617	18749
902.735	18913
902.854	18764
902.973	18745
903.091	18536
903.21	18547
903.328	18426
903.446	18399
903.565	18346
903.683	18395
903.801	18209
903.919	18300
904.038	18224
904.156	18030
904.274	18205
904.392	18106
904.51	18026
904.627	18003
904.745	18129
904.863	18064
904.981	17908
905.098	17821
905.216	17805
905.334	17767
905.451	17764
905.569	17695
905.686	17843
905.803	17824
905.921	17600
906.038	17695
906.155	17623
906.272	17425
906.389	17455
906.506	17280
906.623	17448
906.74	17299
906.857	17109
906.974	17197
907.091	17341
907.208	17474
907.324	17353
907.441	17189
907.557	17041
907.674	16980
907.79	16911
907.907	17045
908.023	16991
908.139	17045
908.256	16965
908.372	16892
908.488	16881
908.604	16767
908.72	16641
908.836	16702
908.952	16683
909.068	16740
909.184	16809
909.3	16683
909.415	16767
909.531	16801
909.647	16497
909.762	16443
909.878	16481
909.993	16436
910.108	16367
910.224	16421
910.339	16375
910.454	16249
910.57	16238
910.685	16215
910.8	16535
910.915	16390
911.03	16211
911.145	16021
911.259	16036
911.374	15998
911.489	15964
911.604	15960
911.718	15800
911.833	15781
911.947	15576
912.062	15557
912.176	15747
912.291	15861
912.405	15724
912.519	15949
912.633	15918
912.748	15785
912.862	15774
912.976	15622
913.09	15553
913.204	15496
913.318	15603
913.431	15656
913.545	15644
913.659	15732
913.772	15656
913.886	15435
914	15435
914.113	15367
914.226	15584
914.34	15473
914.453	15287
914.566	15424
914.68	15287
914.793	15283
914.906	15127
915.019	14990
915.132	15013
915.245	15017
915.358	15028
915.47	14975
915.583	15043
915.696	15066
915.809	15142
915.921	15135
916.034	15005
916.146	14864
916.259	14929
916.371	15039
916.483	14941
916.595	14902
916.708	14765
916.82	14929
916.932	14830
917.044	14838
917.156	14720
917.268	14648
917.38	14598
917.491	14594
917.603	14762
917.715	14689
917.826	14743
917.938	14568
918.049	14625
918.161	14587
918.272	14872
918.384	14735
918.495	14613
918.606	14396
918.717	14404
918.828	14442
918.939	14484
919.05	14427
919.161	14374
919.272	14202
919.383	14271
919.494	14457
919.604	14663
919.715	14393
919.826	14374
919.936	14290
920.047	14415
920.157	14324
920.267	14610
920.378	14381
920.488	14358
920.598	14503
920.708	14636
920.818	14461
920.928	14431
921.038	14712
921.148	14640
921.258	14404
921.368	14221
921.477	14168
921.587	14081
921.697	13959
921.806	14092
921.916	14031
922.025	13818
922.134	13700
922.244	13753
922.353	13791
922.462	13715
922.571	13636
922.68	13400
922.789	13365
922.898	13480
923.007	13331
923.116	13476
923.224	13510
923.333	13415
923.442	13297
923.55	13259
923.659	13263
923.767	13343
923.876	13198
923.984	13236
924.092	13129
924.201	13225
924.309	13206
924.417	13137
924.525	13038
924.633	13065
924.741	13963
924.849	12947
924.956	12943
925.064	12951
925.172	12859
925.279	12806
925.387	12795
925.494	12764
925.602	12977
925.709	12814
925.816	12707
925.924	12722
926.031	12802
926.138	12776
926.245	12856
926.352	12700
926.459	12726
926.566	12791
926.673	12696
926.779	12662
926.886	12570
926.993	12471
927.099	12422
927.206	12372
927.312	12289
927.419	12486
927.525	12315
927.631	12399
927.737	12391
927.843	12300
927.95	12152
928.056	12270
928.162	12251
928.267	12334
928.373	12817
928.479	12220
928.585	12068
928.69	12152
928.796	12266
928.901	12102
929.007	11920
929.112	12091
929.218	11946
929.323	11958
929.428	11920
929.533	12076
929.638	11836
929.743	12003
929.848	11973
929.953	11855
930.058	11836
930.163	11714
930.267	11657
930.372	11802
930.477	11600
930.581	11802
930.685	11756
930.79	11581
930.894	11570
930.998	11589
931.103	11653
931.207	11227
931.311	11258
931.415	11113
931.519	10946
931.623	10965
