Data from test_V78500241_804.txt Node
Date: Fri Mar 25 15:15:27 CST 2022
User: usil
Spectrometer: V785-0024
Trigger mode: 0
Integration Time (sec): 4.000000E-1
Scans to average: 1
Nonlinearity correction enabled: false
Boxcar width: 0
Storing dark spectrum: false
XAxis mode: Wavelengths
Number of Pixels in Spectrum: 1024
>>>>>Begin Spectral Data<<<<<
801.071	28158
801.214	28219
801.356	28036
801.499	28025
801.641	27717
801.783	27808
801.926	27998
802.068	27861
802.211	27682
802.353	27686
802.496	27530
802.638	27534
802.78	27603
802.923	27496
803.065	27580
803.208	27542
803.35	27549
803.492	27564
803.635	27736
803.777	27618
803.919	27766
804.061	28006
804.204	27690
804.346	27705
804.488	27481
804.63	27629
804.773	27618
804.915	27656
805.057	27720
805.199	27778
805.341	27732
805.483	27861
805.626	27804
805.768	27694
805.91	27728
806.052	27892
806.194	27895
806.336	27857
806.478	28036
806.62	27873
806.762	28032
806.904	28093
807.046	28344
807.188	28280
807.33	28177
807.472	28352
807.614	28154
807.756	28188
807.898	28055
808.04	28131
808.182	28135
808.324	28246
808.465	28093
808.607	28325
808.749	28284
808.891	28675
809.033	28710
809.174	28531
809.316	28577
809.458	28424
809.6	28634
809.741	28649
809.883	28687
810.025	28752
810.166	28691
810.308	28877
810.45	28733
810.591	28793
810.733	28550
810.875	28466
811.016	28497
811.158	28401
811.299	28516
811.441	28603
811.582	28611
811.724	28512
811.865	28607
812.007	28462
812.148	28390
812.29	28527
812.431	28763
812.573	28805
812.714	28927
812.855	29094
812.997	29166
813.138	29318
813.279	29303
813.421	29227
813.562	28976
813.703	28972
813.845	28759
813.986	28424
814.127	28219
814.268	28401
814.41	28280
814.551	28329
814.692	28211
814.833	28086
814.974	28246
815.115	28204
815.256	28131
815.397	28135
815.539	28048
815.68	28207
815.821	27895
815.962	27953
816.103	28078
816.244	27812
816.385	27835
816.526	27812
816.666	27473
816.807	27549
816.948	27679
817.089	27736
817.23	27561
817.371	27587
817.512	27713
817.653	27667
817.793	27496
817.934	27637
818.075	27599
818.216	27481
818.356	27488
818.497	27492
818.638	27340
818.778	27173
818.919	27298
819.06	27561
819.2	27530
819.341	27671
819.481	27469
819.622	27625
819.762	27907
819.903	27698
820.043	27774
820.184	27690
820.324	27633
820.465	27622
820.605	27736
820.746	27641
820.886	27561
821.026	27663
821.167	27568
821.307	27717
821.447	27454
821.588	27435
821.728	27207
821.868	27249
822.008	26998
822.149	27039
822.289	26929
822.429	26773
822.569	26632
822.709	26545
822.849	26579
822.99	26712
823.13	26552
823.27	26442
823.41	26484
823.55	26225
823.69	26362
823.83	26377
823.97	26317
824.11	26305
824.25	26195
824.389	26275
824.529	26199
824.669	26183
824.809	26275
824.949	26461
825.089	26275
825.228	26294
825.368	26065
825.508	25986
825.648	25932
825.787	26069
825.927	26142
826.067	26096
826.206	26016
826.346	26084
826.485	26107
826.625	26100
826.765	26210
826.904	26005
827.044	25807
827.183	25731
827.323	25784
827.462	26008
827.601	25818
827.741	25807
827.88	25833
828.02	25525
828.159	25715
828.298	25864
828.437	26005
828.577	25712
828.716	25989
828.855	25731
828.994	25651
829.134	25460
829.273	25548
829.412	25419
829.551	25434
829.69	25472
829.829	25624
829.968	25628
830.107	25499
830.246	25601
830.385	25426
830.524	25308
830.663	25301
830.802	25171
830.941	25091
831.08	25069
831.219	25221
831.357	25179
831.496	25297
831.635	25240
831.774	25046
831.913	24939
832.051	24833
832.19	24886
832.329	24913
832.467	24772
832.606	24757
832.744	24658
832.883	24875
833.022	24764
833.16	24677
833.299	24821
833.437	24681
833.576	24844
833.714	24947
833.852	25019
833.991	24894
834.129	24772
834.267	24924
834.406	24943
834.544	24829
834.682	24753
834.821	24764
834.959	24970
835.097	24795
835.235	24924
835.373	24825
835.511	24863
835.65	24540
835.788	24696
835.926	24517
836.064	24479
836.202	24532
836.34	24711
836.478	24646
836.615	24669
836.753	24707
836.891	24730
837.029	24677
837.167	24471
837.305	24551
837.443	24521
837.58	24456
837.718	24490
837.856	24620
837.993	24437
838.131	24486
838.269	24327
838.406	24350
838.544	24254
838.681	24102
838.819	24163
838.956	23950
839.094	23908
839.231	23977
839.369	24129
839.506	24315
839.643	24159
839.781	23965
839.918	23908
840.055	23935
840.193	23920
840.33	23843
840.467	23878
840.604	23939
840.742	24167
840.879	23779
841.016	23817
841.153	23657
841.29	23939
841.427	23828
841.564	23798
841.701	23813
841.838	23809
841.975	23703
842.112	23790
842.249	23630
842.385	23589
842.522	23786
842.659	23745
842.796	23554
842.933	23490
843.069	23577
843.206	23478
843.343	23615
843.479	23577
843.616	23642
843.752	23471
843.889	23334
844.025	23558
844.162	23410
844.298	23398
844.435	23364
844.571	23406
844.708	23360
844.844	23554
844.98	23452
845.117	23425
845.253	23376
845.389	23334
845.525	23353
845.661	23178
845.798	23102
845.934	23147
846.07	23029
846.206	23254
846.342	23246
846.478	22991
846.614	22915
846.75	22744
846.886	22881
847.022	22976
847.158	22763
847.294	22801
847.429	22881
847.565	22740
847.701	23083
847.837	22615
847.972	22535
848.108	22717
848.244	22679
848.379	22504
848.515	22428
848.65	22455
848.786	22440
848.921	22421
849.057	22497
849.192	22550
849.328	22402
849.463	22398
849.598	22379
849.734	22462
849.869	22238
850.004	22185
850.14	22291
850.275	22166
850.41	22188
850.545	22257
850.68	22139
850.815	22253
850.95	22181
851.085	22386
851.22	22242
851.355	22200
851.49	22105
851.625	22188
851.76	22101
851.895	22109
852.03	21991
852.165	22215
852.299	22211
852.434	22325
852.569	22325
852.703	22044
852.838	22265
852.973	22322
853.107	22261
853.242	22082
853.376	22124
853.511	21869
853.645	22032
853.78	22078
853.914	22051
854.048	21968
854.183	22002
854.317	22006
854.451	22154
854.585	21861
854.72	21899
854.854	22032
854.988	21903
855.122	21956
855.256	21804
855.39	22025
855.524	22074
855.658	22090
855.792	22154
855.926	21930
856.06	22078
856.194	22063
856.327	22051
856.461	21869
856.595	21987
856.729	22013
856.862	22105
856.996	22029
857.13	22063
857.263	22177
857.397	22086
857.53	21892
857.664	22078
857.797	22070
857.931	22040
858.064	22059
858.197	22063
858.331	22059
858.464	21895
858.597	21861
858.731	22021
858.864	22017
858.997	21953
859.13	22032
859.263	22032
859.396	22116
859.529	21975
859.662	21956
859.795	21964
859.928	22017
860.061	22051
860.194	22204
860.327	22063
860.46	22017
860.592	21922
860.725	22139
860.858	22158
860.99	21991
861.123	21857
861.256	21949
861.388	21895
861.521	22759
861.653	21823
861.786	21793
861.918	21819
862.05	21873
862.183	22048
862.315	21941
862.447	21964
862.58	21903
862.712	21793
862.844	21625
862.976	21747
863.108	21759
863.24	22204
863.372	21622
863.504	21580
863.636	21713
863.768	21736
863.9	21648
864.032	21568
864.164	21610
864.296	21831
864.428	21812
864.559	21743
864.691	21747
864.823	21751
864.954	21743
865.086	21709
865.217	21603
865.349	21492
865.48	21603
865.612	21576
865.743	21720
865.875	21743
866.006	21454
866.137	21549
866.269	21595
866.4	21595
866.531	21481
866.662	21431
866.793	21599
866.924	21515
867.055	21538
867.186	21557
867.317	21485
867.448	21447
867.579	21469
867.71	21389
867.841	21397
867.972	21408
868.103	21481
868.233	21557
868.364	21462
868.495	21564
868.625	21724
868.756	21846
868.886	21652
869.017	21766
869.147	21945
869.278	21869
869.408	21747
869.539	21873
869.669	21797
869.799	21804
869.929	21831
870.06	21819
870.19	22048
870.32	22082
870.45	22219
870.58	22223
870.71	22200
870.84	22333
870.97	22135
871.1	22173
871.23	22200
871.36	22386
871.489	22303
871.619	22386
871.749	22356
871.879	22318
872.008	22455
872.138	22299
872.267	22299
872.397	22219
872.526	22067
872.656	22272
872.785	22188
872.915	22299
873.044	22527
873.173	22409
873.303	22379
873.432	22371
873.561	22577
873.69	22348
873.819	22246
873.948	22455
874.077	22379
874.206	22432
874.335	22284
874.464	22592
874.593	22664
874.722	22565
874.851	22580
874.979	22675
875.108	22653
875.237	22516
875.365	22512
875.494	22554
875.623	22691
875.751	22569
875.88	22660
876.008	22710
876.136	22820
876.265	23025
876.393	22976
876.521	23056
876.65	22965
876.778	22938
876.906	22934
877.034	22930
877.162	22778
877.29	22820
877.418	22839
877.546	22919
877.674	22923
877.802	22987
877.93	22976
878.058	22866
878.185	22721
878.313	22771
878.441	22942
878.568	22782
878.696	22873
878.824	22938
878.951	22980
879.079	23064
879.206	23273
879.333	23044
879.461	22911
879.588	22942
879.715	23067
879.842	23086
879.97	22961
880.097	22767
880.224	22664
880.351	22721
880.478	22740
880.605	22683
880.732	22656
880.859	22968
880.986	22771
881.112	22915
881.239	22565
881.366	22462
881.493	22405
881.619	22310
881.746	22344
881.872	22371
881.999	22356
882.125	22158
882.252	22318
882.378	22211
882.505	22341
882.631	22090
882.757	21956
882.883	22090
883.01	22063
883.136	21903
883.262	21854
883.388	21747
883.514	22013
883.64	22055
883.766	21918
883.892	21873
884.018	21827
884.143	21876
884.269	21994
884.395	21709
884.52	21694
884.646	21610
884.772	21553
884.897	21526
885.023	21572
885.148	21759
885.274	21789
885.399	21759
885.524	21572
885.65	21545
885.775	21732
885.9	21629
886.025	21956
886.15	21762
886.275	21523
886.4	21564
886.525	21549
886.65	21564
886.775	21473
886.9	21667
887.025	21823
887.149	21644
887.274	21443
887.399	21382
887.523	21386
887.648	21393
887.773	21313
887.897	21443
888.021	21545
888.146	21313
888.27	21507
888.395	21466
888.519	21431
888.643	21332
888.767	21466
888.891	21287
889.015	21169
889.139	21192
889.263	21306
889.387	21466
889.511	21336
889.635	21355
889.759	21116
889.883	21131
890.006	21218
890.13	21329
890.254	21066
890.377	21108
890.501	20933
890.624	20834
890.748	20933
890.871	20727
890.995	20686
891.118	20716
891.241	20640
891.364	20746
891.488	20914
891.611	20648
891.734	20838
891.857	20773
891.98	20765
892.103	20785
892.226	20819
892.349	20560
892.471	20552
892.594	20796
892.717	20739
892.839	20579
892.962	20617
893.085	20674
893.207	20556
893.33	20617
893.452	20575
893.575	20674
893.697	20587
893.819	20815
893.941	20910
894.064	20781
894.186	20537
894.308	20583
894.43	20636
894.552	20785
894.674	20682
894.796	20511
894.918	20575
895.04	20583
895.161	20834
895.283	20617
895.405	20575
895.526	20682
895.648	20640
895.769	20590
895.891	20670
896.012	20613
896.134	20739
896.255	20689
896.376	20575
896.498	20606
896.619	20579
896.74	20590
896.861	20739
896.982	20887
897.103	21089
897.224	20887
897.345	20823
897.466	20807
897.587	20891
897.708	20975
897.828	20842
897.949	20754
898.07	20632
898.19	20952
898.311	20925
898.431	20735
898.552	20758
898.672	20811
898.792	20948
898.913	20777
899.033	20689
899.153	20720
899.273	20530
899.393	20499
899.513	20587
899.633	20625
899.753	20632
899.873	20568
899.993	20549
900.113	20465
900.232	20575
900.352	20423
900.472	20476
900.591	20278
900.711	20282
900.83	20450
900.95	20290
901.069	20377
901.189	20164
901.308	19921
901.427	19917
901.546	19944
901.665	19970
901.784	19913
901.904	19883
902.023	19731
902.141	19476
902.26	19407
902.379	19567
902.498	19441
902.617	19346
902.735	19499
902.854	19472
902.973	19369
903.091	19008
903.21	19160
903.328	19107
903.446	19065
903.565	19019
903.683	18901
903.801	18760
903.919	18787
904.038	18821
904.156	18608
904.274	18715
904.392	18551
904.51	18623
904.627	18692
904.745	18764
904.863	18665
904.981	18399
905.098	18334
905.216	18327
905.334	18330
905.451	18361
905.569	18277
905.686	18388
905.803	18289
905.921	18102
906.038	18136
906.155	18098
906.272	18011
906.389	17984
906.506	17870
906.623	17893
906.74	17908
906.857	17767
906.974	17729
907.091	17847
907.208	17961
907.324	17912
907.441	17805
907.557	17630
907.674	17619
907.79	17562
907.907	17535
908.023	17554
908.139	17623
908.256	17474
908.372	17459
908.488	17444
908.604	17376
908.72	17318
908.836	17307
908.952	17178
909.068	17311
909.184	17292
909.3	17239
909.415	17227
909.531	17261
909.647	17025
909.762	16995
909.878	16881
909.993	17056
910.108	16980
910.224	16915
910.339	16934
910.454	16927
910.57	16854
910.685	16653
910.8	16999
910.915	16938
911.03	16767
911.145	16672
911.259	16546
911.374	16599
911.489	16478
911.604	16424
911.718	16226
911.833	16287
911.947	16280
912.062	16169
912.176	16249
912.291	16238
912.405	16253
912.519	16527
912.633	16462
912.748	16405
912.862	16337
912.976	16181
913.09	15994
913.204	16067
913.318	16139
913.431	16219
913.545	16166
913.659	16211
913.772	16063
913.886	16105
914	15880
914.113	15949
914.226	15994
914.34	16006
914.453	15797
914.566	15918
914.68	15903
914.793	15785
914.906	15671
915.019	15572
915.132	15454
915.245	15488
915.358	15469
915.47	15580
915.583	15568
915.696	15496
915.809	15671
915.921	15561
916.034	15500
916.146	15374
916.259	15363
916.371	15359
916.483	15458
916.595	15321
916.708	15431
916.82	15237
916.932	15287
917.044	15302
917.156	15275
917.268	15233
917.38	15218
917.491	15112
917.603	15173
917.715	15195
917.826	15142
917.938	15062
918.049	15020
918.161	15138
918.272	15180
918.384	15161
918.495	15066
918.606	14956
918.717	14853
918.828	14906
918.939	14914
919.05	14849
919.161	14941
919.272	14689
919.383	14644
919.494	15001
919.604	15192
919.715	14876
919.826	14773
919.936	14796
920.047	15017
920.157	14804
920.267	15047
920.378	14857
920.488	14842
920.598	14975
920.708	15207
920.818	14967
920.928	15005
921.038	15192
921.148	15119
921.258	14819
921.368	14750
921.477	14682
921.587	14575
921.697	14518
921.806	14587
921.916	14552
922.025	14317
922.134	14187
922.244	14180
922.353	14313
922.462	14115
922.571	13974
922.68	13890
922.789	13852
922.898	13959
923.007	13849
923.116	13944
923.224	13902
923.333	13791
923.442	13696
923.55	13670
923.659	13723
923.767	13746
923.876	13655
923.984	13689
924.092	13533
924.201	13639
924.309	13502
924.417	13556
924.525	13491
924.633	13590
924.741	14336
924.849	13202
924.956	13510
925.064	13343
925.172	13308
925.279	13232
925.387	13255
925.494	13228
925.602	13358
925.709	13270
925.816	13133
925.924	13137
926.031	13293
926.138	13175
926.245	13274
926.352	13175
926.459	13244
926.566	13278
926.673	13141
926.779	13042
926.886	13061
926.993	12779
927.099	12825
927.206	12749
927.312	12783
927.419	12806
927.525	12798
927.631	12806
927.737	12681
927.843	12639
927.95	12547
928.056	12589
928.162	12677
928.267	12623
928.373	13293
928.479	12711
928.585	12502
928.69	12608
928.796	12570
928.901	12460
929.007	12311
929.112	12441
929.218	12509
929.323	12270
929.428	12304
929.533	12521
929.638	12281
929.743	12243
929.848	12254
929.953	12285
930.058	12136
930.163	11999
930.267	11999
930.372	12186
930.477	12007
930.581	12152
930.685	12095
930.79	11931
930.894	11984
930.998	11783
931.103	11965
931.207	11657
931.311	11581
931.415	11387
931.519	11307
931.623	11280
