Data from test_V78500241_2736.txt Node
Date: Fri Mar 25 15:28:54 CST 2022
User: usil
Spectrometer: V785-0024
Trigger mode: 0
Integration Time (sec): 4.000000E-1
Scans to average: 1
Nonlinearity correction enabled: false
Boxcar width: 0
Storing dark spectrum: false
XAxis mode: Wavelengths
Number of Pixels in Spectrum: 1024
>>>>>Begin Spectral Data<<<<<
801.071	27237
801.214	27123
801.356	26845
801.499	26727
801.641	26682
801.783	26632
801.926	26621
802.068	26644
802.211	26552
802.353	26571
802.496	26180
802.638	26256
802.78	26301
802.923	26275
803.065	26191
803.208	26218
803.35	26324
803.492	26404
803.635	26438
803.777	26374
803.919	26412
804.061	26731
804.204	26537
804.346	26396
804.488	26362
804.63	26415
804.773	26248
804.915	26381
805.057	26530
805.199	26377
805.341	26533
805.483	26640
805.626	26473
805.768	26427
805.91	26492
806.052	26568
806.194	26408
806.336	26564
806.478	26579
806.62	26457
806.762	26564
806.904	26819
807.046	26982
807.188	26857
807.33	26845
807.472	26883
807.614	26921
807.756	26902
807.898	26830
808.04	26708
808.182	26724
808.324	26655
808.465	26868
808.607	27013
808.749	27135
808.891	27157
809.033	27268
809.174	27055
809.316	27062
809.458	27199
809.6	27081
809.741	27249
809.883	27085
810.025	27424
810.166	27389
810.308	27313
810.45	27313
810.591	27199
810.733	27051
810.875	26994
811.016	26971
811.158	27028
811.299	27336
811.441	27260
811.582	27348
811.724	27036
811.865	27108
812.007	27142
812.148	27131
812.29	27028
812.431	27081
812.573	27458
812.714	27530
812.855	27629
812.997	27671
813.138	27736
813.279	27652
813.421	27576
813.562	27492
813.703	27393
813.845	27188
813.986	26990
814.127	26895
814.268	26830
814.41	26785
814.551	26720
814.692	26716
814.833	26727
814.974	26632
815.115	26621
815.256	26552
815.397	26556
815.539	26712
815.68	26476
815.821	26453
815.962	26571
816.103	26522
816.244	26400
816.385	26259
816.526	26290
816.666	26084
816.807	25978
816.948	26142
817.089	26134
817.23	25966
817.371	26054
817.512	25951
817.653	25947
817.793	26054
817.934	25951
818.075	26016
818.216	25890
818.356	25986
818.497	25856
818.638	25712
818.778	25655
818.919	25879
819.06	25723
819.2	25856
819.341	26001
819.481	25894
819.622	26187
819.762	26393
819.903	26157
820.043	26214
820.184	26145
820.324	26195
820.465	26122
820.605	26221
820.746	26103
820.886	25982
821.026	26164
821.167	26062
821.307	26221
821.447	26126
821.588	25951
821.728	25769
821.868	25704
822.008	25533
822.149	25605
822.289	25476
822.429	25221
822.569	25225
822.709	25148
822.849	24947
822.99	24985
823.13	25057
823.27	25008
823.41	24856
823.55	24673
823.69	24932
823.83	24787
823.97	24658
824.11	24498
824.25	24445
824.389	24555
824.529	24601
824.669	24589
824.809	24707
824.949	24707
825.089	24639
825.228	24525
825.368	24399
825.508	24403
825.648	24498
825.787	24452
825.927	24608
826.067	24361
826.206	24494
826.346	24437
826.485	24525
826.625	24429
826.765	24494
826.904	24334
827.044	24155
827.183	24194
827.323	24167
827.462	24159
827.601	24136
827.741	24053
827.88	24384
828.02	23984
828.159	24133
828.298	24140
828.437	24327
828.577	24190
828.716	24152
828.855	23980
828.994	23908
829.134	23912
829.273	24007
829.412	23809
829.551	23961
829.69	23863
829.829	23912
829.968	24003
830.107	23874
830.246	23786
830.385	23863
830.524	23699
830.663	23760
830.802	23687
830.941	23505
831.08	23486
831.219	23482
831.357	23482
831.496	23726
831.635	23497
831.774	23493
831.913	23353
832.051	23200
832.19	23246
832.329	23356
832.467	23178
832.606	23143
832.744	23105
832.883	23086
833.022	23075
833.16	23018
833.299	23147
833.437	23280
833.576	23223
833.714	23212
833.852	23239
833.991	23254
834.129	23337
834.267	23258
834.406	23174
834.544	23151
834.682	23395
834.821	23181
834.959	23322
835.097	23170
835.235	23239
835.373	23166
835.511	23147
835.65	23102
835.788	23022
835.926	23041
836.064	22809
836.202	22900
836.34	23010
836.478	23113
836.615	22938
836.753	23094
836.891	23105
837.029	23083
837.167	23014
837.305	23006
837.443	22987
837.58	22946
837.718	22957
837.856	22915
837.993	22809
838.131	22904
838.269	22862
838.406	22820
838.544	22664
838.681	22489
838.819	22607
838.956	22523
839.094	22356
839.231	22546
839.369	22512
839.506	22850
839.643	22626
839.781	22470
839.918	22409
840.055	22341
840.193	22382
840.33	22207
840.467	22417
840.604	22398
840.742	22531
840.879	22265
841.016	22299
841.153	22162
841.29	22363
841.427	22238
841.564	22386
841.701	22246
841.838	22272
841.975	22128
842.112	22242
842.249	22196
842.385	22166
842.522	22306
842.659	22101
842.796	22177
842.933	21960
843.069	22116
843.206	22029
843.343	22097
843.479	22017
843.616	22124
843.752	21945
843.889	21812
844.025	21979
844.162	21827
844.298	21972
844.435	21873
844.571	21739
844.708	21884
844.844	22013
844.98	22017
845.117	21987
845.253	21838
845.389	21781
845.525	21785
845.661	21713
845.798	21637
845.934	21458
846.07	21534
846.206	21652
846.342	21652
846.478	21603
846.614	21545
846.75	21306
846.886	21405
847.022	21389
847.158	21382
847.294	21336
847.429	21218
847.565	21283
847.701	21564
847.837	21081
847.972	21005
848.108	21127
848.244	21184
848.379	20910
848.515	20880
848.65	20952
848.786	20967
848.921	20963
849.057	21013
849.192	20925
849.328	21009
849.463	20975
849.598	20819
849.734	20750
849.869	20769
850.004	20750
850.14	20777
850.275	20693
850.41	20590
850.545	20632
850.68	20636
850.815	20735
850.95	20804
851.085	20918
851.22	20811
851.355	20769
851.49	20655
851.625	20651
851.76	20689
851.895	20579
852.03	20667
852.165	20720
852.299	20697
852.434	20765
852.569	20727
852.703	20705
852.838	20762
852.973	20796
853.107	20708
853.242	20590
853.376	20575
853.511	20377
853.645	20526
853.78	20682
853.914	20503
854.048	20492
854.183	20362
854.317	20560
854.451	20636
854.585	20400
854.72	20423
854.854	20579
854.988	20446
855.122	20476
855.256	20320
855.39	20431
855.524	20594
855.658	20412
855.792	20606
855.926	20560
856.06	20625
856.194	20594
856.327	20389
856.461	20560
856.595	20545
856.729	20415
856.862	20720
856.996	20621
857.13	20503
857.263	20480
857.397	20678
857.53	20446
857.664	20659
857.797	20629
857.931	20552
858.064	20484
858.197	20682
858.331	20499
858.464	20404
858.597	20476
858.731	20438
858.864	20545
858.997	20518
859.13	20473
859.263	20514
859.396	20625
859.529	20571
859.662	20518
859.795	20507
859.928	20446
860.061	20549
860.194	20579
860.327	20488
860.46	20590
860.592	20678
860.725	20781
860.858	20640
860.99	20556
861.123	20507
861.256	20522
861.388	20552
861.521	21066
861.653	20446
861.786	20313
861.918	20389
862.05	20419
862.183	20336
862.315	20526
862.447	20590
862.58	20396
862.712	20301
862.844	20221
862.976	20282
863.108	20271
863.24	20773
863.372	20168
863.504	20237
863.636	20218
863.768	20172
863.9	20210
864.032	20286
864.164	20122
864.296	20309
864.428	20294
864.559	20336
864.691	20290
864.823	20229
864.954	20134
865.086	20313
865.217	20134
865.349	20081
865.48	20115
865.612	20199
865.743	20233
865.875	20130
866.006	20096
866.137	20183
866.269	20107
866.4	20065
866.531	20073
866.662	20058
866.793	20096
866.924	20058
867.055	19974
867.186	20046
867.317	20096
867.448	20043
867.579	20130
867.71	20065
867.841	20035
867.972	20062
868.103	20138
868.233	20024
868.364	20298
868.495	20122
868.625	20210
868.756	20442
868.886	20294
869.017	20225
869.147	20366
869.278	20400
869.408	20210
869.539	20358
869.669	20530
869.799	20336
869.929	20431
870.06	20427
870.19	20621
870.32	20583
870.45	20689
870.58	20693
870.71	20887
870.84	20815
870.97	20678
871.1	20731
871.23	20921
871.36	20914
871.489	20826
871.619	20937
871.749	20823
871.879	20880
872.008	20982
872.138	20906
872.267	20948
872.397	20731
872.526	20659
872.656	20727
872.785	20682
872.915	20819
873.044	21142
873.173	20933
873.303	20925
873.432	20956
873.561	21058
873.69	20880
873.819	20998
873.948	20910
874.077	21055
874.206	21001
874.335	20891
874.464	21062
874.593	21173
874.722	21230
874.851	21195
874.979	21138
875.108	21233
875.237	21100
875.365	21081
875.494	21169
875.623	21180
875.751	21165
875.88	21214
876.008	21195
876.136	21302
876.265	21576
876.393	21625
876.521	21595
876.65	21743
876.778	21591
876.906	21610
877.034	21523
877.162	21549
877.29	21591
877.418	21576
877.546	21603
877.674	21564
877.802	21720
877.93	21583
878.058	21481
878.185	21416
878.313	21477
878.441	21523
878.568	21355
878.696	21504
878.824	21507
878.951	21591
879.079	21762
879.206	21835
879.333	21778
879.461	21595
879.588	21614
879.715	21648
879.842	21956
879.97	21606
880.097	21397
880.224	21332
880.351	21389
880.478	21458
880.605	21306
880.732	21412
880.859	21557
880.986	21435
881.112	21332
881.239	21249
881.366	21028
881.493	21070
881.619	20914
881.746	20967
881.872	21085
881.999	20982
882.125	20971
882.252	21077
882.378	20921
882.505	20979
882.631	20826
882.757	20655
882.883	20762
883.01	20750
883.136	20503
883.262	20476
883.388	20423
883.514	20663
883.64	20800
883.766	20625
883.892	20450
884.018	20530
884.143	20602
884.269	20682
884.395	20278
884.52	20396
884.646	20248
884.772	20286
884.897	20187
885.023	20355
885.148	20298
885.274	20461
885.399	20503
885.524	20267
885.65	20358
885.775	20294
885.9	20233
886.025	20309
886.15	20347
886.275	20267
886.4	20081
886.525	20267
886.65	20237
886.775	20229
886.9	20457
887.025	20511
887.149	20240
887.274	20149
887.399	20073
887.523	20088
887.648	20054
887.773	20012
887.897	20221
888.021	20164
888.146	20130
888.27	20183
888.395	20221
888.519	20214
888.643	20168
888.767	20054
888.891	20024
889.015	19890
889.139	19936
889.263	19921
889.387	19913
889.511	20054
889.635	20020
889.759	19928
889.883	19890
890.006	19936
890.13	19993
890.254	19860
890.377	19856
890.501	19655
890.624	19693
890.748	19685
890.871	19597
890.995	19453
891.118	19491
891.241	19457
891.364	19445
891.488	19510
891.611	19480
891.734	19552
891.857	19590
891.98	19476
892.103	19483
892.226	19529
892.349	19403
892.471	19343
892.594	19491
892.717	19384
892.839	19468
892.962	19441
893.085	19491
893.207	19434
893.33	19324
893.452	19251
893.575	19464
893.697	19388
893.819	19582
893.941	19495
894.064	19582
894.186	19346
894.308	19411
894.43	19537
894.552	19609
894.674	19540
894.796	19293
894.918	19266
895.04	19331
895.161	19540
895.283	19502
895.405	19255
895.526	19403
895.648	19377
895.769	19381
895.891	19540
896.012	19449
896.134	19396
896.255	19377
896.376	19297
896.498	19460
896.619	19453
896.74	19495
896.861	19514
896.982	19811
897.103	19833
897.224	19639
897.345	19552
897.466	19548
897.587	19616
897.708	19734
897.828	19696
897.949	19575
898.07	19537
898.19	19605
898.311	19712
898.431	19540
898.552	19620
898.672	19750
898.792	19708
898.913	19708
899.033	19624
899.153	19445
899.273	19301
899.393	19415
899.513	19308
899.633	19495
899.753	19396
899.873	19396
899.993	19388
900.113	19312
900.232	19415
900.352	19434
900.472	19346
900.591	19164
900.711	19217
900.83	19084
900.95	19358
901.069	19240
901.189	19076
901.308	18825
901.427	18802
901.546	18684
901.665	18707
901.784	18791
901.904	18661
902.023	18513
902.141	18346
902.26	18323
902.379	18410
902.498	18338
902.617	18262
902.735	18418
902.854	18213
902.973	18167
903.091	18041
903.21	17939
903.328	17977
903.446	17893
903.565	17756
903.683	17961
903.801	17608
903.919	17866
904.038	17809
904.156	17726
904.274	17638
904.392	17482
904.51	17615
904.627	17630
904.745	17684
904.863	17627
904.981	17391
905.098	17273
905.216	17220
905.334	17284
905.451	17280
905.569	17273
905.686	17105
905.803	17235
905.921	17159
906.038	17162
906.155	17067
906.272	16961
906.389	16984
906.506	16752
906.623	16854
906.74	16881
906.857	16755
906.974	16862
907.091	16847
907.208	16915
907.324	16835
907.441	16675
907.557	16554
907.674	16459
907.79	16440
907.907	16527
908.023	16409
908.139	16546
908.256	16504
908.372	16382
908.488	16432
908.604	16272
908.72	16143
908.836	16337
908.952	16093
909.068	16257
909.184	16177
909.3	16280
909.415	16242
909.531	16230
909.647	16055
909.762	15911
909.878	15956
909.993	16032
910.108	15880
910.224	15899
910.339	15918
910.454	15915
910.57	15770
910.685	15705
910.8	15998
910.915	15956
911.03	15823
911.145	15587
911.259	15652
911.374	15557
911.489	15329
911.604	15439
911.718	15351
911.833	15310
911.947	15279
912.062	15230
912.176	15355
912.291	15374
912.405	15302
912.519	15507
912.633	15469
912.748	15351
912.862	15268
912.976	15192
913.09	15013
913.204	15161
913.318	15173
913.431	15214
913.545	15135
913.659	15355
913.772	15100
913.886	15005
914	14986
914.113	15020
914.226	14941
914.34	15032
914.453	14796
914.566	14921
914.68	14864
914.793	14769
914.906	14636
915.019	14556
915.132	14526
915.245	14457
915.358	14552
915.47	14552
915.583	14461
915.696	14530
915.809	14651
915.921	14636
916.034	14499
916.146	14473
916.259	14465
916.371	14488
916.483	14454
916.595	14412
916.708	14396
916.82	14366
916.932	14351
917.044	14294
917.156	14301
917.268	14214
917.38	14271
917.491	14199
917.603	14130
917.715	14355
917.826	14339
917.938	14130
918.049	14005
918.161	14153
918.272	14267
918.384	14218
918.495	14157
918.606	14077
918.717	13967
918.828	13944
918.939	13989
919.05	13879
919.161	13978
919.272	13856
919.383	13898
919.494	14050
919.604	14183
919.715	14024
919.826	13795
919.936	13913
920.047	14050
920.157	13932
920.267	14020
920.378	13947
920.488	14005
920.598	14096
920.708	14263
920.818	14077
920.928	14142
921.038	14332
921.148	14153
921.258	13986
921.368	13845
921.477	13647
921.587	13689
921.697	13727
921.806	13765
921.916	13548
922.025	13346
922.134	13407
922.244	13343
922.353	13350
922.462	13297
922.571	13183
922.68	13187
922.789	13053
922.898	13091
923.007	13050
923.116	13034
923.224	13057
923.333	13103
923.442	12848
923.55	12863
923.659	12916
923.767	13038
923.876	12810
923.984	12951
924.092	12760
924.201	12715
924.309	12814
924.417	12722
924.525	12749
924.633	12673
924.741	13651
924.849	12604
924.956	12662
925.064	12536
925.172	12338
925.279	12422
925.387	12429
925.494	12460
925.602	12540
925.709	12563
925.816	12357
925.924	12414
926.031	12582
926.138	12384
926.245	12483
926.352	12270
926.459	12471
926.566	12467
926.673	12350
926.779	12220
926.886	12213
926.993	12136
927.099	12053
927.206	12064
927.312	12019
927.419	12136
927.525	12083
927.631	12019
927.737	11901
927.843	11840
927.95	11748
928.056	11870
928.162	11874
928.267	12022
928.373	12414
928.479	11961
928.585	11733
928.69	11805
928.796	11840
928.901	11813
929.007	11611
929.112	11752
929.218	11684
929.323	11649
929.428	11630
929.533	11684
929.638	11543
929.743	11570
929.848	11615
929.953	11562
930.058	11425
930.163	11364
930.267	11368
930.372	11417
930.477	11258
930.581	11512
930.685	11341
930.79	11273
930.894	11185
930.998	11197
931.103	11372
931.207	11018
931.311	10869
931.415	10839
931.519	10588
931.623	10634
