Data from test_V78500241_2748.txt Node
Date: Fri Mar 25 15:28:59 CST 2022
User: usil
Spectrometer: V785-0024
Trigger mode: 0
Integration Time (sec): 4.000000E-1
Scans to average: 1
Nonlinearity correction enabled: false
Boxcar width: 0
Storing dark spectrum: false
XAxis mode: Wavelengths
Number of Pixels in Spectrum: 1024
>>>>>Begin Spectral Data<<<<<
801.071	26994
801.214	26979
801.356	26743
801.499	26796
801.641	26686
801.783	26743
801.926	26514
802.068	26613
802.211	26415
802.353	26431
802.496	26206
802.638	26180
802.78	26100
802.923	26221
803.065	25997
803.208	26195
803.35	26233
803.492	26385
803.635	26309
803.777	26263
803.919	26324
804.061	26697
804.204	26457
804.346	26187
804.488	26195
804.63	26362
804.773	26275
804.915	26358
805.057	26366
805.199	26362
805.341	26400
805.483	26488
805.626	26339
805.768	26381
805.91	26438
806.052	26552
806.194	26465
806.336	26606
806.478	26450
806.62	26305
806.762	26648
806.904	26811
807.046	26975
807.188	26769
807.33	26830
807.472	26880
807.614	26807
807.756	26746
807.898	26625
808.04	26705
808.182	26590
808.324	26674
808.465	26724
808.607	26906
808.749	26971
808.891	27127
809.033	27138
809.174	27131
809.316	27058
809.458	26998
809.6	26990
809.741	27085
809.883	27230
810.025	27203
810.166	27370
810.308	27264
810.45	27192
810.591	27146
810.733	27112
810.875	26967
811.016	26845
811.158	27013
811.299	27104
811.441	27135
811.582	27184
811.724	27047
811.865	26960
812.007	26948
812.148	26956
812.29	27043
812.431	27043
812.573	27310
812.714	27306
812.855	27450
812.997	27557
813.138	27739
813.279	27576
813.421	27576
813.562	27485
813.703	27332
813.845	27310
813.986	26960
814.127	26838
814.268	26571
814.41	26686
814.551	26617
814.692	26701
814.833	26541
814.974	26644
815.115	26739
815.256	26541
815.397	26549
815.539	26609
815.68	26427
815.821	26305
815.962	26431
816.103	26415
816.244	26267
816.385	26191
816.526	26343
816.666	25898
816.807	25898
816.948	25997
817.089	25947
817.23	25966
817.371	25906
817.512	25807
817.653	25902
817.793	25932
817.934	25925
818.075	26058
818.216	25852
818.356	25833
818.497	25674
818.638	25708
818.778	25674
818.919	25597
819.06	25635
819.2	25814
819.341	25951
819.481	25849
819.622	26065
819.762	26252
819.903	26115
820.043	26149
820.184	26126
820.324	26081
820.465	26126
820.605	26020
820.746	25868
820.886	25856
821.026	26012
821.167	26016
821.307	25951
821.447	25868
821.588	25776
821.728	25655
821.868	25533
822.008	25343
822.149	25483
822.289	25274
822.429	25099
822.569	25057
822.709	25050
822.849	24840
822.99	24916
823.13	24848
823.27	24795
823.41	24779
823.55	24578
823.69	24574
823.83	24669
823.97	24570
824.11	24395
824.25	24563
824.389	24509
824.529	24635
824.669	24410
824.809	24601
824.949	24585
825.089	24627
825.228	24627
825.368	24277
825.508	24452
825.648	24330
825.787	24441
825.927	24342
826.067	24285
826.206	24395
826.346	24536
826.485	24422
826.625	24509
826.765	24384
826.904	24380
827.044	24140
827.183	24243
827.323	24091
827.462	24125
827.601	24098
827.741	24060
827.88	24068
828.02	23961
828.159	24007
828.298	24133
828.437	23973
828.577	23999
828.716	24277
828.855	23988
828.994	23756
829.134	23775
829.273	23965
829.412	23783
829.551	23870
829.69	23748
829.829	23828
829.968	23824
830.107	23813
830.246	23653
830.385	23729
830.524	23684
830.663	23638
830.802	23471
830.941	23288
831.08	23307
831.219	23467
831.357	23478
831.496	23592
831.635	23478
831.774	23170
831.913	23170
832.051	23216
832.19	23128
832.329	23140
832.467	23071
832.606	23041
832.744	22987
832.883	23060
833.022	23003
833.16	23079
833.299	23056
833.437	23102
833.576	23136
833.714	23185
833.852	23071
833.991	23223
834.129	23372
834.267	23208
834.406	23105
834.544	23185
834.682	23109
834.821	23102
834.959	23284
835.097	23105
835.235	23136
835.373	23090
835.511	23041
835.65	22923
835.788	23003
835.926	22771
836.064	22710
836.202	22786
836.34	23003
836.478	22995
836.615	22904
836.753	22987
836.891	22972
837.029	22904
837.167	22900
837.305	22972
837.443	23037
837.58	22877
837.718	22904
837.856	22854
837.993	22763
838.131	22831
838.269	22774
838.406	22618
838.544	22694
838.681	22440
838.819	22557
838.956	22398
839.094	22360
839.231	22459
839.369	22432
839.506	22660
839.643	22588
839.781	22261
839.918	22268
840.055	22329
840.193	22295
840.33	22162
840.467	22200
840.604	22265
840.742	22405
840.879	21983
841.016	22242
841.153	22169
841.29	22322
841.427	22249
841.564	22265
841.701	22310
841.838	22188
841.975	22112
842.112	22192
842.249	22120
842.385	21949
842.522	22234
842.659	22086
842.796	21994
842.933	21922
843.069	21865
843.206	21922
843.343	22093
843.479	21972
843.616	22059
843.752	21622
843.889	21808
844.025	21819
844.162	21633
844.298	21857
844.435	21857
844.571	21812
844.708	21831
844.844	21880
844.98	21994
845.117	21728
845.253	21591
845.389	21633
845.525	21629
845.661	21466
845.798	21504
845.934	21504
846.07	21557
846.206	21488
846.342	21568
846.478	21488
846.614	21424
846.75	21264
846.886	21272
847.022	21180
847.158	21302
847.294	21256
847.429	21272
847.565	21218
847.701	21469
847.837	21009
847.972	20914
848.108	21081
848.244	20975
848.379	20857
848.515	20727
848.65	20754
848.786	20743
848.921	20811
849.057	21020
849.192	20857
849.328	20933
849.463	20781
849.598	20705
849.734	20716
849.869	20598
850.004	20621
850.14	20571
850.275	20655
850.41	20560
850.545	20488
850.68	20598
850.815	20632
850.95	20568
851.085	20758
851.22	20746
851.355	20670
851.49	20571
851.625	20408
851.76	20613
851.895	20571
852.03	20526
852.165	20590
852.299	20693
852.434	20735
852.569	20659
852.703	20503
852.838	20617
852.973	20735
853.107	20678
853.242	20552
853.376	20419
853.511	20275
853.645	20286
853.78	20564
853.914	20454
854.048	20385
854.183	20362
854.317	20469
854.451	20644
854.585	20431
854.72	20484
854.854	20526
854.988	20339
855.122	20412
855.256	20282
855.39	20366
855.524	20545
855.658	20461
855.792	20404
855.926	20587
856.06	20476
856.194	20522
856.327	20473
856.461	20370
856.595	20427
856.729	20404
856.862	20415
856.996	20370
857.13	20385
857.263	20408
857.397	20568
857.53	20355
857.664	20526
857.797	20507
857.931	20495
858.064	20423
858.197	20537
858.331	20355
858.464	20309
858.597	20244
858.731	20259
858.864	20442
858.997	20305
859.13	20427
859.263	20442
859.396	20408
859.529	20492
859.662	20457
859.795	20324
859.928	20332
860.061	20552
860.194	20636
860.327	20541
860.46	20454
860.592	20499
860.725	20526
860.858	20473
860.99	20400
861.123	20328
861.256	20301
861.388	20617
861.521	20967
861.653	20317
861.786	20195
861.918	20252
862.05	20320
862.183	20393
862.315	20393
862.447	20419
862.58	20408
862.712	20142
862.844	20180
862.976	20252
863.108	20252
863.24	20629
863.372	19982
863.504	19947
863.636	20039
863.768	20267
863.9	20180
864.032	20031
864.164	20176
864.296	20191
864.428	20180
864.559	20206
864.691	20206
864.823	20172
864.954	20039
865.086	20233
865.217	20012
865.349	20016
865.48	20043
865.612	20046
865.743	20172
865.875	20016
866.006	20100
866.137	20145
866.269	20107
866.4	20119
866.531	19967
866.662	19928
866.793	19917
866.924	19864
867.055	19963
867.186	19963
867.317	19906
867.448	19913
867.579	20027
867.71	20012
867.841	19906
867.972	20012
868.103	20092
868.233	19928
868.364	19947
868.495	20077
868.625	20180
868.756	20244
868.886	20206
869.017	20263
869.147	20294
869.278	20358
869.408	20244
869.539	20221
869.669	20404
869.799	20301
869.929	20282
870.06	20332
870.19	20488
870.32	20514
870.45	20575
870.58	20636
870.71	20682
870.84	20632
870.97	20667
871.1	20606
871.23	20872
871.36	20857
871.489	20743
871.619	20686
871.749	20883
871.879	20781
872.008	21013
872.138	20880
872.267	20853
872.397	20667
872.526	20606
872.656	20522
872.785	20625
872.915	20887
873.044	20933
873.173	20933
873.303	20804
873.432	20880
873.561	20895
873.69	20883
873.819	20914
873.948	20902
874.077	20834
874.206	20864
874.335	20853
874.464	20937
874.593	21062
874.722	20982
874.851	21116
874.979	21127
875.108	21157
875.237	21173
875.365	21028
875.494	21036
875.623	21180
875.751	20986
875.88	21081
876.008	21161
876.136	21374
876.265	21462
876.393	21587
876.521	21492
876.65	21557
876.778	21435
876.906	21496
877.034	21469
877.162	21477
877.29	21431
877.418	21450
877.546	21424
877.674	21458
877.802	21511
877.93	21473
878.058	21488
878.185	21344
878.313	21428
878.441	21374
878.568	21211
878.696	21466
878.824	21431
878.951	21530
879.079	21564
879.206	21694
879.333	21705
879.461	21443
879.588	21595
879.715	21599
879.842	21743
879.97	21515
880.097	21272
880.224	21249
880.351	21306
880.478	21283
880.605	21420
880.732	21306
880.859	21416
880.986	21272
881.112	21268
881.239	21203
881.366	21112
881.493	21017
881.619	20804
881.746	20895
881.872	20960
881.999	20857
882.125	20769
882.252	20895
882.378	20804
882.505	20891
882.631	20712
882.757	20587
882.883	20575
883.01	20530
883.136	20564
883.262	20431
883.388	20336
883.514	20514
883.64	20659
883.766	20480
883.892	20400
884.018	20396
884.143	20522
884.269	20568
884.395	20351
884.52	20294
884.646	20183
884.772	20199
884.897	20214
885.023	20240
885.148	20381
885.274	20240
885.399	20267
885.524	20218
885.65	20256
885.775	20221
885.9	20275
886.025	20271
886.15	20320
886.275	20240
886.4	20088
886.525	20164
886.65	20134
886.775	20164
886.9	20259
887.025	20609
887.149	20233
887.274	19989
887.399	20027
887.523	19906
887.648	19989
887.773	19974
887.897	20122
888.021	20046
888.146	19887
888.27	20092
888.395	20100
888.519	20111
888.643	20119
888.767	19940
888.891	19913
889.015	19830
889.139	19807
889.263	19807
889.387	19833
889.511	19970
889.635	20012
889.759	19868
889.883	19807
890.006	19750
890.13	19826
890.254	19681
890.377	19708
890.501	19556
890.624	19590
890.748	19639
890.871	19480
890.995	19392
891.118	19297
891.241	19327
891.364	19396
891.488	19559
891.611	19388
891.734	19445
891.857	19407
891.98	19384
892.103	19487
892.226	19400
892.349	19426
892.471	19301
892.594	19308
892.717	19426
892.839	19244
892.962	19346
893.085	19362
893.207	19354
893.33	19343
893.452	19228
893.575	19354
893.697	19278
893.819	19457
893.941	19476
894.064	19506
894.186	19255
894.308	19339
894.43	19453
894.552	19468
894.674	19324
894.796	19206
894.918	19308
895.04	19263
895.161	19381
895.283	19343
895.405	19369
895.526	19339
895.648	19335
895.769	19403
895.891	19346
896.012	19339
896.134	19350
896.255	19358
896.376	19312
896.498	19316
896.619	19430
896.74	19377
896.861	19381
896.982	19647
897.103	19845
897.224	19601
897.345	19586
897.466	19434
897.587	19548
897.708	19658
897.828	19628
897.949	19483
898.07	19407
898.19	19449
898.311	19731
898.431	19457
898.552	19559
898.672	19518
898.792	19609
898.913	19601
899.033	19430
899.153	19384
899.273	19274
899.393	19339
899.513	19312
899.633	19301
899.753	19365
899.873	19335
899.993	19282
900.113	19225
900.232	19308
900.352	19217
900.472	19187
900.591	19129
900.711	19183
900.83	19118
900.95	19209
901.069	19084
901.189	19065
901.308	18753
901.427	18700
901.546	18745
901.665	18817
901.784	18696
901.904	18601
902.023	18540
902.141	18330
902.26	18346
902.379	18399
902.498	18243
902.617	18209
902.735	18365
902.854	18251
902.973	18273
903.091	17904
903.21	17939
903.328	17843
903.446	17733
903.565	17665
903.683	17847
903.801	17619
903.919	17745
904.038	17608
904.156	17444
904.274	17630
904.392	17398
904.51	17486
904.627	17535
904.745	17509
904.863	17581
904.981	17345
905.098	17166
905.216	17212
905.334	17166
905.451	17269
905.569	17151
905.686	17102
905.803	17178
905.921	16881
906.038	17086
906.155	17014
906.272	16774
906.389	16858
906.506	16805
906.623	16672
906.74	16752
906.857	16588
906.974	16546
907.091	16763
907.208	16805
907.324	16660
907.441	16710
907.557	16538
907.674	16375
907.79	16424
907.907	16303
908.023	16440
908.139	16413
908.256	16318
908.372	16409
908.488	16337
908.604	16211
908.72	16067
908.836	16181
908.952	16154
909.068	16154
909.184	16177
909.3	16128
909.415	16090
909.531	16154
909.647	15907
909.762	15937
909.878	15895
909.993	15842
910.108	15876
910.224	15736
910.339	15876
910.454	15705
910.57	15724
910.685	15690
910.8	15937
910.915	15812
911.03	15648
911.145	15572
911.259	15492
911.374	15507
911.489	15454
911.604	15428
911.718	15211
911.833	15241
911.947	15135
912.062	15112
912.176	15268
912.291	15264
912.405	15268
912.519	15462
912.633	15370
912.748	15344
912.862	15142
912.976	15188
913.09	15013
913.204	14960
913.318	15047
913.431	15074
913.545	15165
913.659	15188
913.772	15097
913.886	14982
914	14769
914.113	15001
914.226	15017
914.34	14963
914.453	14720
914.566	14921
914.68	14754
914.793	14731
914.906	14583
915.019	14579
915.132	14507
915.245	14549
915.358	14556
915.47	14518
915.583	14568
915.696	14473
915.809	14663
915.921	14610
916.034	14461
916.146	14408
916.259	14366
916.371	14370
916.483	14465
916.595	14237
916.708	14256
916.82	14412
916.932	14320
917.044	14339
917.156	14294
917.268	14157
917.38	14225
917.491	14153
917.603	14252
917.715	14202
917.826	14256
917.938	14092
918.049	14050
918.161	14176
918.272	14233
918.384	14244
918.495	14259
918.606	13997
918.717	13921
918.828	14031
918.939	13989
919.05	13864
919.161	13951
919.272	13727
919.383	13833
919.494	13944
919.604	14126
919.715	13928
919.826	13822
919.936	13978
920.047	14020
920.157	13921
920.267	14058
920.378	13978
920.488	13898
920.598	14130
920.708	14237
920.818	13955
920.928	14073
921.038	14271
921.148	14161
921.258	13909
921.368	13769
921.477	13700
921.587	13594
921.697	13556
921.806	13674
921.916	13575
922.025	13373
922.134	13278
922.244	13247
922.353	13362
922.462	13221
922.571	13114
922.68	12916
922.789	13027
922.898	13008
923.007	12954
923.116	13042
923.224	12852
923.333	12947
923.442	12848
923.55	12871
923.659	12806
923.767	12856
923.876	12787
923.984	12871
924.092	12734
924.201	12760
924.309	12757
924.417	12753
924.525	12623
924.633	12642
924.741	13582
924.849	12563
924.956	12597
925.064	12334
925.172	12357
925.279	12475
925.387	12464
925.494	12384
925.602	12578
925.709	12471
925.816	12315
925.924	12429
926.031	12441
926.138	12338
926.245	12346
926.352	12304
926.459	12479
926.566	12448
926.673	12315
926.779	12220
926.886	12232
926.993	12019
927.099	11984
927.206	12045
927.312	11870
927.419	12057
927.525	12015
927.631	12064
927.737	11958
927.843	11794
927.95	11718
928.056	11863
928.162	11847
928.267	11859
928.373	12372
928.479	11958
928.585	11688
928.69	11729
928.796	11847
928.901	11783
929.007	11551
929.112	11726
929.218	11676
929.323	11646
929.428	11573
929.533	11741
929.638	11543
929.743	11570
929.848	11509
929.953	11486
930.058	11414
930.163	11250
930.267	11284
930.372	11341
930.477	11216
930.581	11398
930.685	11250
930.79	11189
930.894	11212
930.998	11132
931.103	11280
931.207	10927
931.311	10942
931.415	10831
931.519	10626
931.623	10561
