Data from test_V78500241_2170.txt Node
Date: Fri Mar 25 15:24:58 CST 2022
User: usil
Spectrometer: V785-0024
Trigger mode: 0
Integration Time (sec): 4.000000E-1
Scans to average: 1
Nonlinearity correction enabled: false
Boxcar width: 0
Storing dark spectrum: false
XAxis mode: Wavelengths
Number of Pixels in Spectrum: 1024
>>>>>Begin Spectral Data<<<<<
801.071	27774
801.214	27629
801.356	27507
801.499	27348
801.641	27226
801.783	27233
801.926	27317
802.068	27317
802.211	27325
802.353	27161
802.496	27005
802.638	26952
802.78	26918
802.923	26891
803.065	26811
803.208	26785
803.35	27001
803.492	27039
803.635	27154
803.777	26891
803.919	27203
804.061	27420
804.204	27138
804.346	27077
804.488	27112
804.63	27051
804.773	26998
804.915	27055
805.057	27233
805.199	27051
805.341	27112
805.483	27329
805.626	27283
805.768	27268
805.91	27230
806.052	27306
806.194	26975
806.336	27427
806.478	27275
806.62	27302
806.762	27416
806.904	27488
807.046	27785
807.188	27660
807.33	27717
807.472	27819
807.614	27466
807.756	27671
807.898	27526
808.04	27447
808.182	27447
808.324	27534
808.465	27538
808.607	27812
808.749	27865
808.891	27994
809.033	28044
809.174	27987
809.316	27774
809.458	27850
809.6	27766
809.741	27991
809.883	28032
810.025	28169
810.166	28101
810.308	28166
810.45	27987
810.591	28093
810.733	27781
810.875	27888
811.016	27762
811.158	27888
811.299	27941
811.441	28055
811.582	27930
811.724	27800
811.865	27804
812.007	27964
812.148	27770
812.29	27975
812.431	28082
812.573	28185
812.714	28333
812.855	28257
812.997	28512
813.138	28577
813.279	28455
813.421	28459
813.562	28440
813.703	28173
813.845	28128
813.986	27899
814.127	27637
814.268	27557
814.41	27568
814.551	27488
814.692	27671
814.833	27367
814.974	27618
815.115	27523
815.256	27500
815.397	27439
815.539	27469
815.68	27313
815.821	27272
815.962	27355
816.103	27469
816.244	27256
816.385	27100
816.526	27165
816.666	26929
816.807	26739
816.948	26823
817.089	26807
817.23	26929
817.371	26800
817.512	26807
817.653	26940
817.793	26765
817.934	26834
818.075	26895
818.216	26956
818.356	26773
818.497	26727
818.638	26571
818.778	26609
818.919	26533
819.06	26674
819.2	26731
819.341	26750
819.481	26849
819.622	26975
819.762	27039
819.903	27100
820.043	27020
820.184	27017
820.324	26963
820.465	27028
820.605	26990
820.746	26868
820.886	26785
821.026	26956
821.167	26979
821.307	26948
821.447	26895
821.588	26678
821.728	26724
821.868	26358
822.008	26294
822.149	26415
822.289	26229
822.429	26142
822.569	25887
822.709	26046
822.849	25830
822.99	25780
823.13	25731
823.27	25807
823.41	25556
823.55	25540
823.69	25643
823.83	25712
823.97	25483
824.11	25350
824.25	25327
824.389	25453
824.529	25518
824.669	25457
824.809	25464
824.949	25514
825.089	25582
825.228	25533
825.368	25274
825.508	25403
825.648	25320
825.787	25327
825.927	25445
826.067	25099
826.206	25335
826.346	25274
826.485	25304
826.625	25282
826.765	25384
826.904	25228
827.044	25164
827.183	25091
827.323	25103
827.462	25057
827.601	25053
827.741	25114
827.88	25004
828.02	24863
828.159	24924
828.298	24897
828.437	25129
828.577	25004
828.716	25069
828.855	24996
828.994	24719
829.134	24711
829.273	24646
829.412	24627
829.551	24707
829.69	24798
829.829	24787
829.968	24977
830.107	24764
830.246	24726
830.385	24658
830.524	24673
830.663	24475
830.802	24452
830.941	24448
831.08	24258
831.219	24292
831.357	24570
831.496	24570
831.635	24334
831.774	24315
831.913	24251
832.051	24136
832.19	24038
832.329	24083
832.467	24087
832.606	24022
832.744	23977
832.883	23984
833.022	23923
833.16	23996
833.299	24003
833.437	23992
833.576	23954
833.714	23984
833.852	24197
833.991	24083
834.129	24091
834.267	24098
834.406	24186
834.544	24216
834.682	24129
834.821	23942
834.959	24216
835.097	24003
835.235	24117
835.373	24038
835.511	23882
835.65	23859
835.788	23996
835.926	23897
836.064	23661
836.202	23687
836.34	23878
836.478	23992
836.615	23805
836.753	23824
836.891	23969
837.029	23969
837.167	23882
837.305	23760
837.443	23904
837.58	23646
837.718	23737
837.856	23646
837.993	23684
838.131	23726
838.269	23615
838.406	23657
838.544	23554
838.681	23387
838.819	23307
838.956	23292
839.094	23307
839.231	23242
839.369	23391
839.506	23486
839.643	23360
839.781	23200
839.918	23212
840.055	23246
840.193	23155
840.33	23124
840.467	23102
840.604	23162
840.742	23318
840.879	23113
841.016	23083
841.153	23052
841.29	23193
841.427	23159
841.564	23086
841.701	23037
841.838	22980
841.975	22987
842.112	22949
842.249	22938
842.385	22911
842.522	23090
842.659	22938
842.796	22831
842.933	22824
843.069	22828
843.206	22755
843.343	22911
843.479	22896
843.616	22976
843.752	22675
843.889	22679
844.025	22869
844.162	22512
844.298	22771
844.435	22740
844.571	22603
844.708	22683
844.844	22790
844.98	22706
845.117	22820
845.253	22584
845.389	22428
845.525	22481
845.661	22421
845.798	22291
845.934	22398
846.07	22348
846.206	22436
846.342	22356
846.478	22470
846.614	22162
846.75	22131
846.886	22120
847.022	22276
847.158	22086
847.294	22025
847.429	22215
847.565	22120
847.701	22310
847.837	21964
847.972	21720
848.108	21876
848.244	21751
848.379	21823
848.515	21720
848.65	21675
848.786	21629
848.921	21797
849.057	21755
849.192	21701
849.328	21667
849.463	21732
849.598	21648
849.734	21477
849.869	21545
850.004	21485
850.14	21397
850.275	21439
850.41	21428
850.545	21420
850.68	21355
850.815	21519
850.95	21481
851.085	21724
851.22	21507
851.355	21534
851.49	21405
851.625	21336
851.76	21443
851.895	21321
852.03	21336
852.165	21454
852.299	21504
852.434	21500
852.569	21477
852.703	21431
852.838	21572
852.973	21629
853.107	21675
853.242	21386
853.376	21245
853.511	21222
853.645	21222
853.78	21374
853.914	21298
854.048	21138
854.183	21226
854.317	21249
854.451	21325
854.585	21275
854.72	21184
854.854	21291
854.988	21275
855.122	21249
855.256	21176
855.39	21188
855.524	21378
855.658	21351
855.792	21359
855.926	21275
856.06	21214
856.194	21348
856.327	21199
856.461	21062
856.595	21150
856.729	21298
856.862	21279
856.996	21283
857.13	21401
857.263	21511
857.397	21386
857.53	21161
857.664	21272
857.797	21283
857.931	21294
858.064	21378
858.197	21458
858.331	21211
858.464	21169
858.597	21237
858.731	21218
858.864	21180
858.997	21325
859.13	21214
859.263	21272
859.396	21370
859.529	21252
859.662	21169
859.795	21260
859.928	21192
860.061	21420
860.194	21431
860.327	21439
860.46	21329
860.592	21374
860.725	21401
860.858	21473
860.99	21249
861.123	21203
861.256	21138
861.388	21283
861.521	21918
861.653	21184
861.786	21013
861.918	21116
862.05	21112
862.183	21058
862.315	21180
862.447	21249
862.58	21062
862.712	20933
862.844	21005
862.976	21074
863.108	21112
863.24	21511
863.372	20815
863.504	20982
863.636	21001
863.768	21024
863.9	20910
864.032	20887
864.164	20982
864.296	21085
864.428	21005
864.559	20933
864.691	21123
864.823	21055
864.954	20906
865.086	20929
865.217	21017
865.349	20762
865.48	20868
865.612	20864
865.743	21032
865.875	20849
866.006	20773
866.137	20906
866.269	20849
866.4	20876
866.531	20777
866.662	20785
866.793	20750
866.924	20887
867.055	20845
867.186	20765
867.317	20872
867.448	20739
867.579	20720
867.71	20781
867.841	20731
867.972	20762
868.103	20857
868.233	20845
868.364	20781
868.495	20872
868.625	20948
868.756	21119
868.886	20937
869.017	21013
869.147	21100
869.278	21169
869.408	21169
869.539	20887
869.669	21119
869.799	21146
869.929	21146
870.06	21119
870.19	21332
870.32	21313
870.45	21340
870.58	21401
870.71	21561
870.84	21447
870.97	21443
871.1	21370
871.23	21561
871.36	21583
871.489	21538
871.619	21580
871.749	21568
871.879	21622
872.008	21694
872.138	21641
872.267	21599
872.397	21587
872.526	21340
872.656	21511
872.785	21504
872.915	21603
873.044	21728
873.173	21656
873.303	21641
873.432	21739
873.561	21732
873.69	21747
873.819	21663
873.948	21781
874.077	21660
874.206	21686
874.335	21629
874.464	21762
874.593	21838
874.722	21785
874.851	21972
874.979	21888
875.108	21835
875.237	21915
875.365	21861
875.494	21876
875.623	21922
875.751	21785
875.88	21903
876.008	21960
876.136	21987
876.265	22360
876.393	22478
876.521	22230
876.65	22462
876.778	22238
876.906	22253
877.034	22299
877.162	22196
877.29	22147
877.418	22333
877.546	22337
877.674	22265
877.802	22181
877.93	22196
878.058	22120
878.185	22147
878.313	22185
878.441	22097
878.568	22048
878.696	22025
878.824	22242
878.951	22219
879.079	22325
879.206	22523
879.333	22348
879.461	22219
879.588	22333
879.715	22333
879.842	22451
879.97	22207
880.097	22032
880.224	22025
880.351	22063
880.478	22070
880.605	22036
880.732	22040
880.859	22265
880.986	22124
881.112	22135
881.239	21907
881.366	21876
881.493	21652
881.619	21732
881.746	21701
881.872	21671
881.999	21652
882.125	21663
882.252	21736
882.378	21557
882.505	21675
882.631	21485
882.757	21321
882.883	21401
883.01	21302
883.136	21412
883.262	21241
883.388	21222
883.514	21245
883.64	21321
883.766	21222
883.892	20994
884.018	21226
884.143	21249
884.269	21359
884.395	21100
884.52	20902
884.646	20998
884.772	20842
884.897	20891
885.023	21066
885.148	21039
885.274	21070
885.399	20982
885.524	20944
885.65	20994
885.775	20880
885.9	20876
886.025	21184
886.15	20990
886.275	20914
886.4	20811
886.525	20857
886.65	20861
886.775	20937
886.9	21036
887.025	21184
887.149	20826
887.274	20796
887.399	20667
887.523	20796
887.648	20720
887.773	20621
887.897	20731
888.021	20788
888.146	20613
888.27	20910
888.395	20762
888.519	20712
888.643	20750
888.767	20781
888.891	20674
889.015	20648
889.139	20640
889.263	20526
889.387	20655
889.511	20655
889.635	20617
889.759	20480
889.883	20522
890.006	20560
890.13	20625
890.254	20530
890.377	20438
890.501	20431
890.624	20286
890.748	20282
890.871	20252
890.995	20096
891.118	20050
891.241	20081
891.364	20199
891.488	20271
891.611	20172
891.734	20062
891.857	20244
891.98	20027
892.103	20157
892.226	20035
892.349	20122
892.471	19788
892.594	19887
892.717	20012
892.839	20058
892.962	20130
893.085	20092
893.207	19970
893.33	19944
893.452	19898
893.575	20039
893.697	20054
893.819	20107
893.941	20225
894.064	20065
894.186	19978
894.308	19936
894.43	20100
894.552	20172
894.674	20088
894.796	19833
894.918	19978
895.04	19921
895.161	20084
895.283	20111
895.405	19989
895.526	20039
895.648	19970
895.769	20073
895.891	20069
896.012	20084
896.134	20073
896.255	19978
896.376	19932
896.498	20084
896.619	20001
896.74	20016
896.861	19959
896.982	20244
897.103	20473
897.224	20317
897.345	20393
897.466	20263
897.587	20176
897.708	20324
897.828	20309
897.949	20214
898.07	20107
898.19	20111
898.311	20225
898.431	20073
898.552	20191
898.672	20309
898.792	20210
898.913	20271
899.033	20039
899.153	20001
899.273	19928
899.393	20092
899.513	20043
899.633	19997
899.753	19997
899.873	19868
899.993	20001
900.113	20020
900.232	20001
900.352	19845
900.472	19822
900.591	19696
900.711	19883
900.83	19696
900.95	19776
901.069	19791
901.189	19704
901.308	19529
901.427	19247
901.546	19468
901.665	19365
901.784	19308
901.904	19244
902.023	19209
902.141	18981
902.26	18894
902.379	19118
902.498	18863
902.617	18726
902.735	18954
902.854	18905
902.973	18783
903.091	18555
903.21	18483
903.328	18490
903.446	18433
903.565	18391
903.683	18391
903.801	18296
903.919	18266
904.038	18338
904.156	18209
904.274	18247
904.392	18133
904.51	18117
904.627	18049
904.745	18129
904.863	18205
904.981	17764
905.098	17828
905.216	17767
905.334	17904
905.451	17745
905.569	17836
905.686	17946
905.803	17691
905.921	17661
906.038	17581
906.155	17520
906.272	17493
906.389	17581
906.506	17330
906.623	17372
906.74	17341
906.857	17223
906.974	17231
907.091	17493
907.208	17497
907.324	17315
907.441	17246
907.557	17193
907.674	17151
907.79	16995
907.907	16961
908.023	17102
908.139	17178
908.256	17071
908.372	16999
908.488	16885
908.604	16793
908.72	16828
908.836	16771
908.952	16843
909.068	16889
909.184	16889
909.3	16809
909.415	16854
909.531	16672
909.647	16527
909.762	16508
909.878	16542
909.993	16470
910.108	16508
910.224	16421
910.339	16569
910.454	16295
910.57	16398
910.685	16280
910.8	16504
910.915	16417
911.03	16303
911.145	16063
911.259	16166
911.374	16101
911.489	16032
911.604	16010
911.718	15831
911.833	15838
911.947	15717
912.062	15603
912.176	15827
912.291	15888
912.405	15781
912.519	15937
912.633	15953
912.748	15831
912.862	15857
912.976	15622
913.09	15606
913.204	15606
913.318	15713
913.431	15762
913.545	15751
913.659	15713
913.772	15663
913.886	15515
914	15454
914.113	15515
914.226	15557
914.34	15515
914.453	15340
914.566	15424
914.68	15378
914.793	15336
914.906	15074
915.019	15100
915.132	15043
915.245	15024
915.358	15001
915.47	15051
915.583	15066
915.696	15108
915.809	15222
915.921	15207
916.034	14971
916.146	15058
916.259	14925
916.371	14990
916.483	15055
916.595	14937
916.708	14918
916.82	14842
916.932	14853
917.044	14769
917.156	14762
917.268	14644
917.38	14651
917.491	14670
917.603	14686
917.715	14697
917.826	14758
917.938	14701
918.049	14590
918.161	14629
918.272	14739
918.384	14819
918.495	14602
918.606	14556
918.717	14503
918.828	14503
918.939	14469
919.05	14427
919.161	14396
919.272	14210
919.383	14396
919.494	14541
919.604	14598
919.715	14488
919.826	14457
919.936	14393
920.047	14533
920.157	14412
920.267	14659
920.378	14461
920.488	14355
920.598	14575
920.708	14739
920.818	14533
920.928	14617
921.038	14708
921.148	14682
921.258	14351
921.368	14267
921.477	14237
921.587	14130
921.697	14119
921.806	14107
921.916	14107
922.025	13856
922.134	13868
922.244	13723
922.353	13883
922.462	13719
922.571	13594
922.68	13457
922.789	13430
922.898	13441
923.007	13396
923.116	13514
923.224	13525
923.333	13354
923.442	13312
923.55	13225
923.659	13346
923.767	13312
923.876	13228
923.984	13263
924.092	13282
924.201	13228
924.309	13179
924.417	13278
924.525	13069
924.633	13065
924.741	13921
924.849	12932
924.956	13046
925.064	12905
925.172	12894
925.279	12798
925.387	13012
925.494	12871
925.602	12951
925.709	12897
925.816	12783
925.924	12798
926.031	12951
926.138	12798
926.245	12924
926.352	12757
926.459	12875
926.566	12951
926.673	12734
926.779	12601
926.886	12658
926.993	12433
927.099	12433
927.206	12410
927.312	12395
927.419	12464
927.525	12547
927.631	12418
927.737	12247
927.843	12281
927.95	12220
928.056	12277
928.162	12243
928.267	12228
928.373	12840
928.479	12407
928.585	12121
928.69	12285
928.796	12220
928.901	12079
929.007	11965
929.112	12175
929.218	12110
929.323	12015
929.428	12038
929.533	12220
929.638	11870
929.743	11988
929.848	11973
929.953	11882
930.058	11798
930.163	11752
930.267	11665
930.372	11836
930.477	11657
930.581	11878
930.685	11726
930.79	11512
930.894	11467
930.998	11516
931.103	11699
931.207	11307
931.311	11242
931.415	11132
931.519	10934
931.623	10930
