Data from test_V78500241_236.txt Node
Date: Fri Mar 25 15:11:30 CST 2022
User: usil
Spectrometer: V785-0024
Trigger mode: 0
Integration Time (sec): 4.000000E-1
Scans to average: 1
Nonlinearity correction enabled: false
Boxcar width: 0
Storing dark spectrum: false
XAxis mode: Wavelengths
Number of Pixels in Spectrum: 1024
>>>>>Begin Spectral Data<<<<<
801.071	27934
801.214	27766
801.356	27538
801.499	27526
801.641	27450
801.783	27279
801.926	27424
802.068	27469
802.211	27298
802.353	27241
802.496	27055
802.638	27093
802.78	27020
802.923	27043
803.065	26975
803.208	26940
803.35	27058
803.492	27066
803.635	27203
803.777	27135
803.919	27306
804.061	27348
804.204	27279
804.346	27062
804.488	27112
804.63	26979
804.773	26990
804.915	27268
805.057	27154
805.199	27135
805.341	27093
805.483	27173
805.626	27081
805.768	27169
805.91	27252
806.052	27291
806.194	27157
806.336	27386
806.478	27294
806.62	27218
806.762	27367
806.904	27519
807.046	27728
807.188	27545
807.33	27667
807.472	27701
807.614	27580
807.756	27568
807.898	27534
808.04	27378
808.182	27408
808.324	27370
808.465	27477
808.607	27648
808.749	27778
808.891	27865
809.033	28093
809.174	27835
809.316	27823
809.458	27842
809.6	27838
809.741	27842
809.883	27895
810.025	28169
810.166	28086
810.308	28173
810.45	28017
810.591	27835
810.733	27797
810.875	27857
811.016	27781
811.158	27572
811.299	27755
811.441	27888
811.582	27892
811.724	27648
811.865	27720
812.007	27785
812.148	27781
812.29	27827
812.431	27838
812.573	28169
812.714	28112
812.855	28238
812.997	28265
813.138	28436
813.279	28348
813.421	28394
813.562	28249
813.703	28131
813.845	28025
813.986	27622
814.127	27606
814.268	27488
814.41	27454
814.551	27184
814.692	27458
814.833	27420
814.974	27367
815.115	27264
815.256	27302
815.397	27230
815.539	27176
815.68	27241
815.821	27127
815.962	27222
816.103	27070
816.244	27013
816.385	26899
816.526	26876
816.666	26735
816.807	26617
816.948	26590
817.089	26727
817.23	26705
817.371	26571
817.512	26469
817.653	26587
817.793	26625
817.934	26465
818.075	26667
818.216	26495
818.356	26590
818.497	26336
818.638	26176
818.778	26237
818.919	26290
819.06	26362
819.2	26514
819.341	26473
819.481	26400
819.622	26727
819.762	26811
819.903	26674
820.043	26667
820.184	26640
820.324	26549
820.465	26739
820.605	26667
820.746	26541
820.886	26530
821.026	26648
821.167	26598
821.307	26537
821.447	26446
821.588	26358
821.728	26256
821.868	26024
822.008	26065
822.149	26020
822.289	25845
822.429	25715
822.569	25715
822.709	25719
822.849	25457
822.99	25400
823.13	25403
823.27	25339
823.41	25221
823.55	24981
823.69	25381
823.83	25308
823.97	25244
824.11	25042
824.25	24905
824.389	25133
824.529	25091
824.669	25099
824.809	25202
824.949	25103
825.089	25103
825.228	24977
825.368	24924
825.508	24981
825.648	24875
825.787	25107
825.927	24882
826.067	24779
826.206	24924
826.346	24882
826.485	25042
826.625	24848
826.765	24863
826.904	24996
827.044	24631
827.183	24555
827.323	24475
827.462	24616
827.601	24547
827.741	24551
827.88	24661
828.02	24525
828.159	24559
828.298	24566
828.437	24608
828.577	24494
828.716	24623
828.855	24445
828.994	24243
829.134	24296
829.273	24376
829.412	24235
829.551	24182
829.69	24361
829.829	24270
829.968	24311
830.107	24350
830.246	24258
830.385	24182
830.524	24163
830.663	24053
830.802	23958
830.941	23889
831.08	23809
831.219	23984
831.357	23958
831.496	24091
831.635	23863
831.774	23878
831.913	23802
832.051	23684
832.19	23646
832.329	23710
832.467	23493
832.606	23490
832.744	23505
832.883	23573
833.022	23528
833.16	23551
833.299	23512
833.437	23589
833.576	23589
833.714	23425
833.852	23558
833.991	23501
834.129	23653
834.267	23520
834.406	23421
834.544	23570
834.682	23547
834.821	23543
834.959	23691
835.097	23592
835.235	23455
835.373	23577
835.511	23516
835.65	23493
835.788	23501
835.926	23181
836.064	23090
836.202	23250
836.34	23364
836.478	23395
836.615	23425
836.753	23444
836.891	23516
837.029	23360
837.167	23398
837.305	23330
837.443	23315
837.58	23242
837.718	23277
837.856	23193
837.993	23143
838.131	23216
838.269	23193
838.406	23121
838.544	22976
838.681	22858
838.819	22862
838.956	22599
839.094	22649
839.231	22740
839.369	22790
839.506	23064
839.643	22934
839.781	22641
839.918	22733
840.055	22656
840.193	22615
840.33	22668
840.467	22599
840.604	22618
840.742	22828
840.879	22443
841.016	22626
841.153	22569
841.29	22672
841.427	22554
841.564	22546
841.701	22588
841.838	22375
841.975	22413
842.112	22485
842.249	22405
842.385	22249
842.522	22497
842.659	22333
842.796	22310
842.933	22261
843.069	22272
843.206	22234
843.343	22257
843.479	22356
843.616	22162
843.752	22169
843.889	22040
844.025	22287
844.162	21972
844.298	22188
844.435	22105
844.571	22017
844.708	21975
844.844	22120
844.98	22154
845.117	22147
845.253	22135
845.389	21972
845.525	21964
845.661	21827
845.798	21736
845.934	21937
846.07	21705
846.206	21831
846.342	21998
846.478	21873
846.614	21603
846.75	21458
846.886	21496
847.022	21549
847.158	21485
847.294	21485
847.429	21606
847.565	21526
847.701	21747
847.837	21313
847.972	21146
848.108	21298
848.244	21321
848.379	21279
848.515	21039
848.65	21131
848.786	21218
848.921	21119
849.057	21348
849.192	21173
849.328	21104
849.463	21096
849.598	21062
849.734	20967
849.869	20948
850.004	20864
850.14	20902
850.275	20868
850.41	20762
850.545	20792
850.68	20933
850.815	20925
850.95	20883
851.085	20975
851.22	20963
851.355	20956
851.49	20804
851.625	20849
851.76	20864
851.895	20674
852.03	20651
852.165	20868
852.299	20880
852.434	20967
852.569	20861
852.703	20823
852.838	20891
852.973	20990
853.107	21043
853.242	20842
853.376	20739
853.511	20530
853.645	20682
853.78	20842
853.914	20609
854.048	20705
854.183	20701
854.317	20708
854.451	20807
854.585	20765
854.72	20629
854.854	20609
854.988	20655
855.122	20545
855.256	20640
855.39	20659
855.524	20689
855.658	20746
855.792	20842
855.926	20579
856.06	20743
856.194	20609
856.327	20765
856.461	20705
856.595	20655
856.729	20682
856.862	20777
856.996	20613
857.13	20720
857.263	20762
857.397	20674
857.53	20651
857.664	20594
857.797	20807
857.931	20743
858.064	20708
858.197	20811
858.331	20621
858.464	20640
858.597	20522
858.731	20545
858.864	20587
858.997	20552
859.13	20533
859.263	20861
859.396	20678
859.529	20655
859.662	20526
859.795	20606
859.928	20663
860.061	20750
860.194	20853
860.327	20667
860.46	20663
860.592	20746
860.725	20754
860.858	20785
860.99	20670
861.123	20670
861.256	20655
861.388	20621
861.521	21291
861.653	20537
861.786	20408
861.918	20583
862.05	20537
862.183	20697
862.315	20670
862.447	20750
862.58	20556
862.712	20374
862.844	20339
862.976	20476
863.108	20355
863.24	20750
863.372	20332
863.504	20404
863.636	20423
863.768	20396
863.9	20374
864.032	20294
864.164	20305
864.296	20381
864.428	20579
864.559	20347
864.691	20271
864.823	20305
864.954	20377
865.086	20377
865.217	20153
865.349	20130
865.48	20256
865.612	20240
865.743	20320
865.875	20218
866.006	20237
866.137	20332
866.269	20290
866.4	20168
866.531	20240
866.662	20100
866.793	20237
866.924	20111
867.055	20149
867.186	20172
867.317	20191
867.448	20119
867.579	20229
867.71	20031
867.841	19932
867.972	20168
868.103	20103
868.233	20058
868.364	20244
868.495	20275
868.625	20320
868.756	20431
868.886	20362
869.017	20332
869.147	20488
869.278	20526
869.408	20404
869.539	20480
869.669	20590
869.799	20518
869.929	20556
870.06	20632
870.19	20682
870.32	20727
870.45	20682
870.58	20887
870.71	21005
870.84	20902
870.97	20937
871.1	20838
871.23	21047
871.36	21093
871.489	20838
871.619	20952
871.749	20971
871.879	21062
872.008	21142
872.138	21028
872.267	21066
872.397	20918
872.526	20891
872.656	20765
872.785	20876
872.915	21024
873.044	21013
873.173	21036
873.303	21104
873.432	21058
873.561	21112
873.69	21051
873.819	21089
873.948	21150
874.077	21005
874.206	20956
874.335	21085
874.464	21119
874.593	21268
874.722	21260
874.851	21249
874.979	21389
875.108	21256
875.237	21222
875.365	21192
875.494	21161
875.623	21313
875.751	21222
875.88	21226
876.008	21363
876.136	21462
876.265	21667
876.393	21873
876.521	21827
876.65	21701
876.778	21717
876.906	21564
877.034	21652
877.162	21644
877.29	21675
877.418	21690
877.546	21667
877.674	21538
877.802	21709
877.93	21599
878.058	21534
878.185	21496
878.313	21557
878.441	21557
878.568	21317
878.696	21447
878.824	21648
878.951	21717
879.079	21736
879.206	21975
879.333	21728
879.461	21709
879.588	21694
879.715	21812
879.842	21949
879.97	21641
880.097	21435
880.224	21424
880.351	21500
880.478	21321
880.605	21359
880.732	21447
880.859	21667
880.986	21500
881.112	21370
881.239	21344
881.366	21329
881.493	21291
881.619	21039
881.746	21017
881.872	21036
881.999	20952
882.125	20921
882.252	21119
882.378	21017
882.505	21089
882.631	20929
882.757	20689
882.883	20689
883.01	20838
883.136	20708
883.262	20632
883.388	20549
883.514	20826
883.64	20796
883.766	20720
883.892	20552
884.018	20590
884.143	20617
884.269	20765
884.395	20503
884.52	20412
884.646	20427
884.772	20252
884.897	20282
885.023	20408
885.148	20503
885.274	20537
885.399	20419
885.524	20446
885.65	20442
885.775	20438
885.9	20450
886.025	20537
886.15	20454
886.275	20469
886.4	20324
886.525	20339
886.65	20202
886.775	20263
886.9	20602
887.025	20682
887.149	20423
887.274	20347
887.399	20134
887.523	20248
887.648	20122
887.773	20008
887.897	20221
888.021	20183
888.146	20187
888.27	20278
888.395	20244
888.519	20240
888.643	20107
888.767	20256
888.891	20092
889.015	19944
889.139	19982
889.263	19936
889.387	20073
889.511	20263
889.635	20096
889.759	19986
889.883	19951
890.006	19944
890.13	20020
890.254	19875
890.377	19784
890.501	19738
890.624	19731
890.748	19765
890.871	19635
890.995	19510
891.118	19502
891.241	19655
891.364	19476
891.488	19693
891.611	19537
891.734	19635
891.857	19662
891.98	19548
892.103	19601
892.226	19537
892.349	19491
892.471	19324
892.594	19521
892.717	19472
892.839	19502
892.962	19358
893.085	19601
893.207	19502
893.33	19369
893.452	19316
893.575	19620
893.697	19506
893.819	19594
893.941	19597
894.064	19616
894.186	19259
894.308	19415
894.43	19674
894.552	19715
894.674	19514
894.796	19400
894.918	19457
895.04	19373
895.161	19533
895.283	19597
895.405	19411
895.526	19396
895.648	19434
895.769	19449
895.891	19556
896.012	19499
896.134	19510
896.255	19464
896.376	19464
896.498	19506
896.619	19540
896.74	19537
896.861	19556
896.982	19841
897.103	19932
897.224	19742
897.345	19723
897.466	19635
897.587	19681
897.708	19776
897.828	19807
897.949	19616
898.07	19460
898.19	19586
898.311	19833
898.431	19765
898.552	19738
898.672	19700
898.792	19719
898.913	19731
899.033	19567
899.153	19480
899.273	19384
899.393	19373
899.513	19483
899.633	19415
899.753	19533
899.873	19441
899.993	19445
900.113	19335
900.232	19499
900.352	19354
900.472	19198
900.591	19194
900.711	19293
900.83	19228
900.95	19282
901.069	19377
901.189	19091
901.308	18886
901.427	18753
901.546	18863
901.665	18817
901.784	18939
901.904	18806
902.023	18635
902.141	18467
902.26	18350
902.379	18479
902.498	18330
902.617	18247
902.735	18350
902.854	18376
902.973	18228
903.091	18030
903.21	17996
903.328	18007
903.446	17817
903.565	17870
903.683	17828
903.801	17786
903.919	17726
904.038	17798
904.156	17535
904.274	17691
904.392	17547
904.51	17535
904.627	17627
904.745	17589
904.863	17600
904.981	17387
905.098	17330
905.216	17162
905.334	17223
905.451	17185
905.569	17250
905.686	17303
905.803	17250
905.921	17079
906.038	17254
906.155	17025
906.272	16980
906.389	16991
906.506	16778
906.623	16847
906.74	16733
906.857	16630
906.974	16622
907.091	16900
907.208	16782
907.324	16812
907.441	16736
907.557	16535
907.674	16481
907.79	16390
907.907	16508
908.023	16523
908.139	16523
908.256	16455
908.372	16424
908.488	16382
908.604	16238
908.72	16242
908.836	16177
908.952	16173
909.068	16219
909.184	16253
909.3	16166
909.415	16272
909.531	16036
909.647	15972
909.762	15903
909.878	15892
909.993	15873
910.108	15907
910.224	15842
910.339	15953
910.454	15827
910.57	15709
910.685	15728
910.8	15934
910.915	15876
911.03	15690
911.145	15469
911.259	15507
911.374	15584
911.489	15473
911.604	15389
911.718	15211
911.833	15294
911.947	15249
912.062	15036
912.176	15222
912.291	15336
912.405	15195
912.519	15374
912.633	15530
912.748	15405
912.862	15188
912.976	15062
913.09	14952
913.204	15013
913.318	15005
913.431	15104
913.545	15127
913.659	15089
913.772	15005
913.886	14868
914	14834
914.113	14967
914.226	15036
914.34	14952
914.453	14804
914.566	14941
914.68	14800
914.793	14792
914.906	14556
915.019	14518
915.132	14389
915.245	14450
915.358	14484
915.47	14473
915.583	14514
915.696	14492
915.809	14689
915.921	14640
916.034	14492
916.146	14419
916.259	14336
916.371	14526
916.483	14457
916.595	14366
916.708	14317
916.82	14336
916.932	14248
917.044	14282
917.156	14271
917.268	14142
917.38	14259
917.491	14088
917.603	14176
917.715	14267
917.826	14309
917.938	14130
918.049	14084
918.161	14096
918.272	14313
918.384	14221
918.495	14077
918.606	13970
918.717	13845
918.828	14054
918.939	13928
919.05	13970
919.161	13909
919.272	13712
919.383	13811
919.494	13993
919.604	14164
919.715	13967
919.826	13849
919.936	13902
920.047	14016
920.157	13993
920.267	14084
920.378	13944
920.488	13807
920.598	14111
920.708	14202
920.818	14008
920.928	14035
921.038	14172
921.148	14183
921.258	13860
921.368	13731
921.477	13647
921.587	13704
921.697	13590
921.806	13655
921.916	13540
922.025	13331
922.134	13373
922.244	13164
922.353	13407
922.462	13213
922.571	13095
922.68	12973
922.789	12970
922.898	12928
923.007	12871
923.116	12932
923.224	12989
923.333	12970
923.442	12798
923.55	12738
923.659	12817
923.767	12821
923.876	12711
923.984	12795
924.092	12684
924.201	12707
924.309	12684
924.417	12722
924.525	12673
924.633	12559
924.741	13426
924.849	12483
924.956	12601
925.064	12437
925.172	12319
925.279	12426
925.387	12403
925.494	12346
925.602	12616
925.709	12372
925.816	12251
925.924	12353
926.031	12410
926.138	12376
926.245	12357
926.352	12266
926.459	12300
926.566	12388
926.673	12258
926.779	12079
926.886	12133
926.993	12060
927.099	11961
927.206	11931
927.312	11923
927.419	12026
927.525	12049
927.631	11973
927.737	11901
927.843	11870
927.95	11707
928.056	11824
928.162	11790
928.267	11935
928.373	12342
928.479	11893
928.585	11653
928.69	11726
928.796	11969
928.901	11615
929.007	11463
929.112	11657
929.218	11592
929.323	11600
929.428	11501
929.533	11535
929.638	11512
929.743	11398
929.848	11505
929.953	11486
930.058	11391
930.163	11178
930.267	11174
930.372	11334
930.477	11197
930.581	11421
930.685	11296
930.79	11079
930.894	11185
930.998	11014
931.103	11261
931.207	10812
931.311	10793
931.415	10744
931.519	10554
931.623	10508
