Data from test_V78500241_2266.txt Node
Date: Fri Mar 25 15:25:38 CST 2022
User: usil
Spectrometer: V785-0024
Trigger mode: 0
Integration Time (sec): 4.000000E-1
Scans to average: 1
Nonlinearity correction enabled: false
Boxcar width: 0
Storing dark spectrum: false
XAxis mode: Wavelengths
Number of Pixels in Spectrum: 1024
>>>>>Begin Spectral Data<<<<<
801.071	27549
801.214	27530
801.356	27298
801.499	27214
801.641	27131
801.783	27222
801.926	27192
802.068	27173
802.211	27135
802.353	27047
802.496	26750
802.638	26842
802.78	26678
802.923	26663
803.065	26617
803.208	26750
803.35	26701
803.492	27020
803.635	26887
803.777	26925
803.919	26861
804.061	27336
804.204	26929
804.346	26895
804.488	26857
804.63	26910
804.773	26864
804.915	27070
805.057	27055
805.199	26914
805.341	26956
805.483	27123
805.626	27013
805.768	27043
805.91	27077
806.052	27100
806.194	26960
806.336	27283
806.478	27108
806.62	27093
806.762	27176
806.904	27355
807.046	27629
807.188	27485
807.33	27469
807.472	27587
807.614	27504
807.756	27420
807.898	27332
808.04	27336
808.182	27093
808.324	27424
808.465	27329
808.607	27606
808.749	27789
808.891	27679
809.033	27823
809.174	27770
809.316	27576
809.458	27747
809.6	27800
809.741	27812
809.883	27827
810.025	27789
810.166	27918
810.308	27797
810.45	27793
810.591	27953
810.733	27648
810.875	27622
811.016	27705
811.158	27549
811.299	27690
811.441	27831
811.582	27846
811.724	27667
811.865	27610
812.007	27553
812.148	27667
812.29	27766
812.431	27903
812.573	27975
812.714	27941
812.855	28059
812.997	28344
813.138	28413
813.279	28287
813.421	28105
813.562	28090
813.703	27953
813.845	27785
813.986	27447
814.127	27538
814.268	27294
814.41	27504
814.551	27252
814.692	27580
814.833	27439
814.974	27340
815.115	27466
815.256	27230
815.397	27192
815.539	27310
815.68	27009
815.821	27077
815.962	27161
816.103	27150
816.244	26960
816.385	26940
816.526	26868
816.666	26750
816.807	26530
816.948	26655
817.089	26682
817.23	26682
817.371	26674
817.512	26522
817.653	26602
817.793	26686
817.934	26541
818.075	26682
818.216	26552
818.356	26560
818.497	26442
818.638	26465
818.778	26438
818.919	26393
819.06	26381
819.2	26556
819.341	26545
819.481	26549
819.622	26773
819.762	26990
819.903	26864
820.043	26743
820.184	26743
820.324	26716
820.465	26716
820.605	26735
820.746	26697
820.886	26537
821.026	26754
821.167	26644
821.307	26663
821.447	26613
821.588	26609
821.728	26507
821.868	26240
822.008	25974
822.149	26142
822.289	25986
822.429	25833
822.569	25704
822.709	25723
822.849	25586
822.99	25609
823.13	25411
823.27	25628
823.41	25388
823.55	25377
823.69	25377
823.83	25419
823.97	25308
824.11	25255
824.25	25023
824.389	25133
824.529	25168
824.669	25179
824.809	25358
824.949	25407
825.089	25434
825.228	25259
825.368	25053
825.508	24970
825.648	24951
825.787	25236
825.927	25084
826.067	25042
826.206	25046
826.346	25088
826.485	25164
826.625	25000
826.765	25133
826.904	25145
827.044	24837
827.183	24806
827.323	24745
827.462	24837
827.601	24863
827.741	24757
827.88	24837
828.02	24734
828.159	24753
828.298	24779
828.437	24768
828.577	24707
828.716	24901
828.855	24707
828.994	24391
829.134	24471
829.273	24509
829.412	24437
829.551	24372
829.69	24486
829.829	24399
829.968	24608
830.107	24563
830.246	24384
830.385	24418
830.524	24407
830.663	24239
830.802	24235
830.941	24057
831.08	24003
831.219	24155
831.357	24174
831.496	24232
831.635	24030
831.774	24079
831.913	24095
832.051	23828
832.19	23843
832.329	23961
832.467	23809
832.606	23668
832.744	23680
832.883	23752
833.022	23802
833.16	23733
833.299	23863
833.437	23741
833.576	23779
833.714	23851
833.852	23809
833.991	23828
834.129	23901
834.267	23851
834.406	23672
834.544	23813
834.682	23916
834.821	23737
834.959	23992
835.097	23805
835.235	23805
835.373	23897
835.511	23779
835.65	23809
835.788	23752
835.926	23638
836.064	23440
836.202	23512
836.34	23634
836.478	23707
836.615	23676
836.753	23718
836.891	23695
837.029	23687
837.167	23566
837.305	23452
837.443	23551
837.58	23600
837.718	23543
837.856	23497
837.993	23482
838.131	23478
838.269	23284
838.406	23486
838.544	23467
838.681	23212
838.819	23178
838.956	23113
839.094	22984
839.231	22991
839.369	23185
839.506	23288
839.643	23303
839.781	23048
839.918	22854
840.055	22866
840.193	22881
840.33	22774
840.467	22877
840.604	22900
840.742	23223
840.879	22831
841.016	22805
841.153	22744
841.29	23014
841.427	22805
841.564	22881
841.701	22900
841.838	22805
841.975	22736
842.112	22786
842.249	22664
842.385	22630
842.522	22938
842.659	22573
842.796	22611
842.933	22664
843.069	22512
843.206	22527
843.343	22622
843.479	22664
843.616	22717
843.752	22443
843.889	22462
844.025	22516
844.162	22329
844.298	22554
844.435	22295
844.571	22375
844.708	22424
844.844	22504
844.98	22557
845.117	22489
845.253	22409
845.389	22207
845.525	22284
845.661	22246
845.798	22124
845.934	22223
846.07	22112
846.206	22268
846.342	22299
846.478	22074
846.614	21918
846.75	21873
846.886	21888
847.022	22032
847.158	21945
847.294	21876
847.429	21899
847.565	21857
847.701	22128
847.837	21660
847.972	21717
848.108	21755
848.244	21759
848.379	21435
848.515	21526
848.65	21477
848.786	21534
848.921	21450
849.057	21549
849.192	21618
849.328	21469
849.463	21439
849.598	21488
849.734	21268
849.869	21313
850.004	21260
850.14	21287
850.275	21336
850.41	21062
850.545	21214
850.68	21195
850.815	21298
850.95	21199
851.085	21287
851.22	21336
851.355	21157
851.49	21184
851.625	21272
851.76	21135
851.895	21104
852.03	21108
852.165	21214
852.299	21203
852.434	21142
852.569	21203
852.703	21211
852.838	21298
852.973	21279
853.107	21291
853.242	21123
853.376	21066
853.511	20872
853.645	20937
853.78	21150
853.914	21119
854.048	21047
854.183	21070
854.317	21108
854.451	21245
854.585	21123
854.72	21028
854.854	21104
854.988	20941
855.122	21005
855.256	20864
855.39	20975
855.524	21062
855.658	21161
855.792	21104
855.926	20990
856.06	21138
856.194	21032
856.327	20910
856.461	21009
856.595	21032
856.729	21062
856.862	21161
856.996	21058
857.13	21051
857.263	21218
857.397	21154
857.53	20998
857.664	21100
857.797	21260
857.931	21169
858.064	21066
858.197	21070
858.331	21150
858.464	21036
858.597	20902
858.731	21051
858.864	21062
858.997	21089
859.13	20952
859.263	20971
859.396	21275
859.529	21020
859.662	20910
859.795	20906
859.928	21146
860.061	21142
860.194	21256
860.327	21119
860.46	20986
860.592	21119
860.725	21112
860.858	21154
860.99	21100
861.123	21043
861.256	20990
861.388	21039
861.521	21781
861.653	20948
861.786	20990
861.918	20895
862.05	20933
862.183	20868
862.315	21077
862.447	20895
862.58	20967
862.712	20849
862.844	20682
862.976	20895
863.108	20948
863.24	21116
863.372	20705
863.504	20644
863.636	20754
863.768	20746
863.9	20781
864.032	20655
864.164	20697
864.296	20826
864.428	20876
864.559	20773
864.691	20724
864.823	20762
864.954	20769
865.086	20708
865.217	20636
865.349	20526
865.48	20621
865.612	20701
865.743	20773
865.875	20651
866.006	20575
866.137	20556
866.269	20731
866.4	20716
866.531	20575
866.662	20541
866.793	20590
866.924	20571
867.055	20606
867.186	20609
867.317	20484
867.448	20514
867.579	20670
867.71	20514
867.841	20579
867.972	20533
868.103	20560
868.233	20617
868.364	20579
868.495	20705
868.625	20796
868.756	20823
868.886	20849
869.017	20826
869.147	20876
869.278	21028
869.408	20792
869.539	20788
869.669	20914
869.799	20883
869.929	20925
870.06	20937
870.19	21211
870.32	21116
870.45	21138
870.58	21112
870.71	21374
870.84	21389
870.97	21302
871.1	21169
871.23	21466
871.36	21477
871.489	21351
871.619	21378
871.749	21511
871.879	21477
872.008	21458
872.138	21397
872.267	21549
872.397	21245
872.526	21138
872.656	21233
872.785	21310
872.915	21424
873.044	21637
873.173	21488
873.303	21481
873.432	21370
873.561	21538
873.69	21477
873.819	21477
873.948	21580
874.077	21435
874.206	21469
874.335	21447
874.464	21671
874.593	21652
874.722	21663
874.851	21660
874.979	21778
875.108	21686
875.237	21576
875.365	21504
875.494	21812
875.623	21671
875.751	21641
875.88	21793
876.008	21793
876.136	21812
876.265	22059
876.393	22181
876.521	22192
876.65	22051
876.778	22185
876.906	22074
877.034	21918
877.162	21949
877.29	21968
877.418	22006
877.546	22025
877.674	22051
877.802	22128
877.93	21975
878.058	21987
878.185	21816
878.313	22010
878.441	22059
878.568	21846
878.696	21968
878.824	22059
878.951	22074
879.079	22192
879.206	22188
879.333	22226
879.461	22074
879.588	22139
879.715	22223
879.842	22253
879.97	22063
880.097	21934
880.224	21835
880.351	21964
880.478	21884
880.605	21911
880.732	21762
880.859	22082
880.986	21808
881.112	21884
881.239	21713
881.366	21549
881.493	21530
881.619	21473
881.746	21523
881.872	21473
881.999	21340
882.125	21313
882.252	21591
882.378	21412
882.505	21530
882.631	21393
882.757	21169
882.883	21089
883.01	21112
883.136	21112
883.262	20979
883.388	21074
883.514	21169
883.64	21112
883.766	20979
883.892	20868
884.018	21036
884.143	21013
884.269	21138
884.395	20807
884.52	20629
884.646	20823
884.772	20724
884.897	20636
885.023	20842
885.148	20842
885.274	20921
885.399	20910
885.524	20697
885.65	20876
885.775	20880
885.9	20632
886.025	20906
886.15	20762
886.275	20708
886.4	20689
886.525	20667
886.65	20705
886.775	20701
886.9	20880
887.025	20800
887.149	20758
887.274	20636
887.399	20568
887.523	20583
887.648	20552
887.773	20389
887.897	20689
888.021	20697
888.146	20446
888.27	20564
888.395	20594
888.519	20602
888.643	20511
888.767	20526
888.891	20419
889.015	20294
889.139	20339
889.263	20381
889.387	20370
889.511	20541
889.635	20320
889.759	20362
889.883	20370
890.006	20286
890.13	20503
890.254	20347
890.377	20347
890.501	20119
890.624	20115
890.748	20225
890.871	19928
890.995	19921
891.118	19814
891.241	20016
891.364	19906
891.488	19986
891.611	19856
891.734	19860
891.857	19883
891.98	19837
892.103	19947
892.226	19875
892.349	19765
892.471	19693
892.594	19807
892.717	19830
892.839	19769
892.962	19723
893.085	19860
893.207	19693
893.33	19799
893.452	19620
893.575	19871
893.697	19803
893.819	19951
893.941	20035
894.064	19951
894.186	19689
894.308	19772
894.43	19849
894.552	20031
894.674	19864
894.796	19712
894.918	19837
895.04	19807
895.161	19921
895.283	19902
895.405	19674
895.526	19913
895.648	19784
895.769	19955
895.891	19982
896.012	19921
896.134	19727
896.255	19780
896.376	19700
896.498	19807
896.619	19860
896.74	19788
896.861	19868
896.982	20081
897.103	20347
897.224	20081
897.345	20062
897.466	20035
897.587	19955
897.708	20172
897.828	20043
897.949	19936
898.07	19959
898.19	19986
898.311	20134
898.431	19940
898.552	19986
898.672	20054
898.792	20153
898.913	20069
899.033	20005
899.153	19708
899.273	19761
899.393	19830
899.513	19742
899.633	19803
899.753	19818
899.873	19700
899.993	19814
900.113	19643
900.232	19807
900.352	19750
900.472	19723
900.591	19556
900.711	19567
900.83	19445
900.95	19685
901.069	19628
901.189	19419
901.308	19263
901.427	19129
901.546	19202
901.665	19259
901.784	19362
901.904	19069
902.023	18962
902.141	18684
902.26	18760
902.379	18821
902.498	18642
902.617	18601
902.735	18658
902.854	18661
902.973	18601
903.091	18399
903.21	18350
903.328	18376
903.446	18262
903.565	18148
903.683	18197
903.801	17999
903.919	18205
904.038	18038
904.156	17908
904.274	17992
904.392	17885
904.51	17847
904.627	17901
904.745	18068
904.863	17923
904.981	17802
905.098	17596
905.216	17600
905.334	17653
905.451	17657
905.569	17592
905.686	17649
905.803	17596
905.921	17383
906.038	17524
906.155	17417
906.272	17315
906.389	17360
906.506	17200
906.623	17254
906.74	17121
906.857	17029
906.974	17022
907.091	17193
907.208	17254
907.324	17212
907.441	17083
907.557	16991
907.674	16911
907.79	16774
907.907	16820
908.023	16835
908.139	16797
908.256	16748
908.372	16786
908.488	16694
908.604	16561
908.72	16527
908.836	16535
908.952	16596
909.068	16561
909.184	16679
909.3	16611
909.415	16599
909.531	16455
909.647	16421
909.762	16234
909.878	16253
909.993	16291
910.108	16207
910.224	16230
910.339	16242
910.454	16234
910.57	16211
910.685	16055
910.8	16325
910.915	16139
911.03	16063
911.145	15930
911.259	15907
911.374	15865
911.489	15861
911.604	15743
911.718	15679
911.833	15625
911.947	15443
912.062	15428
912.176	15606
912.291	15637
912.405	15587
912.519	15747
912.633	15762
912.748	15686
912.862	15637
912.976	15378
913.09	15287
913.204	15393
913.318	15458
913.431	15515
913.545	15545
913.659	15557
913.772	15466
913.886	15332
914	15294
914.113	15329
914.226	15294
914.34	15283
914.453	15173
914.566	15260
914.68	15154
914.793	15047
914.906	15005
915.019	14823
915.132	14705
915.245	14906
915.358	14944
915.47	14887
915.583	14857
915.696	14842
915.809	14956
915.921	15055
916.034	14727
916.146	14826
916.259	14785
916.371	14899
916.483	14910
916.595	14670
916.708	14686
916.82	14667
916.932	14648
917.044	14568
917.156	14651
917.268	14598
917.38	14564
917.491	14560
917.603	14545
917.715	14629
917.826	14594
917.938	14465
918.049	14450
918.161	14526
918.272	14739
918.384	14560
918.495	14514
918.606	14271
918.717	14271
918.828	14396
918.939	14385
919.05	14176
919.161	14252
919.272	14092
919.383	14202
919.494	14358
919.604	14484
919.715	14218
919.826	14161
919.936	14298
920.047	14301
920.157	14252
920.267	14347
920.378	14320
920.488	14278
920.598	14469
920.708	14545
920.818	14328
920.928	14438
921.038	14492
921.148	14476
921.258	14183
921.368	14168
921.477	14027
921.587	13944
921.697	13928
921.806	14046
921.916	13856
922.025	13723
922.134	13643
922.244	13643
922.353	13750
922.462	13518
922.571	13384
922.68	13350
922.789	13381
922.898	13289
923.007	13301
923.116	13407
923.224	13297
923.333	13221
923.442	13141
923.55	13137
923.659	13126
923.767	13247
923.876	13080
923.984	13156
924.092	13015
924.201	13080
924.309	13084
924.417	13065
924.525	12985
924.633	12962
924.741	13761
924.849	12741
924.956	12863
925.064	12875
925.172	12688
925.279	12753
925.387	12703
925.494	12707
925.602	12821
925.709	12734
925.816	12620
925.924	12658
926.031	12768
926.138	12711
926.245	12665
926.352	12669
926.459	12669
926.566	12715
926.673	12623
926.779	12490
926.886	12494
926.993	12308
927.099	12369
927.206	12323
927.312	12254
927.419	12350
927.525	12315
927.631	12330
927.737	12243
927.843	12243
927.95	12003
928.056	12136
928.162	12194
928.267	12228
928.373	12798
928.479	12171
928.585	12026
928.69	12041
928.796	12087
928.901	11973
929.007	11760
929.112	12053
929.218	11908
929.323	11939
929.428	11912
929.533	11961
929.638	11790
929.743	11855
929.848	11843
929.953	11840
930.058	11691
930.163	11486
930.267	11467
930.372	11627
930.477	11501
930.581	11798
930.685	11668
930.79	11406
930.894	11558
930.998	11353
931.103	11570
931.207	11181
931.311	11121
931.415	11098
931.519	10839
931.623	10900
