Data from test_V78500241_2135.txt Node
Date: Fri Mar 25 15:24:43 CST 2022
User: usil
Spectrometer: V785-0024
Trigger mode: 0
Integration Time (sec): 4.000000E-1
Scans to average: 1
Nonlinearity correction enabled: false
Boxcar width: 0
Storing dark spectrum: false
XAxis mode: Wavelengths
Number of Pixels in Spectrum: 1024
>>>>>Begin Spectral Data<<<<<
801.071	27519
801.214	27629
801.356	27344
801.499	27287
801.641	27150
801.783	27256
801.926	27268
802.068	27180
802.211	27119
802.353	26990
802.496	26762
802.638	26861
802.78	26712
802.923	26693
803.065	26682
803.208	26716
803.35	26956
803.492	27036
803.635	27096
803.777	26914
803.919	26990
804.061	27382
804.204	27203
804.346	27009
804.488	26933
804.63	27013
804.773	26857
804.915	27020
805.057	27127
805.199	26967
805.341	27199
805.483	27135
805.626	27268
805.768	27020
805.91	27127
806.052	27173
806.194	26971
806.336	27458
806.478	27275
806.62	27321
806.762	27245
806.904	27355
807.046	27800
807.188	27648
807.33	27572
807.472	27648
807.614	27431
807.756	27583
807.898	27447
808.04	27561
808.182	27443
808.324	27526
808.465	27545
808.607	27709
808.749	27747
808.891	27804
809.033	27831
809.174	27873
809.316	27781
809.458	27717
809.6	27785
809.741	27937
809.883	28143
810.025	28150
810.166	28131
810.308	28147
810.45	28143
810.591	27922
810.733	27690
810.875	27762
811.016	27633
811.158	27698
811.299	27922
811.441	27964
811.582	27953
811.724	27747
811.865	27701
812.007	27732
812.148	27770
812.29	27793
812.431	27831
812.573	28166
812.714	28112
812.855	28371
812.997	28341
813.138	28523
813.279	28519
813.421	28268
813.562	28318
813.703	28128
813.845	27987
813.986	27778
814.127	27618
814.268	27511
814.41	27587
814.551	27408
814.692	27477
814.833	27401
814.974	27469
815.115	27507
815.256	27188
815.397	27427
815.539	27241
815.68	27184
815.821	27176
815.962	27252
816.103	27264
816.244	27127
816.385	27024
816.526	26895
816.666	26785
816.807	26701
816.948	26906
817.089	26781
817.23	26785
817.371	26762
817.512	26746
817.653	26678
817.793	26697
817.934	26735
818.075	26914
818.216	26807
818.356	26693
818.497	26450
818.638	26503
818.778	26499
818.919	26476
819.06	26533
819.2	26667
819.341	26724
819.481	26819
819.622	26876
819.762	27058
819.903	27066
820.043	26986
820.184	26823
820.324	26883
820.465	26826
820.605	26811
820.746	26857
820.886	26682
821.026	26830
821.167	26861
821.307	26807
821.447	26838
821.588	26758
821.728	26511
821.868	26358
822.008	26252
822.149	26259
822.289	26187
822.429	25947
822.569	25822
822.709	25902
822.849	25734
822.99	25811
823.13	25693
823.27	25571
823.41	25510
823.55	25514
823.69	25548
823.83	25605
823.97	25457
824.11	25289
824.25	25251
824.389	25213
824.529	25510
824.669	25213
824.809	25403
824.949	25392
825.089	25422
825.228	25312
825.368	25232
825.508	25179
825.648	25251
825.787	25304
825.927	25236
826.067	25236
826.206	25285
826.346	25171
826.485	25377
826.625	25213
826.765	25282
826.904	25232
827.044	25042
827.183	24920
827.323	24920
827.462	24966
827.601	24943
827.741	24909
827.88	24939
828.02	24692
828.159	24814
828.298	24840
828.437	24928
828.577	24920
828.716	25088
828.855	24768
828.994	24563
829.134	24711
829.273	24783
829.412	24589
829.551	24544
829.69	24635
829.829	24703
829.968	24635
830.107	24681
830.246	24677
830.385	24604
830.524	24601
830.663	24547
830.802	24338
830.941	24163
831.08	24197
831.219	24205
831.357	24319
831.496	24521
831.635	24213
831.774	24262
831.913	24091
832.051	24007
832.19	23958
832.329	24076
832.467	23798
832.606	23828
832.744	23992
832.883	23878
833.022	23847
833.16	23843
833.299	23946
833.437	23874
833.576	23889
833.714	23939
833.852	23954
833.991	24072
834.129	24076
834.267	23931
834.406	23920
834.544	24095
834.682	24060
834.821	23958
834.959	24076
835.097	23893
835.235	24015
835.373	23824
835.511	23805
835.65	23680
835.788	23893
835.926	23589
836.064	23585
836.202	23581
836.34	23794
836.478	23935
836.615	23866
836.753	23764
836.891	23859
837.029	23718
837.167	23630
837.305	23649
837.443	23638
837.58	23707
837.718	23687
837.856	23691
837.993	23592
838.131	23638
838.269	23452
838.406	23634
838.544	23398
838.681	23318
838.819	23341
838.956	23098
839.094	23048
839.231	23220
839.369	23284
839.506	23531
839.643	23379
839.781	23025
839.918	23178
840.055	23193
840.193	23037
840.33	23056
840.467	22980
840.604	23132
840.742	23273
840.879	22961
841.016	22957
841.153	22866
841.29	23003
841.427	22984
841.564	23121
841.701	22919
841.838	22869
841.975	22892
842.112	22774
842.249	22908
842.385	22664
842.522	23025
842.659	22786
842.796	22782
842.933	22675
843.069	22679
843.206	22744
843.343	22843
843.479	22831
843.616	22710
843.752	22618
843.889	22569
844.025	22683
844.162	22577
844.298	22641
844.435	22561
844.571	22405
844.708	22523
844.844	22656
844.98	22691
845.117	22603
845.253	22523
845.389	22325
845.525	22584
845.661	22421
845.798	22382
845.934	22280
846.07	22207
846.206	22242
846.342	22428
846.478	22337
846.614	21994
846.75	21934
846.886	22017
847.022	22147
847.158	22017
847.294	22124
847.429	21930
847.565	22044
847.701	22150
847.837	21846
847.972	21606
848.108	21759
848.244	21846
848.379	21671
848.515	21553
848.65	21545
848.786	21648
848.921	21618
849.057	21667
849.192	21652
849.328	21625
849.463	21580
849.598	21458
849.734	21500
849.869	21412
850.004	21317
850.14	21466
850.275	21260
850.41	21397
850.545	21374
850.68	21306
850.815	21412
850.95	21329
851.085	21534
851.22	21389
851.355	21469
851.49	21272
851.625	21260
851.76	21370
851.895	21291
852.03	21245
852.165	21420
852.299	21386
852.434	21507
852.569	21332
852.703	21298
852.838	21530
852.973	21561
853.107	21462
853.242	21344
853.376	21116
853.511	21039
853.645	21180
853.78	21157
853.914	21287
854.048	21180
854.183	21233
854.317	21218
854.451	21332
854.585	21237
854.72	21218
854.854	21192
854.988	21074
855.122	21207
855.256	21154
855.39	21336
855.524	21218
855.658	21283
855.792	21207
855.926	21351
856.06	21302
856.194	21195
856.327	21112
856.461	21256
856.595	21192
856.729	21138
856.862	21287
856.996	21142
857.13	21268
857.263	21302
857.397	21321
857.53	21157
857.664	21249
857.797	21321
857.931	21207
858.064	21180
858.197	21252
858.331	21192
858.464	21264
858.597	21055
858.731	21203
858.864	21173
858.997	21237
859.13	21294
859.263	21226
859.396	21249
859.529	21176
859.662	21195
859.795	21287
859.928	21260
860.061	21268
860.194	21435
860.327	21302
860.46	21146
860.592	21348
860.725	21466
860.858	21233
860.99	21157
861.123	21268
861.256	21039
861.388	21226
861.521	21888
861.653	21108
861.786	20853
861.918	21173
862.05	21093
862.183	21135
862.315	20994
862.447	21275
862.58	21237
862.712	20899
862.844	20883
862.976	20887
863.108	20975
863.24	21283
863.372	20785
863.504	20838
863.636	20963
863.768	20861
863.9	20895
864.032	20785
864.164	20868
864.296	20990
864.428	21051
864.559	20941
864.691	21039
864.823	21005
864.954	20918
865.086	20849
865.217	20914
865.349	20735
865.48	20872
865.612	20963
865.743	20899
865.875	20861
866.006	20842
866.137	20758
866.269	20815
866.4	20785
866.531	20807
866.662	20876
866.793	20754
866.924	20739
867.055	20739
867.186	20796
867.317	20796
867.448	20648
867.579	20648
867.71	20571
867.841	20682
867.972	20823
868.103	20701
868.233	20800
868.364	20804
868.495	20872
868.625	20998
868.756	21112
868.886	20864
869.017	21013
869.147	21127
869.278	21108
869.408	20944
869.539	20982
869.669	20971
869.799	21043
869.929	21032
870.06	21142
870.19	21416
870.32	21214
870.45	21279
870.58	21283
870.71	21458
870.84	21435
870.97	21287
871.1	21458
871.23	21572
871.36	21713
871.489	21370
871.619	21526
871.749	21504
871.879	21679
872.008	21682
872.138	21694
872.267	21580
872.397	21496
872.526	21374
872.656	21488
872.785	21408
872.915	21648
873.044	21728
873.173	21614
873.303	21747
873.432	21663
873.561	21694
873.69	21622
873.819	21530
873.948	21622
874.077	21648
874.206	21530
874.335	21587
874.464	21728
874.593	21838
874.722	21720
874.851	21979
874.979	21953
875.108	21884
875.237	21816
875.365	21797
875.494	21789
875.623	21903
875.751	21778
875.88	21793
876.008	21987
876.136	21930
876.265	22402
876.393	22306
876.521	22261
876.65	22462
876.778	22211
876.906	22234
877.034	22124
877.162	22257
877.29	22143
877.418	22223
877.546	22181
877.674	22211
877.802	22147
877.93	22246
878.058	22162
878.185	22055
878.313	22166
878.441	22166
878.568	22074
878.696	22032
878.824	22192
878.951	22242
879.079	22257
879.206	22523
879.333	22234
879.461	22177
879.588	22280
879.715	22341
879.842	22356
879.97	22192
880.097	21979
880.224	21903
880.351	21975
880.478	22059
880.605	21941
880.732	22101
880.859	22196
880.986	21964
881.112	21968
881.239	21907
881.366	21709
881.493	21610
881.619	21660
881.746	21682
881.872	21553
881.999	21671
882.125	21515
882.252	21667
882.378	21477
882.505	21648
882.631	21370
882.757	21291
882.883	21317
883.01	21355
883.136	21169
883.262	21237
883.388	21157
883.514	21317
883.64	21249
883.766	21222
883.892	21039
884.018	21058
884.143	21161
884.269	21302
884.395	21081
884.52	20948
884.646	21020
884.772	20929
884.897	20811
885.023	20971
885.148	21058
885.274	21043
885.399	21055
885.524	20899
885.65	20910
885.775	20914
885.9	20929
886.025	21165
886.15	21043
886.275	20933
886.4	20712
886.525	20944
886.65	20758
886.775	20807
886.9	21009
887.025	20986
887.149	20830
887.274	20686
887.399	20773
887.523	20670
887.648	20602
887.773	20469
887.897	20769
888.021	20773
888.146	20590
888.27	20842
888.395	20788
888.519	20682
888.643	20724
888.767	20743
888.891	20541
889.015	20564
889.139	20602
889.263	20552
889.387	20629
889.511	20716
889.635	20674
889.759	20446
889.883	20594
890.006	20499
890.13	20712
890.254	20476
890.377	20465
890.501	20339
890.624	20157
890.748	20298
890.871	20214
890.995	20001
891.118	19974
891.241	20164
891.364	20081
891.488	20172
891.611	20020
891.734	20126
891.857	20096
891.98	20096
892.103	20016
892.226	20092
892.349	20035
892.471	19902
892.594	19944
892.717	20050
892.839	19951
892.962	19902
893.085	20005
893.207	20088
893.33	19818
893.452	20012
893.575	20031
893.697	19997
893.819	20092
893.941	20282
894.064	20088
894.186	19845
894.308	19894
894.43	19947
894.552	20142
894.674	20096
894.796	19887
894.918	19928
895.04	19940
895.161	19947
895.283	19970
895.405	19788
895.526	19902
895.648	19917
895.769	20054
895.891	19947
896.012	19978
896.134	19978
896.255	19989
896.376	19894
896.498	19993
896.619	19986
896.74	19997
896.861	19982
896.982	20290
897.103	20396
897.224	20259
897.345	20153
897.466	20256
897.587	20259
897.708	20244
897.828	20210
897.949	20130
898.07	20058
898.19	20077
898.311	20191
898.431	20176
898.552	20301
898.672	20248
898.792	20191
898.913	20214
899.033	20161
899.153	19978
899.273	19841
899.393	19864
899.513	20024
899.633	19909
899.753	20035
899.873	19887
899.993	19944
900.113	19757
900.232	19906
900.352	19837
900.472	19731
900.591	19803
900.711	19700
900.83	19651
900.95	19814
901.069	19852
901.189	19643
901.308	19487
901.427	19354
901.546	19263
901.665	19316
901.784	19324
901.904	19156
902.023	19137
902.141	18840
902.26	18787
902.379	18909
902.498	18928
902.617	18810
902.735	18882
902.854	18890
902.973	18764
903.091	18547
903.21	18574
903.328	18448
903.446	18384
903.565	18380
903.683	18346
903.801	18254
903.919	18407
904.038	18243
904.156	18125
904.274	18190
904.392	18102
904.51	18076
904.627	17946
904.745	18022
904.863	18098
904.981	17988
905.098	17756
905.216	17794
905.334	17726
905.451	17764
905.569	17817
905.686	17813
905.803	17691
905.921	17512
906.038	17520
906.155	17539
906.272	17478
906.389	17395
906.506	17383
906.623	17277
906.74	17246
906.857	17105
906.974	17242
907.091	17337
907.208	17395
907.324	17250
907.441	17246
907.557	17067
907.674	17048
907.79	16999
907.907	17090
908.023	17025
908.139	16987
908.256	16991
908.372	16911
908.488	16847
908.604	16767
908.72	16702
908.836	16778
908.952	16641
909.068	16786
909.184	16934
909.3	16763
909.415	16653
909.531	16687
909.647	16462
909.762	16436
909.878	16348
909.993	16363
910.108	16344
910.224	16371
910.339	16356
910.454	16299
910.57	16230
910.685	16154
910.8	16428
910.915	16455
911.03	16219
911.145	16071
911.259	16029
911.374	16105
911.489	15941
911.604	15827
911.718	15751
911.833	15747
911.947	15557
912.062	15587
912.176	15720
912.291	15766
912.405	15736
912.519	16002
912.633	15831
912.748	15793
912.862	15603
912.976	15682
913.09	15519
913.204	15511
913.318	15576
913.431	15698
913.545	15637
913.659	15679
913.772	15515
913.886	15443
914	15359
914.113	15477
914.226	15549
914.34	15332
914.453	15363
914.566	15405
914.68	15275
914.793	15226
914.906	15039
915.019	15055
915.132	14872
915.245	14998
915.358	14941
915.47	15001
915.583	14963
915.696	15055
915.809	15100
915.921	15146
916.034	15112
916.146	14807
916.259	14899
916.371	14971
916.483	14956
916.595	14872
916.708	14849
916.82	14785
916.932	14792
917.044	14845
917.156	14750
917.268	14750
917.38	14739
917.491	14598
917.603	14629
917.715	14708
917.826	14712
917.938	14526
918.049	14480
918.161	14526
918.272	14800
918.384	14655
918.495	14564
918.606	14446
918.717	14320
918.828	14419
918.939	14404
919.05	14267
919.161	14389
919.272	14183
919.383	14164
919.494	14454
919.604	14526
919.715	14423
919.826	14336
919.936	14324
920.047	14377
920.157	14415
920.267	14629
920.378	14400
920.488	14400
920.598	14492
920.708	14686
920.818	14511
920.928	14480
921.038	14712
921.148	14648
921.258	14347
921.368	14320
921.477	14180
921.587	14138
921.697	13932
921.806	14168
921.916	14046
922.025	13811
922.134	13822
922.244	13742
922.353	13807
922.462	13818
922.571	13597
922.68	13441
922.789	13445
922.898	13373
923.007	13403
923.116	13453
923.224	13350
923.333	13396
923.442	13297
923.55	13209
923.659	13259
923.767	13244
923.876	13206
923.984	13335
924.092	13137
924.201	13228
924.309	13194
924.417	13118
924.525	13149
924.633	13107
924.741	13788
924.849	12947
924.956	13031
925.064	12829
925.172	12871
925.279	12810
925.387	12810
925.494	12829
925.602	13004
925.709	12867
925.816	12783
925.924	12753
926.031	12859
926.138	12795
926.245	12791
926.352	12806
926.459	12821
926.566	12920
926.673	12726
926.779	12604
926.886	12566
926.993	12414
927.099	12490
927.206	12437
927.312	12384
927.419	12517
927.525	12437
927.631	12445
927.737	12353
927.843	12346
927.95	12190
928.056	12319
928.162	12296
928.267	12289
928.373	12890
928.479	12376
928.585	12098
928.69	12254
928.796	12216
928.901	12140
929.007	11992
929.112	12114
929.218	12034
929.323	11996
929.428	11931
929.533	12095
929.638	11851
929.743	11935
929.848	12045
929.953	11916
930.058	11809
930.163	11638
930.267	11707
930.372	11832
930.477	11627
930.581	11916
930.685	11802
930.79	11573
930.894	11638
930.998	11535
931.103	11665
931.207	11296
931.311	11239
931.415	11098
931.519	10858
931.623	10915
