Data from test_V78500241_1282.txt Node
Date: Fri Mar 25 15:18:46 CST 2022
User: usil
Spectrometer: V785-0024
Trigger mode: 0
Integration Time (sec): 4.000000E-1
Scans to average: 1
Nonlinearity correction enabled: false
Boxcar width: 0
Storing dark spectrum: false
XAxis mode: Wavelengths
Number of Pixels in Spectrum: 1024
>>>>>Begin Spectral Data<<<<<
801.071	28055
801.214	28192
801.356	27823
801.499	27781
801.641	27720
801.783	27542
801.926	27770
802.068	27679
802.211	27553
802.353	27523
802.496	27488
802.638	27367
802.78	27279
802.923	27264
803.065	27252
803.208	27272
803.35	27310
803.492	27462
803.635	27504
803.777	27462
803.919	27572
804.061	27720
804.204	27488
804.346	27443
804.488	27325
804.63	27538
804.773	27386
804.915	27568
805.057	27500
805.199	27344
805.341	27568
805.483	27583
805.626	27595
805.768	27526
805.91	27580
806.052	27583
806.194	27504
806.336	27911
806.478	27698
806.62	27660
806.762	27686
806.904	27797
807.046	28086
807.188	27991
807.33	28181
807.472	28158
807.614	28040
807.756	28029
807.898	27987
808.04	27850
808.182	27937
808.324	27880
808.465	27983
808.607	28139
808.749	28150
808.891	28333
809.033	28344
809.174	28440
809.316	28265
809.458	28246
809.6	28173
809.741	28379
809.883	28413
810.025	28519
810.166	28611
810.308	28504
810.45	28516
810.591	28493
810.733	28459
810.875	28204
811.016	28169
811.158	28116
811.299	28409
811.441	28447
811.582	28519
811.724	28325
811.865	28272
812.007	28318
812.148	28238
812.29	28352
812.431	28554
812.573	28535
812.714	28603
812.855	28733
812.997	28866
813.138	29197
813.279	28965
813.421	28888
813.562	28987
813.703	28637
813.845	28691
813.986	28287
814.127	28128
814.268	28135
814.41	28017
814.551	27983
814.692	28040
814.833	28013
814.974	27914
815.115	27987
815.256	27808
815.397	28025
815.539	27911
815.68	27846
815.821	27793
815.962	27686
816.103	27846
816.244	27606
816.385	27625
816.526	27622
816.666	27329
816.807	27317
816.948	27283
817.089	27344
817.23	27367
817.371	27294
817.512	27211
817.653	27176
817.793	27096
817.934	27310
818.075	27298
818.216	27256
818.356	27252
818.497	27230
818.638	27028
818.778	27096
818.919	27176
819.06	27096
819.2	27211
819.341	27321
819.481	27332
819.622	27310
819.762	27580
819.903	27557
820.043	27496
820.184	27473
820.324	27485
820.465	27447
820.605	27557
820.746	27488
820.886	27203
821.026	27534
821.167	27272
821.307	27523
821.447	27378
821.588	27108
821.728	27043
821.868	26906
822.008	26902
822.149	26834
822.289	26872
822.429	26393
822.569	26526
822.709	26545
822.849	26294
822.99	26320
823.13	26229
823.27	26210
823.41	26092
823.55	25989
823.69	26046
823.83	26020
823.97	26161
824.11	25951
824.25	25982
824.389	25978
824.529	26043
824.669	25898
824.809	26115
824.949	25944
825.089	25989
825.228	26046
825.368	25871
825.508	25856
825.648	25852
825.787	25921
825.927	25868
826.067	25913
826.206	25784
826.346	25864
826.485	25807
826.625	25811
826.765	25944
826.904	25966
827.044	25597
827.183	25632
827.323	25594
827.462	25605
827.601	25552
827.741	25533
827.88	25666
828.02	25388
828.159	25506
828.298	25556
828.437	25544
828.577	25407
828.716	25620
828.855	25468
828.994	25251
829.134	25228
829.273	25324
829.412	25228
829.551	25320
829.69	25304
829.829	25308
829.968	25384
830.107	25407
830.246	25232
830.385	25247
830.524	25160
830.663	25202
830.802	24973
830.941	24829
831.08	24951
831.219	24977
831.357	25000
831.496	25126
831.635	24909
831.774	24791
831.913	24802
832.051	24696
832.19	24642
832.329	24661
832.467	24547
832.606	24525
832.744	24547
832.883	24639
833.022	24513
833.16	24521
833.299	24639
833.437	24669
833.576	24726
833.714	24597
833.852	24738
833.991	24601
834.129	24711
834.267	24806
834.406	24665
834.544	24669
834.682	24696
834.821	24620
834.959	24776
835.097	24513
835.235	24707
835.373	24582
835.511	24608
835.65	24418
835.788	24483
835.926	24418
836.064	24251
836.202	24330
836.34	24483
836.478	24418
836.615	24365
836.753	24471
836.891	24593
837.029	24502
837.167	24441
837.305	24266
837.443	24323
837.58	24262
837.718	24311
837.856	24289
837.993	24258
838.131	24338
838.269	24098
838.406	24251
838.544	24064
838.681	23923
838.819	23908
838.956	23775
839.094	23832
839.231	23767
839.369	23802
839.506	24125
839.643	23969
839.781	23794
839.918	23653
840.055	23722
840.193	23756
840.33	23661
840.467	23672
840.604	23813
840.742	23809
840.879	23573
841.016	23657
841.153	23611
841.29	23691
841.427	23687
841.564	23748
841.701	23668
841.838	23573
841.975	23535
842.112	23592
842.249	23459
842.385	23436
842.522	23672
842.659	23566
842.796	23349
842.933	23311
843.069	23356
843.206	23440
843.343	23486
843.479	23433
843.616	23395
843.752	23231
843.889	23166
844.025	23330
844.162	23185
844.298	23326
844.435	23136
844.571	23239
844.708	23296
844.844	23322
844.98	23254
845.117	23326
845.253	23048
845.389	23098
845.525	23094
845.661	23105
845.798	22934
845.934	22972
846.07	22934
846.206	23117
846.342	23033
846.478	22965
846.614	22675
846.75	22557
846.886	22630
847.022	22763
847.158	22736
847.294	22752
847.429	22771
847.565	22634
847.701	22976
847.837	22257
847.972	22341
848.108	22489
848.244	22645
848.379	22424
848.515	22128
848.65	22367
848.786	22265
848.921	22246
849.057	22246
849.192	22394
849.328	22238
849.463	22200
849.598	22181
849.734	22063
849.869	22086
850.004	22006
850.14	22048
850.275	22090
850.41	21930
850.545	22059
850.68	21979
850.815	22006
850.95	21945
851.085	22173
851.22	22040
851.355	22078
851.49	21964
851.625	22063
851.76	22002
851.895	21892
852.03	21903
852.165	22070
852.299	22131
852.434	22162
852.569	21911
852.703	21991
852.838	22063
852.973	22116
853.107	22246
853.242	21915
853.376	21846
853.511	21728
853.645	21808
853.78	21876
853.914	21766
854.048	21873
854.183	21770
854.317	21842
854.451	21983
854.585	21827
854.72	21857
854.854	21732
854.988	21755
855.122	21755
855.256	21705
855.39	21835
855.524	21895
855.658	21926
855.792	21793
855.926	21861
856.06	21827
856.194	21937
856.327	21793
856.461	21808
856.595	21755
856.729	21755
856.862	21983
856.996	21937
857.13	21911
857.263	21918
857.397	21835
857.53	21816
857.664	21793
857.797	21857
857.931	21994
858.064	21895
858.197	21934
858.331	21812
858.464	21713
858.597	21713
858.731	21835
858.864	21857
858.997	21819
859.13	21797
859.263	21812
859.396	21827
859.529	21736
859.662	21800
859.795	21732
859.928	21781
860.061	21960
860.194	21998
860.327	21926
860.46	21880
860.592	21922
860.725	21915
860.858	21907
860.99	21816
861.123	21789
861.256	21747
861.388	21774
861.521	22588
861.653	21785
861.786	21561
861.918	21671
862.05	21679
862.183	21808
862.315	21648
862.447	21797
862.58	21755
862.712	21481
862.844	21454
862.976	21572
863.108	21679
863.24	21975
863.372	21534
863.504	21462
863.636	21507
863.768	21462
863.9	21454
864.032	21447
864.164	21496
864.296	21599
864.428	21675
864.559	21660
864.691	21530
864.823	21583
864.954	21542
865.086	21572
865.217	21545
865.349	21397
865.48	21545
865.612	21416
865.743	21545
865.875	21519
866.006	21275
866.137	21420
866.269	21542
866.4	21439
866.531	21283
866.662	21279
866.793	21359
866.924	21344
867.055	21275
867.186	21294
867.317	21294
867.448	21252
867.579	21283
867.71	21378
867.841	21150
867.972	21291
868.103	21401
868.233	21374
868.364	21252
868.495	21545
868.625	21561
868.756	21614
868.886	21481
869.017	21542
869.147	21610
869.278	21732
869.408	21542
869.539	21526
869.669	21679
869.799	21378
869.929	21595
870.06	21641
870.19	21892
870.32	22040
870.45	21975
870.58	21983
870.71	22025
870.84	22166
870.97	22032
871.1	22029
871.23	22131
871.36	22131
871.489	22097
871.619	22181
871.749	22226
871.879	22150
872.008	22306
872.138	22162
872.267	22112
872.397	22090
872.526	22006
872.656	22048
872.785	21911
872.915	22249
873.044	22181
873.173	22158
873.303	22291
873.432	22200
873.561	22382
873.69	22268
873.819	22158
873.948	22230
874.077	22200
874.206	22272
874.335	22268
874.464	22246
874.593	22508
874.722	22451
874.851	22607
874.979	22386
875.108	22538
875.237	22360
875.365	22360
875.494	22409
875.623	22474
875.751	22356
875.88	22455
876.008	22466
876.136	22596
876.265	22797
876.393	22984
876.521	22835
876.65	22843
876.778	22778
876.906	22748
877.034	22763
877.162	22797
877.29	22713
877.418	22744
877.546	22873
877.674	22713
877.802	22691
877.93	22713
878.058	22797
878.185	22569
878.313	22683
878.441	22892
878.568	22649
878.696	22618
878.824	22733
878.951	22740
879.079	23033
879.206	23079
879.333	22866
879.461	22763
879.588	22927
879.715	22847
879.842	22953
879.97	22854
880.097	22527
880.224	22474
880.351	22660
880.478	22592
880.605	22577
880.732	22592
880.859	22816
880.986	22675
881.112	22569
881.239	22417
881.366	22253
881.493	22265
881.619	22120
881.746	22177
881.872	22166
881.999	22188
882.125	22101
882.252	22162
882.378	22128
882.505	22230
882.631	21968
882.757	21892
882.883	22040
883.01	21846
883.136	21660
883.262	21633
883.388	21686
883.514	21861
883.64	21739
883.766	21709
883.892	21663
884.018	21595
884.143	21701
884.269	21835
884.395	21603
884.52	21466
884.646	21504
884.772	21443
884.897	21416
885.023	21504
885.148	21606
885.274	21709
885.399	21583
885.524	21500
885.65	21572
885.775	21557
885.9	21542
886.025	21572
886.15	21504
886.275	21496
886.4	21348
886.525	21481
886.65	21363
886.775	21325
886.9	21591
887.025	21686
887.149	21466
887.274	21294
887.399	21195
887.523	21287
887.648	21268
887.773	21146
887.897	21332
888.021	21264
888.146	21192
888.27	21397
888.395	21374
888.519	21241
888.643	21184
888.767	21332
888.891	21142
889.015	20990
889.139	20967
889.263	20937
889.387	21165
889.511	21230
889.635	21176
889.759	21039
889.883	20994
890.006	21081
890.13	21100
890.254	20952
890.377	20937
890.501	20811
890.624	20689
890.748	20804
890.871	20743
890.995	20697
891.118	20625
891.241	20632
891.364	20640
891.488	20689
891.611	20450
891.734	20625
891.857	20651
891.98	20564
892.103	20682
892.226	20682
892.349	20560
892.471	20389
892.594	20480
892.717	20602
892.839	20404
892.962	20442
893.085	20537
893.207	20415
893.33	20355
893.452	20389
893.575	20625
893.697	20446
893.819	20655
893.941	20720
894.064	20674
894.186	20473
894.308	20301
894.43	20575
894.552	20583
894.674	20590
894.796	20366
894.918	20400
895.04	20465
895.161	20514
895.283	20507
895.405	20450
895.526	20469
895.648	20469
895.769	20533
895.891	20511
896.012	20609
896.134	20450
896.255	20530
896.376	20358
896.498	20431
896.619	20503
896.74	20533
896.861	20412
896.982	20853
897.103	20979
897.224	20743
897.345	20750
897.466	20651
897.587	20594
897.708	20880
897.828	20651
897.949	20674
898.07	20541
898.19	20632
898.311	20765
898.431	20560
898.552	20609
898.672	20811
898.792	20743
898.913	20769
899.033	20541
899.153	20396
899.273	20320
899.393	20461
899.513	20560
899.633	20389
899.753	20431
899.873	20298
899.993	20454
900.113	20324
900.232	20408
900.352	20339
900.472	20286
900.591	20153
900.711	20172
900.83	20187
900.95	20218
901.069	20320
901.189	20012
901.308	19902
901.427	19871
901.546	19894
901.665	19852
901.784	19803
901.904	19655
902.023	19559
902.141	19232
902.26	19263
902.379	19434
902.498	19343
902.617	19312
902.735	19206
902.854	19141
902.973	19301
903.091	19034
903.21	18966
903.328	18920
903.446	18863
903.565	18852
903.683	18760
903.801	18684
903.919	18726
904.038	18650
904.156	18502
904.274	18661
904.392	18418
904.51	18445
904.627	18467
904.745	18544
904.863	18544
904.981	18395
905.098	18197
905.216	18182
905.334	18209
905.451	18148
905.569	18049
905.686	18197
905.803	18239
905.921	17939
906.038	17958
906.155	17908
906.272	17992
906.389	17874
906.506	17737
906.623	17771
906.74	17741
906.857	17684
906.974	17570
907.091	17783
907.208	17882
907.324	17680
907.441	17596
907.557	17554
907.674	17410
907.79	17368
907.907	17425
908.023	17417
908.139	17490
908.256	17482
908.372	17227
908.488	17223
908.604	17216
908.72	17174
908.836	17151
908.952	17098
909.068	17178
909.184	17284
909.3	17239
909.415	17140
909.531	17220
909.647	16919
909.762	16820
909.878	16809
909.993	16839
910.108	16805
910.224	16797
910.339	16885
910.454	16675
910.57	16634
910.685	16649
910.8	16873
910.915	16759
911.03	16656
911.145	16402
911.259	16481
911.374	16367
911.489	16284
911.604	16295
911.718	16124
911.833	16150
911.947	16013
912.062	16078
912.176	16109
912.291	16169
912.405	16128
912.519	16284
912.633	16341
912.748	16185
912.862	16090
912.976	16021
913.09	15903
913.204	15922
913.318	15983
913.431	16029
913.545	15895
913.659	16063
913.772	16036
913.886	15873
914	15774
914.113	15907
914.226	15953
914.34	15823
914.453	15751
914.566	15774
914.68	15686
914.793	15614
914.906	15485
915.019	15332
915.132	15420
915.245	15412
915.358	15363
915.47	15466
915.583	15401
915.696	15367
915.809	15485
915.921	15542
916.034	15313
916.146	15367
916.259	15184
916.371	15336
916.483	15272
916.595	15207
916.708	15249
916.82	15173
916.932	15241
917.044	15207
917.156	15097
917.268	15013
917.38	15039
917.491	14982
917.603	15131
917.715	15081
917.826	15157
917.938	15028
918.049	14796
918.161	14967
918.272	15131
918.384	15116
918.495	14941
918.606	14823
918.717	14701
918.828	14838
918.939	14762
919.05	14693
919.161	14781
919.272	14590
919.383	14625
919.494	14826
919.604	14956
919.715	14769
919.826	14625
919.936	14689
920.047	14750
920.157	14777
920.267	14944
920.378	14807
920.488	14743
920.598	14902
920.708	14910
920.818	14864
920.928	14921
921.038	15013
921.148	14960
921.258	14644
921.368	14613
921.477	14526
921.587	14450
921.697	14431
921.806	14438
921.916	14298
922.025	14233
922.134	14069
922.244	14145
922.353	14100
922.462	13997
922.571	13864
922.68	13784
922.789	13776
922.898	13742
923.007	13696
923.116	13685
923.224	13727
923.333	13799
923.442	13559
923.55	13514
923.659	13677
923.767	13609
923.876	13624
923.984	13559
924.092	13434
924.201	13525
924.309	13525
924.417	13480
924.525	13430
924.633	13358
924.741	14362
924.849	13194
924.956	13362
925.064	13244
925.172	13095
925.279	13122
925.387	13259
925.494	13141
925.602	13213
925.709	13160
925.816	13088
925.924	13088
926.031	13179
926.138	13046
926.245	13114
926.352	12985
926.459	13114
926.566	13133
926.673	13042
926.779	12947
926.886	12966
926.993	12711
927.099	12707
927.206	12642
927.312	12658
927.419	12722
927.525	12631
927.631	12719
927.737	12597
927.843	12597
927.95	12525
928.056	12597
928.162	12483
928.267	12555
928.373	13217
928.479	12532
928.585	12380
928.69	12395
928.796	12494
928.901	12418
929.007	12224
929.112	12277
929.218	12388
929.323	12350
929.428	12228
929.533	12323
929.638	12136
929.743	12213
929.848	12232
929.953	12213
930.058	12167
930.163	11923
930.267	11904
930.372	12060
930.477	11859
930.581	12072
930.685	11988
930.79	11843
930.894	11859
930.998	11813
931.103	11885
931.207	11570
931.311	11505
931.415	11364
931.519	11212
931.623	11223
