Data from test_V78500241_1462.txt Node
Date: Fri Mar 25 15:20:02 CST 2022
User: usil
Spectrometer: V785-0024
Trigger mode: 0
Integration Time (sec): 4.000000E-1
Scans to average: 1
Nonlinearity correction enabled: false
Boxcar width: 0
Storing dark spectrum: false
XAxis mode: Wavelengths
Number of Pixels in Spectrum: 1024
>>>>>Begin Spectral Data<<<<<
801.071	27964
801.214	27751
801.356	27492
801.499	27344
801.641	27496
801.783	27325
801.926	27351
802.068	27389
802.211	27336
802.353	27351
802.496	27070
802.638	27169
802.78	27047
802.923	27036
803.065	26914
803.208	26960
803.35	27112
803.492	27192
803.635	27237
803.777	27176
803.919	27230
804.061	27538
804.204	27252
804.346	27127
804.488	27066
804.63	27268
804.773	27146
804.915	27249
805.057	27363
805.199	27272
805.341	27268
805.483	27367
805.626	27321
805.768	27233
805.91	27321
806.052	27488
806.194	27252
806.336	27439
806.478	27462
806.62	27397
806.762	27538
806.904	27595
807.046	27838
807.188	27770
807.33	27903
807.472	27926
807.614	27808
807.756	27816
807.898	27679
808.04	27675
808.182	27622
808.324	27690
808.465	27595
808.607	27975
808.749	28048
808.891	28032
809.033	28272
809.174	28074
809.316	27953
809.458	27979
809.6	28101
809.741	28131
809.883	28154
810.025	28367
810.166	28268
810.308	28394
810.45	28348
810.591	28173
810.733	28086
810.875	28059
811.016	28021
811.158	27797
811.299	28166
811.441	28143
811.582	28135
811.724	28101
811.865	27972
812.007	28101
812.148	28029
812.29	28017
812.431	28276
812.573	28493
812.714	28341
812.855	28535
812.997	28736
813.138	28801
813.279	28538
813.421	28641
813.562	28611
813.703	28310
813.845	28382
813.986	27895
814.127	27793
814.268	27633
814.41	27865
814.551	27732
814.692	27869
814.833	27614
814.974	27709
815.115	27751
815.256	27542
815.397	27641
815.539	27553
815.68	27549
815.821	27462
815.962	27553
816.103	27511
816.244	27332
816.385	27294
816.526	27268
816.666	27123
816.807	27055
816.948	27112
817.089	27119
817.23	26975
817.371	27074
817.512	27024
817.653	27066
817.793	26902
817.934	27013
818.075	27108
818.216	27024
818.356	26940
818.497	26944
818.638	26670
818.778	26804
818.919	26720
819.06	26720
819.2	27001
819.341	26990
819.481	26937
819.622	27070
819.762	27325
819.903	27287
820.043	27169
820.184	27093
820.324	27089
820.465	27203
820.605	27066
820.746	27013
820.886	27043
821.026	27047
821.167	26960
821.307	27131
821.447	26967
821.588	26868
821.728	26754
821.868	26579
822.008	26427
822.149	26457
822.289	26419
822.429	26183
822.569	26103
822.709	26092
822.849	26111
822.99	25993
823.13	25887
823.27	25818
823.41	25791
823.55	25597
823.69	25696
823.83	25715
823.97	25635
824.11	25590
824.25	25544
824.389	25586
824.529	25742
824.669	25632
824.809	25780
824.949	25658
825.089	25776
825.228	25655
825.368	25449
825.508	25422
825.648	25483
825.787	25552
825.927	25521
826.067	25491
826.206	25411
826.346	25487
826.485	25533
826.625	25495
826.765	25575
826.904	25445
827.044	25289
827.183	25168
827.323	25187
827.462	25232
827.601	25148
827.741	25095
827.88	25137
828.02	25031
828.159	25103
828.298	25187
828.437	25247
828.577	25164
828.716	25365
828.855	25057
828.994	24973
829.134	24821
829.273	24977
829.412	24852
829.551	24722
829.69	24928
829.829	24856
829.968	24897
830.107	25004
830.246	24916
830.385	24829
830.524	24848
830.663	24669
830.802	24608
830.941	24540
831.08	24346
831.219	24661
831.357	24525
831.496	24658
831.635	24429
831.774	24418
831.913	24346
832.051	24281
832.19	24350
832.329	24315
832.467	24209
832.606	24121
832.744	24026
832.883	24087
833.022	24083
833.16	24026
833.299	24205
833.437	24152
833.576	24178
833.714	24213
833.852	24338
833.991	24258
834.129	24365
834.267	24346
834.406	24228
834.544	24334
834.682	24174
834.821	24178
834.959	24471
835.097	24102
835.235	24254
835.373	24133
835.511	24197
835.65	24049
835.788	24079
835.926	23897
836.064	23961
836.202	23832
836.34	24144
836.478	24083
836.615	24022
836.753	24098
836.891	24155
837.029	24163
837.167	24011
837.305	23942
837.443	23946
837.58	23794
837.718	23961
837.856	24003
837.993	23897
838.131	23908
838.269	23756
838.406	23813
838.544	23748
838.681	23429
838.819	23440
838.956	23242
839.094	23311
839.231	23436
839.369	23467
839.506	23843
839.643	23665
839.781	23250
839.918	23204
840.055	23303
840.193	23433
840.33	23208
840.467	23254
840.604	23254
840.742	23459
840.879	23071
841.016	23246
841.153	23022
841.29	23444
841.427	23174
841.564	23296
841.701	23170
841.838	23143
841.975	23254
842.112	23075
842.249	23025
842.385	23041
842.522	23098
842.659	22900
842.796	22995
842.933	23060
843.069	22957
843.206	23029
843.343	23105
843.479	22980
843.616	22976
843.752	22778
843.889	22828
844.025	23003
844.162	22763
844.298	22911
844.435	22793
844.571	22839
844.708	22675
844.844	22938
844.98	22965
845.117	22892
845.253	22774
845.389	22687
845.525	22626
845.661	22816
845.798	22466
845.934	22462
846.07	22508
846.206	22622
846.342	22649
846.478	22382
846.614	22363
846.75	22246
846.886	22322
847.022	22162
847.158	22310
847.294	22200
847.429	22363
847.565	22238
847.701	22405
847.837	21945
847.972	21926
848.108	21998
848.244	22116
848.379	21682
848.515	21785
848.65	21888
848.786	21854
848.921	21785
849.057	21983
849.192	21945
849.328	21888
849.463	21816
849.598	21812
849.734	21682
849.869	21728
850.004	21679
850.14	21583
850.275	21610
850.41	21576
850.545	21397
850.68	21686
850.815	21663
850.95	21625
851.085	21816
851.22	21739
851.355	21637
851.49	21591
851.625	21534
851.76	21549
851.895	21637
852.03	21477
852.165	21591
852.299	21629
852.434	21663
852.569	21686
852.703	21686
852.838	21778
852.973	21660
853.107	21709
853.242	21561
853.376	21511
853.511	21374
853.645	21363
853.78	21603
853.914	21447
854.048	21450
854.183	21340
854.317	21382
854.451	21591
854.585	21348
854.72	21477
854.854	21428
854.988	21283
855.122	21412
855.256	21241
855.39	21351
855.524	21447
855.658	21473
855.792	21363
855.926	21549
856.06	21595
856.194	21549
856.327	21321
856.461	21359
856.595	21454
856.729	21469
856.862	21583
856.996	21469
857.13	21458
857.263	21511
857.397	21576
857.53	21469
857.664	21408
857.797	21405
857.931	21443
858.064	21412
858.197	21439
858.331	21424
858.464	21393
858.597	21386
858.731	21374
858.864	21321
858.997	21329
859.13	21336
859.263	21443
859.396	21507
859.529	21431
859.662	21435
859.795	21249
859.928	21317
860.061	21519
860.194	21576
860.327	21504
860.46	21416
860.592	21694
860.725	21614
860.858	21625
860.99	21462
861.123	21294
861.256	21298
861.388	21374
861.521	22040
861.653	21329
861.786	21241
861.918	21279
862.05	21291
862.183	21389
862.315	21279
862.447	21401
862.58	21260
862.712	21192
862.844	21070
862.976	21222
863.108	21138
863.24	21504
863.372	21112
863.504	21138
863.636	21089
863.768	21039
863.9	21108
864.032	21047
864.164	21108
864.296	21077
864.428	21260
864.559	21241
864.691	21260
864.823	21127
864.954	21085
865.086	21055
865.217	21032
865.349	20914
865.48	21051
865.612	20963
865.743	21058
865.875	20895
866.006	20990
866.137	20975
866.269	21051
866.4	21017
866.531	21020
866.662	21001
866.793	21001
866.924	21135
867.055	20883
867.186	20979
867.317	20948
867.448	20906
867.579	20804
867.71	20830
867.841	20849
867.972	20971
868.103	20781
868.233	21093
868.364	20838
868.495	20979
868.625	21135
868.756	21393
868.886	21138
869.017	21218
869.147	21294
869.278	21344
869.408	21123
869.539	21150
869.669	21310
869.799	21233
869.929	21389
870.06	21287
870.19	21466
870.32	21450
870.45	21458
870.58	21500
870.71	21690
870.84	21724
870.97	21599
871.1	21660
871.23	21835
871.36	21789
871.489	21652
871.619	21660
871.749	21838
871.879	21743
872.008	21918
872.138	21739
872.267	21816
872.397	21572
872.526	21576
872.656	21549
872.785	21652
872.915	21827
873.044	21857
873.173	21770
873.303	21831
873.432	21778
873.561	21899
873.69	21838
873.819	21736
873.948	21770
874.077	21778
874.206	21720
874.335	21770
874.464	21861
874.593	21949
874.722	21930
874.851	22070
874.979	21991
875.108	22063
875.237	22093
875.365	21941
875.494	21895
875.623	22120
875.751	21949
875.88	22097
876.008	22162
876.136	22158
876.265	22478
876.393	22519
876.521	22592
876.65	22485
876.778	22470
876.906	22295
877.034	22398
877.162	22291
877.29	22287
877.418	22363
877.546	22344
877.674	22394
877.802	22287
877.93	22303
878.058	22356
878.185	22230
878.313	22303
878.441	22215
878.568	22192
878.696	22291
878.824	22493
878.951	22451
879.079	22402
879.206	22618
879.333	22504
879.461	22322
879.588	22432
879.715	22493
879.842	22706
879.97	22409
880.097	22246
880.224	22082
880.351	22215
880.478	22295
880.605	22105
880.732	22131
880.859	22470
880.986	22097
881.112	22166
881.239	22120
881.366	21926
881.493	21865
881.619	21679
881.746	21789
881.872	21709
881.999	21629
882.125	21774
882.252	21819
882.378	21698
882.505	21717
882.631	21713
882.757	21538
882.883	21511
883.01	21405
883.136	21291
883.262	21397
883.388	21291
883.514	21583
883.64	21431
883.766	21450
883.892	21252
884.018	21245
884.143	21443
884.269	21466
884.395	21108
884.52	21081
884.646	21108
884.772	21116
884.897	20952
885.023	21188
885.148	21184
885.274	21188
885.399	21138
885.524	20982
885.65	21081
885.775	20998
885.9	21058
886.025	21074
886.15	21169
886.275	21032
886.4	20967
886.525	21009
886.65	21112
886.775	21058
886.9	21123
887.025	21291
887.149	21062
887.274	20861
887.399	20785
887.523	20815
887.648	20777
887.773	20868
887.897	20868
888.021	20868
888.146	20815
888.27	21020
888.395	20982
888.519	20880
888.643	20750
888.767	20899
888.891	20826
889.015	20720
889.139	20640
889.263	20667
889.387	20826
889.511	20815
889.635	20724
889.759	20568
889.883	20762
890.006	20613
890.13	20773
890.254	20587
890.377	20587
890.501	20454
890.624	20461
890.748	20465
890.871	20278
890.995	20263
891.118	20240
891.241	20153
891.364	20339
891.488	20305
891.611	20176
891.734	20263
891.857	20298
891.98	20320
892.103	20199
892.226	20046
892.349	20237
892.471	20020
892.594	20206
892.717	20172
892.839	20142
892.962	20096
893.085	20168
893.207	20126
893.33	19970
893.452	20005
893.575	20233
893.697	20248
893.819	20248
893.941	20225
894.064	20210
894.186	20092
894.308	20020
894.43	20221
894.552	20229
894.674	20214
894.796	20073
894.918	20126
895.04	20164
895.161	20138
895.283	20153
895.405	20035
895.526	20035
895.648	20100
895.769	20161
895.891	20119
896.012	20183
896.134	20172
896.255	20046
896.376	20016
896.498	20107
896.619	20176
896.74	20134
896.861	20096
896.982	20400
897.103	20575
897.224	20533
897.345	20358
897.466	20271
897.587	20252
897.708	20450
897.828	20408
897.949	20298
898.07	20111
898.19	20157
898.311	20427
898.431	20278
898.552	20355
898.672	20446
898.792	20347
898.913	20317
899.033	20218
899.153	20164
899.273	20054
899.393	20126
899.513	20122
899.633	20096
899.753	20031
899.873	19997
899.993	20142
900.113	20031
900.232	20096
900.352	20062
900.472	19837
900.591	19814
900.711	19871
900.83	19864
900.95	19898
901.069	19951
901.189	19791
901.308	19582
901.427	19472
901.546	19457
901.665	19552
901.784	19548
901.904	19312
902.023	19228
902.141	19091
902.26	19019
902.379	19137
902.498	19008
902.617	19023
902.735	19019
902.854	18985
902.973	18859
903.091	18650
903.21	18673
903.328	18631
903.446	18612
903.565	18509
903.683	18471
903.801	18327
903.919	18357
904.038	18464
904.156	18353
904.274	18311
904.392	18190
904.51	18190
904.627	18243
904.745	18273
904.863	18304
904.981	17999
905.098	17935
905.216	17847
905.334	17988
905.451	17798
905.569	17821
905.686	17897
905.803	17897
905.921	17748
906.038	17729
906.155	17665
906.272	17562
906.389	17547
906.506	17440
906.623	17395
906.74	17520
906.857	17402
906.974	17425
907.091	17436
907.208	17440
907.324	17490
907.441	17311
907.557	17223
907.674	17140
907.79	17037
907.907	17231
908.023	17208
908.139	17071
908.256	17056
908.372	17075
908.488	17025
908.604	16938
908.72	16862
908.836	16755
908.952	16824
909.068	16847
909.184	16984
909.3	16740
909.415	16835
909.531	16915
909.647	16592
909.762	16500
909.878	16622
909.993	16611
910.108	16611
910.224	16443
910.339	16508
910.454	16455
910.57	16284
910.685	16268
910.8	16561
910.915	16485
911.03	16325
911.145	16200
911.259	16055
911.374	16219
911.489	16093
911.604	16002
911.718	15892
911.833	15850
911.947	15857
912.062	15652
912.176	15835
912.291	15945
912.405	15819
912.519	16036
912.633	16139
912.748	15842
912.862	15800
912.976	15663
913.09	15701
913.204	15591
913.318	15732
913.431	15759
913.545	15835
913.659	15888
913.772	15599
913.886	15549
914	15553
914.113	15530
914.226	15652
914.34	15561
914.453	15389
914.566	15690
914.68	15439
914.793	15424
914.906	15230
915.019	15001
915.132	15070
915.245	15112
915.358	15077
915.47	15085
915.583	15055
915.696	15188
915.809	15161
915.921	15207
916.034	15085
916.146	15043
916.259	15005
916.371	15085
916.483	15028
916.595	14914
916.708	14895
916.82	15024
916.932	14960
917.044	14933
917.156	14864
917.268	14765
917.38	14804
917.491	14781
917.603	14842
917.715	14861
917.826	14861
917.938	14811
918.049	14629
918.161	14743
918.272	14902
918.384	14853
918.495	14800
918.606	14568
918.717	14552
918.828	14552
918.939	14648
919.05	14499
919.161	14473
919.272	14362
919.383	14396
919.494	14606
919.604	14636
919.715	14473
919.826	14362
919.936	14503
920.047	14606
920.157	14465
920.267	14632
920.378	14465
920.488	14343
920.598	14724
920.708	14788
920.818	14655
920.928	14610
921.038	14769
921.148	14705
921.258	14434
921.368	14358
921.477	14237
921.587	14347
921.697	14126
921.806	14229
921.916	14069
922.025	13913
922.134	13902
922.244	13784
922.353	13936
922.462	13738
922.571	13704
922.68	13521
922.789	13609
922.898	13597
923.007	13335
923.116	13567
923.224	13540
923.333	13468
923.442	13434
923.55	13251
923.659	13304
923.767	13430
923.876	13263
923.984	13430
924.092	13327
924.201	13335
924.309	13285
924.417	13270
924.525	13137
924.633	13255
924.741	13913
924.849	12962
924.956	13133
925.064	12989
925.172	12935
925.279	12833
925.387	12977
925.494	12867
925.602	13034
925.709	13012
925.816	12878
925.924	12852
926.031	12932
926.138	12909
926.245	12859
926.352	12806
926.459	12947
926.566	12890
926.673	12779
926.779	12726
926.886	12627
926.993	12604
927.099	12517
927.206	12441
927.312	12464
927.419	12593
927.525	12429
927.631	12517
927.737	12483
927.843	12407
927.95	12251
928.056	12266
928.162	12327
928.267	12338
928.373	12924
928.479	12429
928.585	12182
928.69	12277
928.796	12300
928.901	12239
929.007	12121
929.112	12125
929.218	12190
929.323	12178
929.428	12121
929.533	12175
929.638	12045
929.743	12015
929.848	12015
929.953	11958
930.058	11859
930.163	11748
930.267	11821
930.372	11882
930.477	11718
930.581	11935
930.685	11836
930.79	11608
930.894	11703
930.998	11623
931.103	11767
931.207	11440
931.311	11322
931.415	11265
931.519	11045
931.623	11022
