Data from test_V78500241_2553.txt Node
Date: Fri Mar 25 15:27:38 CST 2022
User: usil
Spectrometer: V785-0024
Trigger mode: 0
Integration Time (sec): 4.000000E-1
Scans to average: 1
Nonlinearity correction enabled: false
Boxcar width: 0
Storing dark spectrum: false
XAxis mode: Wavelengths
Number of Pixels in Spectrum: 1024
>>>>>Begin Spectral Data<<<<<
801.071	27180
801.214	27408
801.356	27112
801.499	26918
801.641	26792
801.783	26746
801.926	26937
802.068	26853
802.211	26686
802.353	26693
802.496	26514
802.638	26476
802.78	26484
802.923	26453
803.065	26301
803.208	26438
803.35	26541
803.492	26598
803.635	26735
803.777	26564
803.919	26545
804.061	27085
804.204	26781
804.346	26594
804.488	26476
804.63	26697
804.773	26503
804.915	26575
805.057	26621
805.199	26583
805.341	26708
805.483	26716
805.626	26708
805.768	26606
805.91	26708
806.052	26743
806.194	26636
806.336	26937
806.478	26857
806.62	26781
806.762	26864
806.904	26921
807.046	27116
807.188	27127
807.33	27032
807.472	27195
807.614	27256
807.756	27074
807.898	26876
808.04	26990
808.182	26948
808.324	27028
808.465	27036
808.607	27184
808.749	27317
808.891	27412
809.033	27515
809.174	27302
809.316	27348
809.458	27363
809.6	27230
809.741	27389
809.883	27485
810.025	27698
810.166	27644
810.308	27599
810.45	27652
810.591	27473
810.733	27272
810.875	27287
811.016	27188
811.158	27241
811.299	27443
811.441	27424
811.582	27515
811.724	27351
811.865	27393
812.007	27256
812.148	27386
812.29	27336
812.431	27367
812.573	27606
812.714	27564
812.855	27857
812.997	28013
813.138	27979
813.279	27869
813.421	27865
813.562	27797
813.703	27603
813.845	27340
813.986	27260
814.127	27195
814.268	27020
814.41	27062
814.551	26963
814.692	26998
814.833	26937
814.974	26960
815.115	26925
815.256	26834
815.397	26864
815.539	26845
815.68	26693
815.821	26769
815.962	26826
816.103	26823
816.244	26564
816.385	26427
816.526	26423
816.666	26404
816.807	26153
816.948	26317
817.089	26484
817.23	26218
817.371	26317
817.512	26248
817.653	26218
817.793	26138
817.934	26263
818.075	26324
818.216	26313
818.356	26240
818.497	26119
818.638	25959
818.778	25917
818.919	25974
819.06	26065
819.2	26069
819.341	26259
819.481	26237
819.622	26408
819.762	26446
819.903	26385
820.043	26465
820.184	26343
820.324	26355
820.465	26347
820.605	26301
820.746	26453
820.886	26191
821.026	26195
821.167	26229
821.307	26339
821.447	26290
821.588	26039
821.728	26012
821.868	25849
822.008	25685
822.149	25837
822.289	25719
822.429	25559
822.569	25449
822.709	25472
822.849	25175
822.99	25297
823.13	25232
823.27	25164
823.41	25145
823.55	24939
823.69	24977
823.83	25114
823.97	25031
824.11	24913
824.25	24856
824.389	24760
824.529	24795
824.669	24829
824.809	25038
824.949	24970
825.089	24954
825.228	24776
825.368	24719
825.508	24719
825.648	24719
825.787	24795
825.927	24783
826.067	24673
826.206	24719
826.346	24677
826.485	24798
826.625	24745
826.765	24764
826.904	24707
827.044	24505
827.183	24623
827.323	24353
827.462	24608
827.601	24479
827.741	24437
827.88	24395
828.02	24353
828.159	24391
828.298	24498
828.437	24566
828.577	24410
828.716	24589
828.855	24262
828.994	24186
829.134	24190
829.273	24133
829.412	24159
829.551	24022
829.69	24121
829.829	24197
829.968	24228
830.107	24285
830.246	24201
830.385	24110
830.524	24060
830.663	23916
830.802	23821
830.941	23805
831.08	23726
831.219	23836
831.357	23798
831.496	24117
831.635	23703
831.774	23809
831.913	23752
832.051	23547
832.19	23547
832.329	23566
832.467	23353
832.606	23429
832.744	23372
832.883	23337
833.022	23421
833.16	23478
833.299	23570
833.437	23471
833.576	23558
833.714	23528
833.852	23573
833.991	23554
834.129	23657
834.267	23562
834.406	23558
834.544	23547
834.682	23505
834.821	23474
834.959	23764
835.097	23512
835.235	23634
835.373	23444
835.511	23444
835.65	23341
835.788	23440
835.926	23208
836.064	23246
836.202	23208
836.34	23360
836.478	23444
836.615	23337
836.753	23425
836.891	23315
837.029	23353
837.167	23189
837.305	23147
837.443	23303
837.58	23159
837.718	23250
837.856	23273
837.993	23010
838.131	23098
838.269	23025
838.406	23254
838.544	23060
838.681	22854
838.819	22896
838.956	22691
839.094	22736
839.231	22725
839.369	22976
839.506	23083
839.643	22866
839.781	22721
839.918	22694
840.055	22691
840.193	22790
840.33	22706
840.467	22607
840.604	22748
840.742	22889
840.879	22451
841.016	22580
841.153	22603
841.29	22649
841.427	22653
841.564	22729
841.701	22622
841.838	22554
841.975	22618
842.112	22557
842.249	22554
842.385	22569
842.522	22782
842.659	22519
842.796	22447
842.933	22386
843.069	22405
843.206	22284
843.343	22481
843.479	22542
843.616	22257
843.752	22200
843.889	22352
844.025	22238
844.162	22230
844.298	22230
844.435	22204
844.571	22112
844.708	22135
844.844	22325
844.98	22337
845.117	22253
845.253	22166
845.389	22112
845.525	22105
845.661	22055
845.798	21895
845.934	21994
846.07	21804
846.206	21949
846.342	22124
846.478	21903
846.614	21641
846.75	21614
846.886	21663
847.022	21705
847.158	21519
847.294	21656
847.429	21622
847.565	21542
847.701	21831
847.837	21378
847.972	21408
848.108	21458
848.244	21424
848.379	21264
848.515	21325
848.65	21203
848.786	21161
848.921	21192
849.057	21428
849.192	21344
849.328	21222
849.463	21260
849.598	21138
849.734	21188
849.869	21001
850.004	20944
850.14	20929
850.275	21081
850.41	20914
850.545	20979
850.68	20914
850.815	21032
850.95	20998
851.085	21104
851.22	21043
851.355	21058
851.49	20986
851.625	20906
851.76	20963
851.895	21096
852.03	21005
852.165	20933
852.299	20979
852.434	21184
852.569	21154
852.703	21032
852.838	21036
852.973	21032
853.107	21096
853.242	21001
853.376	20731
853.511	20849
853.645	20819
853.78	20880
853.914	20906
854.048	20716
854.183	20861
854.317	20811
854.451	20891
854.585	20883
854.72	20785
854.854	20937
854.988	20693
855.122	20724
855.256	20712
855.39	20773
855.524	21036
855.658	20944
855.792	20811
855.926	20819
856.06	20819
856.194	20842
856.327	20845
856.461	20857
856.595	20705
856.729	20750
856.862	20910
856.996	20792
857.13	20777
857.263	21020
857.397	20883
857.53	20826
857.664	20872
857.797	20819
857.931	20861
858.064	20819
858.197	20967
858.331	20788
858.464	20701
858.597	20689
858.731	20823
858.864	20765
858.997	20815
859.13	20899
859.263	20781
859.396	21096
859.529	20792
859.662	20815
859.795	20682
859.928	20826
860.061	21043
860.194	21070
860.327	20883
860.46	20823
860.592	20918
860.725	21017
860.858	21009
860.99	20918
861.123	20746
861.256	20769
861.388	20777
861.521	21473
861.653	20720
861.786	20571
861.918	20689
862.05	20720
862.183	20701
862.315	20746
862.447	20876
862.58	20765
862.712	20511
862.844	20419
862.976	20659
863.108	20621
863.24	20952
863.372	20537
863.504	20613
863.636	20530
863.768	20640
863.9	20629
864.032	20450
864.164	20454
864.296	20640
864.428	20648
864.559	20724
864.691	20579
864.823	20632
864.954	20552
865.086	20484
865.217	20408
865.349	20385
865.48	20454
865.612	20499
865.743	20461
865.875	20492
866.006	20351
866.137	20457
866.269	20488
866.4	20298
866.531	20488
866.662	20446
866.793	20366
866.924	20351
867.055	20419
867.186	20499
867.317	20317
867.448	20298
867.579	20358
867.71	20343
867.841	20240
867.972	20412
868.103	20374
868.233	20400
868.364	20381
868.495	20461
868.625	20571
868.756	20921
868.886	20473
869.017	20640
869.147	20693
869.278	20792
869.408	20701
869.539	20602
869.669	20556
869.799	20594
869.929	20861
870.06	20777
870.19	20887
870.32	20906
870.45	20925
870.58	21055
870.71	21192
870.84	21135
870.97	20990
871.1	21051
871.23	21176
871.36	21351
871.489	21241
871.619	21203
871.749	21142
871.879	21176
872.008	21294
872.138	21161
872.267	21154
872.397	21085
872.526	20986
872.656	21119
872.785	21112
872.915	21268
873.044	21233
873.173	21131
873.303	21351
873.432	21298
873.561	21348
873.69	21218
873.819	21283
873.948	21249
874.077	21291
874.206	21272
874.335	21279
874.464	21329
874.593	21488
874.722	21496
874.851	21526
874.979	21496
875.108	21431
875.237	21469
875.365	21405
875.494	21561
875.623	21469
875.751	21397
875.88	21549
876.008	21583
876.136	21698
876.265	21857
876.393	21998
876.521	21972
876.65	21998
876.778	21861
876.906	21804
877.034	21759
877.162	21838
877.29	21778
877.418	21861
877.546	21827
877.674	21842
877.802	21785
877.93	21865
878.058	21732
878.185	21751
878.313	21755
878.441	21831
878.568	21614
878.696	21720
878.824	21907
878.951	21873
879.079	22124
879.206	22010
879.333	21972
879.461	21979
879.588	21926
879.715	21915
879.842	22101
879.97	21869
880.097	21637
880.224	21663
880.351	21671
880.478	21656
880.605	21648
880.732	21728
880.859	21888
880.986	21778
881.112	21625
881.239	21580
881.366	21439
881.493	21393
881.619	21245
881.746	21382
881.872	21252
881.999	21135
882.125	21222
882.252	21374
882.378	21245
882.505	21279
882.631	21146
882.757	20994
882.883	21085
883.01	20887
883.136	20864
883.262	20739
883.388	20746
883.514	20921
883.64	20899
883.766	20971
883.892	20663
884.018	20720
884.143	20880
884.269	20982
884.395	20629
884.52	20655
884.646	20598
884.772	20533
884.897	20560
885.023	20609
885.148	20648
885.274	20712
885.399	20674
885.524	20613
885.65	20579
885.775	20629
885.9	20613
886.025	20712
886.15	20587
886.275	20564
886.4	20571
886.525	20587
886.65	20514
886.775	20423
886.9	20640
887.025	20739
887.149	20583
887.274	20389
887.399	20305
887.523	20488
887.648	20351
887.773	20237
887.897	20522
888.021	20347
888.146	20355
888.27	20522
888.395	20393
888.519	20298
888.643	20408
888.767	20450
888.891	20256
889.015	20153
889.139	20218
889.263	20195
889.387	20309
889.511	20431
889.635	20339
889.759	20130
889.883	20161
890.006	20142
890.13	20339
890.254	20210
890.377	20081
890.501	19906
890.624	19871
890.748	20005
890.871	19833
890.995	19833
891.118	19704
891.241	19814
891.364	19723
891.488	19898
891.611	19833
891.734	19795
891.857	19750
891.98	19807
892.103	19788
892.226	19780
892.349	19791
892.471	19540
892.594	19681
892.717	19788
892.839	19632
892.962	19715
893.085	19772
893.207	19746
893.33	19613
893.452	19518
893.575	19746
893.697	19571
893.819	19807
893.941	19868
894.064	19704
894.186	19632
894.308	19601
894.43	19799
894.552	19890
894.674	19723
894.796	19514
894.918	19559
895.04	19700
895.161	19761
895.283	19643
895.405	19651
895.526	19628
895.648	19628
895.769	19689
895.891	19738
896.012	19674
896.134	19674
896.255	19727
896.376	19601
896.498	19651
896.619	19651
896.74	19689
896.861	19746
896.982	19963
897.103	20107
897.224	19822
897.345	19925
897.466	19757
897.587	19898
897.708	20058
897.828	19890
897.949	19902
898.07	19727
898.19	19864
898.311	19925
898.431	19871
898.552	19852
898.672	20020
898.792	19967
898.913	19890
899.033	19784
899.153	19719
899.273	19666
899.393	19559
899.513	19693
899.633	19639
899.753	19662
899.873	19662
899.993	19670
900.113	19533
900.232	19609
900.352	19449
900.472	19457
900.591	19316
900.711	19472
900.83	19396
900.95	19415
901.069	19548
901.189	19331
901.308	19076
901.427	18943
901.546	19107
901.665	18943
901.784	19012
901.904	18981
902.023	18829
902.141	18608
902.26	18502
902.379	18593
902.498	18528
902.617	18601
902.735	18513
902.854	18429
902.973	18494
903.091	18323
903.21	18273
903.328	18190
903.446	18159
903.565	17992
903.683	18083
903.801	17961
903.919	17946
904.038	17916
904.156	17802
904.274	17809
904.392	17817
904.51	17813
904.627	17779
904.745	17824
904.863	17870
904.981	17581
905.098	17433
905.216	17433
905.334	17512
905.451	17516
905.569	17433
905.686	17535
905.803	17425
905.921	17261
906.038	17387
906.155	17231
906.272	17109
906.389	17166
906.506	17014
906.623	17003
906.74	16934
906.857	16957
906.974	16953
907.091	17060
907.208	17117
907.324	17185
907.441	16900
907.557	16805
907.674	16812
907.79	16736
907.907	16672
908.023	16755
908.139	16622
908.256	16664
908.372	16538
908.488	16641
908.604	16516
908.72	16428
908.836	16428
908.952	16440
909.068	16481
909.184	16599
909.3	16382
909.415	16569
909.531	16386
909.647	16249
909.762	16211
909.878	16185
909.993	16204
910.108	16124
910.224	16109
910.339	16135
910.454	15968
910.57	15998
910.685	15873
910.8	16105
910.915	16048
911.03	15949
911.145	15797
911.259	15778
911.374	15743
911.489	15610
911.604	15591
911.718	15538
911.833	15557
911.947	15355
912.062	15439
912.176	15568
912.291	15549
912.405	15584
912.519	15720
912.633	15701
912.748	15511
912.862	15397
912.976	15321
913.09	15275
913.204	15291
913.318	15279
913.431	15412
913.545	15408
913.659	15435
913.772	15370
913.886	15203
914	15047
914.113	15184
914.226	15306
914.34	15260
914.453	15058
914.566	15245
914.68	14975
914.793	15005
914.906	14705
915.019	14785
915.132	14712
915.245	14674
915.358	14834
915.47	14785
915.583	14693
915.696	14712
915.809	14765
915.921	14785
916.034	14682
916.146	14754
916.259	14560
916.371	14739
916.483	14750
916.595	14632
916.708	14575
916.82	14606
916.932	14625
917.044	14549
917.156	14674
917.268	14419
917.38	14442
917.491	14393
917.603	14431
917.715	14450
917.826	14514
917.938	14423
918.049	14259
918.161	14358
918.272	14499
918.384	14499
918.495	14324
918.606	14210
918.717	14107
918.828	14138
918.939	14134
919.05	14111
919.161	14191
919.272	14020
919.383	14096
919.494	14195
919.604	14511
919.715	14206
919.826	14050
919.936	14183
920.047	14164
920.157	14218
920.267	14305
920.378	14161
920.488	14050
920.598	14393
920.708	14393
920.818	14263
920.928	14240
921.038	14377
921.148	14381
921.258	14161
921.368	13898
921.477	13894
921.587	13906
921.697	13723
921.806	13864
921.916	13818
922.025	13628
922.134	13510
922.244	13548
922.353	13567
922.462	13525
922.571	13426
922.68	13202
922.789	13156
922.898	13259
923.007	13175
923.116	13289
923.224	13084
923.333	13107
923.442	13008
923.55	13038
923.659	13095
923.767	13118
923.876	12985
923.984	13057
924.092	12924
924.201	12871
924.309	12970
924.417	12901
924.525	12935
924.633	12878
924.741	13830
924.849	12745
924.956	12825
925.064	12665
925.172	12570
925.279	12612
925.387	12642
925.494	12719
925.602	12749
925.709	12738
925.816	12517
925.924	12635
926.031	12711
926.138	12604
926.245	12658
926.352	12525
926.459	12639
926.566	12715
926.673	12475
926.779	12395
926.886	12437
926.993	12251
927.099	12304
927.206	12140
927.312	12243
927.419	12186
927.525	12171
927.631	12175
927.737	12114
927.843	12057
927.95	12007
928.056	12022
928.162	12038
928.267	12076
928.373	12711
928.479	12102
928.585	11927
928.69	12060
928.796	12060
928.901	11870
929.007	11779
929.112	11901
929.218	11832
929.323	11824
929.428	11802
929.533	11882
929.638	11710
929.743	11756
929.848	11779
929.953	11714
930.058	11532
930.163	11425
930.267	11440
930.372	11535
930.477	11448
930.581	11672
930.685	11478
930.79	11345
930.894	11383
930.998	11383
931.103	11406
931.207	11067
931.311	11033
931.415	10942
931.519	10687
931.623	10889
