Data from test_V78500241_3351.txt Node
Date: Fri Mar 25 15:33:11 CST 2022
User: usil
Spectrometer: V785-0024
Trigger mode: 0
Integration Time (sec): 4.000000E-1
Scans to average: 1
Nonlinearity correction enabled: false
Boxcar width: 0
Storing dark spectrum: false
XAxis mode: Wavelengths
Number of Pixels in Spectrum: 1024
>>>>>Begin Spectral Data<<<<<
801.071	27043
801.214	27043
801.356	26804
801.499	26689
801.641	26625
801.783	26701
801.926	26663
802.068	26670
802.211	26640
802.353	26644
802.496	26408
802.638	26275
802.78	26210
802.923	26210
803.065	26161
803.208	26199
803.35	26187
803.492	26419
803.635	26408
803.777	26328
803.919	26351
804.061	26678
804.204	26457
804.346	26122
804.488	26221
804.63	26385
804.773	26408
804.915	26412
805.057	26412
805.199	26278
805.341	26400
805.483	26674
805.626	26530
805.768	26351
805.91	26533
806.052	26495
806.194	26290
806.336	26606
806.478	26526
806.62	26450
806.762	26526
806.904	26678
807.046	26994
807.188	26887
807.33	26925
807.472	26788
807.614	26807
807.756	27017
807.898	26636
808.04	26670
808.182	26659
808.324	26697
808.465	26868
808.607	26956
808.749	27032
808.891	27157
809.033	27203
809.174	27154
809.316	27020
809.458	27077
809.6	27001
809.741	27142
809.883	27154
810.025	27325
810.166	27302
810.308	27374
810.45	27294
810.591	27214
810.733	27051
810.875	27013
811.016	26979
811.158	27001
811.299	27222
811.441	27161
811.582	27150
811.724	27024
811.865	27066
812.007	27131
812.148	26937
812.29	26910
812.431	27165
812.573	27268
812.714	27435
812.855	27504
812.997	27488
813.138	27751
813.279	27663
813.421	27519
813.562	27473
813.703	27302
813.845	27192
813.986	26994
814.127	26765
814.268	26678
814.41	26712
814.551	26720
814.692	26758
814.833	26648
814.974	26549
815.115	26830
815.256	26583
815.397	26583
815.539	26625
815.68	26427
815.821	26381
815.962	26450
816.103	26377
816.244	26271
816.385	26301
816.526	26195
816.666	26031
816.807	25883
816.948	25940
817.089	25997
817.23	26005
817.371	25894
817.512	25917
817.653	25860
817.793	25864
817.934	26008
818.075	25974
818.216	25932
818.356	25799
818.497	25746
818.638	25605
818.778	25734
818.919	25674
819.06	25833
819.2	25670
819.341	25936
819.481	25959
819.622	26206
819.762	26290
819.903	26153
820.043	26134
820.184	26130
820.324	26084
820.465	26092
820.605	26008
820.746	25993
820.886	25936
821.026	26031
821.167	26024
821.307	26046
821.447	25879
821.588	25868
821.728	25727
821.868	25514
822.008	25388
822.149	25346
822.289	25419
822.429	25251
822.569	25145
822.709	24985
822.849	24882
822.99	24992
823.13	24863
823.27	24916
823.41	24703
823.55	24711
823.69	24757
823.83	24825
823.97	24639
824.11	24555
824.25	24540
824.389	24589
824.529	24635
824.669	24479
824.809	24505
824.949	24559
825.089	24589
825.228	24688
825.368	24426
825.508	24350
825.648	24479
825.787	24300
825.927	24566
826.067	24395
826.206	24376
826.346	24494
826.485	24486
826.625	24414
826.765	24559
826.904	24384
827.044	24220
827.183	24152
827.323	23969
827.462	24182
827.601	24087
827.741	24110
827.88	24239
828.02	24049
828.159	24095
828.298	24049
828.437	24110
828.577	24114
828.716	24201
828.855	24076
828.994	23699
829.134	23794
829.273	23870
829.412	23786
829.551	23794
829.69	23802
829.829	23726
829.968	23942
830.107	23779
830.246	23874
830.385	23767
830.524	23946
830.663	23627
830.802	23615
830.941	23543
831.08	23353
831.219	23444
831.357	23486
831.496	23608
831.635	23436
831.774	23417
831.913	23520
832.051	23265
832.19	23277
832.329	23159
832.467	23166
832.606	23029
832.744	23117
832.883	23086
833.022	23216
833.16	23147
833.299	23037
833.437	23174
833.576	23258
833.714	23216
833.852	23200
833.991	23185
834.129	23227
834.267	23311
834.406	23197
834.544	23292
834.682	23220
834.821	23204
834.959	23356
835.097	23132
835.235	23193
835.373	23143
835.511	23094
835.65	22968
835.788	23083
835.926	23056
836.064	22919
836.202	22991
836.34	22995
836.478	23212
836.615	23025
836.753	23083
836.891	23208
837.029	23029
837.167	23044
837.305	23086
837.443	22927
837.58	22889
837.718	22976
837.856	22949
837.993	22793
838.131	22877
838.269	22885
838.406	22809
838.544	22687
838.681	22675
838.819	22508
838.956	22417
839.094	22413
839.231	22379
839.369	22664
839.506	22767
839.643	22630
839.781	22504
839.918	22337
840.055	22447
840.193	22325
840.33	22348
840.467	22238
840.604	22443
840.742	22615
840.879	22158
841.016	22314
841.153	22215
841.29	22394
841.427	22287
841.564	22470
841.701	22310
841.838	22185
841.975	22169
842.112	22158
842.249	22124
842.385	22078
842.522	22268
842.659	22192
842.796	22135
842.933	22105
843.069	22093
843.206	22048
843.343	22055
843.479	22105
843.616	22082
843.752	21892
843.889	21949
844.025	21972
844.162	21907
844.298	21915
844.435	21854
844.571	21709
844.708	21865
844.844	22116
844.98	21888
845.117	22025
845.253	21759
845.389	21774
845.525	21762
845.661	21732
845.798	21637
845.934	21705
846.07	21603
846.206	21682
846.342	21660
846.478	21591
846.614	21420
846.75	21237
846.886	21458
847.022	21378
847.158	21424
847.294	21249
847.429	21313
847.565	21317
847.701	21511
847.837	21116
847.972	21028
848.108	21146
848.244	21256
848.379	20937
848.515	20845
848.65	20880
848.786	20952
848.921	21017
849.057	21055
849.192	20963
849.328	20937
849.463	20963
849.598	20975
849.734	20895
849.869	20712
850.004	20636
850.14	20868
850.275	20758
850.41	20648
850.545	20651
850.68	20651
850.815	20758
850.95	20712
851.085	20937
851.22	20804
851.355	20644
851.49	20625
851.625	20689
851.76	20636
851.895	20587
852.03	20579
852.165	20693
852.299	20708
852.434	20750
852.569	20663
852.703	20708
852.838	20853
852.973	20804
853.107	20906
853.242	20629
853.376	20469
853.511	20396
853.645	20537
853.78	20629
853.914	20461
854.048	20427
854.183	20537
854.317	20484
854.451	20872
854.585	20556
854.72	20503
854.854	20686
854.988	20324
855.122	20655
855.256	20351
855.39	20495
855.524	20640
855.658	20541
855.792	20556
855.926	20522
856.06	20621
856.194	20541
856.327	20484
856.461	20480
856.595	20393
856.729	20450
856.862	20511
856.996	20571
857.13	20644
857.263	20568
857.397	20613
857.53	20533
857.664	20499
857.797	20583
857.931	20644
858.064	20415
858.197	20621
858.331	20598
858.464	20446
858.597	20442
858.731	20454
858.864	20507
858.997	20579
859.13	20408
859.263	20583
859.396	20617
859.529	20488
859.662	20442
859.795	20587
859.928	20625
860.061	20670
860.194	20697
860.327	20571
860.46	20549
860.592	20720
860.725	20621
860.858	20674
860.99	20560
861.123	20492
861.256	20469
861.388	20598
861.521	21249
861.653	20358
861.786	20313
861.918	20396
862.05	20450
862.183	20492
862.315	20560
862.447	20545
862.58	20336
862.712	20332
862.844	20259
862.976	20366
863.108	20301
863.24	20746
863.372	20176
863.504	20195
863.636	20229
863.768	20339
863.9	20366
864.032	20096
864.164	20199
864.296	20267
864.428	20389
864.559	20324
864.691	20290
864.823	20301
864.954	20153
865.086	20199
865.217	20248
865.349	20065
865.48	20153
865.612	20103
865.743	20301
865.875	20176
866.006	20142
866.137	20149
866.269	20081
866.4	20100
866.531	20046
866.662	20157
866.793	20024
866.924	20058
867.055	20278
867.186	20092
867.317	20164
867.448	19989
867.579	20012
867.71	19944
867.841	20043
867.972	20134
868.103	20031
868.233	20073
868.364	20054
868.495	20199
868.625	20298
868.756	20434
868.886	20343
869.017	20324
869.147	20393
869.278	20385
869.408	20370
869.539	20389
869.669	20351
869.799	20301
869.929	20389
870.06	20465
870.19	20705
870.32	20640
870.45	20629
870.58	20720
870.71	20899
870.84	20963
870.97	20743
871.1	20834
871.23	21051
871.36	20899
871.489	20781
871.619	20990
871.749	20811
871.879	20982
872.008	21017
872.138	20921
872.267	20887
872.397	20868
872.526	20819
872.656	20682
872.785	20883
872.915	21013
873.044	20971
873.173	20967
873.303	21093
873.432	21013
873.561	21020
873.69	20864
873.819	20941
873.948	21066
874.077	21104
874.206	20929
874.335	21017
874.464	21020
874.593	21138
874.722	21283
874.851	21184
874.979	21241
875.108	21226
875.237	21157
875.365	21119
875.494	21150
875.623	21283
875.751	21230
875.88	21252
876.008	21222
876.136	21329
876.265	21587
876.393	21660
876.521	21591
876.65	21652
876.778	21587
876.906	21610
877.034	21488
877.162	21553
877.29	21545
877.418	21576
877.546	21561
877.674	21538
877.802	21519
877.93	21603
878.058	21542
878.185	21378
878.313	21530
878.441	21580
878.568	21473
878.696	21405
878.824	21675
878.951	21610
879.079	21671
879.206	21835
879.333	21648
879.461	21595
879.588	21705
879.715	21759
879.842	21880
879.97	21641
880.097	21386
880.224	21450
880.351	21500
880.478	21466
880.605	21397
880.732	21378
880.859	21610
880.986	21420
881.112	21386
881.239	21374
881.366	21142
881.493	21188
881.619	21043
881.746	20921
881.872	21036
881.999	20830
882.125	20944
882.252	20956
882.378	20895
882.505	21074
882.631	20750
882.757	20697
882.883	20815
883.01	20579
883.136	20602
883.262	20564
883.388	20564
883.514	20823
883.64	20632
883.766	20712
883.892	20609
884.018	20549
884.143	20682
884.269	20686
884.395	20381
884.52	20370
884.646	20412
884.772	20248
884.897	20214
885.023	20294
885.148	20446
885.274	20507
885.399	20336
885.524	20374
885.65	20320
885.775	20339
885.9	20351
886.025	20355
886.15	20385
886.275	20271
886.4	20157
886.525	20233
886.65	20290
886.775	20271
886.9	20393
887.025	20552
887.149	20313
887.274	20294
887.399	20100
887.523	20122
887.648	20027
887.773	20111
887.897	20210
888.021	20202
888.146	20005
888.27	20172
888.395	20126
888.519	20138
888.643	20145
888.767	20145
888.891	19959
889.015	19887
889.139	19845
889.263	19955
889.387	20031
889.511	20180
889.635	20050
889.759	19951
889.883	19936
890.006	19841
890.13	20161
890.254	19803
890.377	19883
890.501	19704
890.624	19620
890.748	19871
890.871	19582
890.995	19441
891.118	19343
891.241	19533
891.364	19499
891.488	19727
891.611	19552
891.734	19457
891.857	19529
891.98	19411
892.103	19632
892.226	19559
892.349	19381
892.471	19308
892.594	19552
892.717	19556
892.839	19480
892.962	19514
893.085	19578
893.207	19476
893.33	19320
893.452	19285
893.575	19525
893.697	19407
893.819	19613
893.941	19658
894.064	19480
894.186	19445
894.308	19422
894.43	19506
894.552	19529
894.674	19476
894.796	19392
894.918	19491
895.04	19457
895.161	19510
895.283	19548
895.405	19373
895.526	19460
895.648	19438
895.769	19537
895.891	19518
896.012	19518
896.134	19438
896.255	19495
896.376	19529
896.498	19441
896.619	19430
896.74	19411
896.861	19453
896.982	19849
897.103	19902
897.224	19753
897.345	19799
897.466	19590
897.587	19674
897.708	19738
897.828	19769
897.949	19666
898.07	19495
898.19	19609
898.311	19780
898.431	19693
898.552	19723
898.672	19803
898.792	19883
898.913	19685
899.033	19635
899.153	19521
899.273	19419
899.393	19571
899.513	19487
899.633	19464
899.753	19464
899.873	19358
899.993	19396
900.113	19392
900.232	19403
900.352	19343
900.472	19225
900.591	19206
900.711	19190
900.83	19156
900.95	19289
901.069	19301
901.189	19228
901.308	18920
901.427	18856
901.546	18825
901.665	18932
901.784	18871
901.904	18764
902.023	18601
902.141	18460
902.26	18372
902.379	18433
902.498	18308
902.617	18342
902.735	18342
902.854	18243
902.973	18194
903.091	18102
903.21	18159
903.328	18163
903.446	17992
903.565	17893
903.683	17805
903.801	17840
903.919	17851
904.038	17836
904.156	17604
904.274	17668
904.392	17657
904.51	17516
904.627	17611
904.745	17771
904.863	17676
904.981	17379
905.098	17280
905.216	17303
905.334	17220
905.451	17341
905.569	17341
905.686	17258
905.803	17273
905.921	17079
906.038	17185
906.155	17102
906.272	17006
906.389	17003
906.506	16984
906.623	16812
906.74	16885
906.857	16649
906.974	16797
907.091	16793
907.208	16896
907.324	16858
907.441	16797
907.557	16565
907.674	16603
907.79	16504
907.907	16474
908.023	16561
908.139	16580
908.256	16489
908.372	16478
908.488	16417
908.604	16413
908.72	16223
908.836	16329
908.952	16280
909.068	16295
909.184	16432
909.3	16367
909.415	16367
909.531	16295
909.647	16040
909.762	16158
909.878	15922
909.993	16048
910.108	16040
910.224	16017
910.339	15937
910.454	15937
910.57	15846
910.685	15751
910.8	16040
910.915	15972
911.03	15747
911.145	15641
911.259	15545
911.374	15610
911.489	15496
911.604	15447
911.718	15332
911.833	15344
911.947	15348
912.062	15294
912.176	15302
912.291	15302
912.405	15332
912.519	15504
912.633	15599
912.748	15405
912.862	15245
912.976	15119
913.09	15032
913.204	15150
913.318	15100
913.431	15252
913.545	15252
913.659	15332
913.772	15097
913.886	14975
914	14925
914.113	15161
914.226	15116
914.34	14952
914.453	14819
914.566	14925
914.68	14925
914.793	14887
914.906	14621
915.019	14514
915.132	14590
915.245	14644
915.358	14648
915.47	14670
915.583	14522
915.696	14644
915.809	14773
915.921	14762
916.034	14613
916.146	14507
916.259	14465
916.371	14655
916.483	14556
916.595	14434
916.708	14465
916.82	14408
916.932	14492
917.044	14370
917.156	14404
917.268	14305
917.38	14290
917.491	14218
917.603	14199
917.715	14339
917.826	14362
917.938	14275
918.049	14111
918.161	14252
918.272	14438
918.384	14377
918.495	14256
918.606	14138
918.717	14054
918.828	14058
918.939	14111
919.05	14008
919.161	14008
919.272	13864
919.383	13830
919.494	14103
919.604	14225
919.715	14149
919.826	13932
919.936	13970
920.047	14103
920.157	13997
920.267	14183
920.378	13989
920.488	14069
920.598	14180
920.708	14282
920.818	14145
920.928	14100
921.038	14294
921.148	14229
921.258	14001
921.368	13902
921.477	13731
921.587	13761
921.697	13624
921.806	13746
921.916	13647
922.025	13453
922.134	13441
922.244	13388
922.353	13434
922.462	13339
922.571	13202
922.68	13114
922.789	13000
922.898	13023
923.007	13038
923.116	13137
923.224	13118
923.333	13053
923.442	13012
923.55	12924
923.659	12897
923.767	12943
923.876	12833
923.984	12935
924.092	12760
924.201	12817
924.309	12859
924.417	12814
924.525	12753
924.633	12684
924.741	13632
924.849	12540
924.956	12696
925.064	12582
925.172	12494
925.279	12528
925.387	12509
925.494	12547
925.602	12635
925.709	12566
925.816	12372
925.924	12532
926.031	12544
926.138	12490
926.245	12506
926.352	12372
926.459	12475
926.566	12608
926.673	12353
926.779	12292
926.886	12228
926.993	12175
927.099	12110
927.206	11999
927.312	12045
927.419	12087
927.525	12144
927.631	12110
927.737	11996
927.843	11885
927.95	11851
928.056	11969
928.162	11889
928.267	11916
928.373	12399
928.479	12034
928.585	11760
928.69	11916
928.796	11840
928.901	11802
929.007	11638
929.112	11760
929.218	11760
929.323	11676
929.428	11638
929.533	11710
929.638	11627
929.743	11627
929.848	11596
929.953	11539
930.058	11543
930.163	11406
930.267	11391
930.372	11501
930.477	11334
930.581	11566
930.685	11463
930.79	11246
930.894	11311
930.998	11216
931.103	11414
931.207	10968
931.311	11006
931.415	10862
931.519	10679
931.623	10630
