Data from test_V78500241_2159.txt Node
Date: Fri Mar 25 15:24:53 CST 2022
User: usil
Spectrometer: V785-0024
Trigger mode: 0
Integration Time (sec): 4.000000E-1
Scans to average: 1
Nonlinearity correction enabled: false
Boxcar width: 0
Storing dark spectrum: false
XAxis mode: Wavelengths
Number of Pixels in Spectrum: 1024
>>>>>Begin Spectral Data<<<<<
801.071	27583
801.214	27583
801.356	27443
801.499	27393
801.641	27192
801.783	27218
801.926	27184
802.068	27272
802.211	27104
802.353	27146
802.496	26914
802.638	26929
802.78	26861
802.923	26754
803.065	26769
803.208	26857
803.35	26895
803.492	26895
803.635	27207
803.777	27108
803.919	26998
804.061	27268
804.204	27249
804.346	27131
804.488	27142
804.63	27074
804.773	27020
804.915	27093
805.057	27169
805.199	26979
805.341	27176
805.483	27176
805.626	27192
805.768	27146
805.91	27077
806.052	27230
806.194	27321
806.336	27386
806.478	27195
806.62	27165
806.762	27291
806.904	27576
807.046	27648
807.188	27622
807.33	27835
807.472	27823
807.614	27496
807.756	27701
807.898	27481
808.04	27367
808.182	27500
808.324	27561
808.465	27663
808.607	27694
808.749	27751
808.891	27930
809.033	28166
809.174	27892
809.316	27762
809.458	27831
809.6	27850
809.741	27934
809.883	27991
810.025	28230
810.166	27983
810.308	27998
810.45	28074
810.591	28002
810.733	27759
810.875	27922
811.016	27694
811.158	27724
811.299	27842
811.441	27972
811.582	27945
811.724	27892
811.865	27675
812.007	27755
812.148	27800
812.29	27854
812.431	28021
812.573	28112
812.714	28257
812.855	28436
812.997	28523
813.138	28554
813.279	28379
813.421	28299
813.562	28295
813.703	28158
813.845	28006
813.986	27675
814.127	27603
814.268	27485
814.41	27454
814.551	27420
814.692	27591
814.833	27447
814.974	27477
815.115	27583
815.256	27393
815.397	27348
815.539	27504
815.68	27275
815.821	27199
815.962	27287
816.103	27291
816.244	27275
816.385	27104
816.526	27085
816.666	26921
816.807	26807
816.948	26845
817.089	26933
817.23	26773
817.371	26708
817.512	26838
817.653	26636
817.793	26746
817.934	26701
818.075	26830
818.216	26819
818.356	26746
818.497	26705
818.638	26598
818.778	26579
818.919	26556
819.06	26560
819.2	26640
819.341	26811
819.481	26735
819.622	27043
819.762	27192
819.903	27058
820.043	26979
820.184	26986
820.324	27001
820.465	26963
820.605	26971
820.746	26765
820.886	26659
821.026	26891
821.167	26781
821.307	26986
821.447	26792
821.588	26533
821.728	26590
821.868	26453
822.008	26427
822.149	26385
822.289	26320
822.429	25940
822.569	25997
822.709	25932
822.849	25742
822.99	25723
823.13	25635
823.27	25700
823.41	25510
823.55	25605
823.69	25400
823.83	25586
823.97	25624
824.11	25369
824.25	25407
824.389	25476
824.529	25506
824.669	25358
824.809	25472
824.949	25613
825.089	25457
825.228	25419
825.368	25304
825.508	25278
825.648	25285
825.787	25354
825.927	25331
826.067	25187
826.206	25324
826.346	25255
826.485	25301
826.625	25293
826.765	25350
826.904	25289
827.044	25099
827.183	25091
827.323	24875
827.462	25118
827.601	24947
827.741	24954
827.88	25008
828.02	24867
828.159	24966
828.298	25084
828.437	25034
828.577	24935
828.716	25023
828.855	24920
828.994	24570
829.134	24753
829.273	24654
829.412	24566
829.551	24574
829.69	24551
829.829	24707
829.968	24753
830.107	24779
830.246	24620
830.385	24547
830.524	24521
830.663	24601
830.802	24414
830.941	24384
831.08	24270
831.219	24372
831.357	24323
831.496	24414
831.635	24254
831.774	24167
831.913	24049
832.051	24098
832.19	24068
832.329	24114
832.467	24079
832.606	23863
832.744	23954
832.883	23813
833.022	23878
833.16	23931
833.299	24068
833.437	23897
833.576	23977
833.714	23969
833.852	24106
833.991	24064
834.129	23996
834.267	24053
834.406	23920
834.544	23977
834.682	23950
834.821	23916
834.959	24186
835.097	23996
835.235	24011
835.373	23961
835.511	23961
835.65	23851
835.788	23851
835.926	23680
836.064	23627
836.202	23585
836.34	23874
836.478	23920
836.615	23927
836.753	23851
836.891	23980
837.029	23775
837.167	23805
837.305	23813
837.443	23695
837.58	23748
837.718	23722
837.856	23585
837.993	23570
838.131	23634
838.269	23585
838.406	23592
838.544	23543
838.681	23292
838.819	23353
838.956	23060
839.094	23166
839.231	23102
839.369	23280
839.506	23566
839.643	23383
839.781	23147
839.918	23128
840.055	23105
840.193	23060
840.33	23075
840.467	23044
840.604	23014
840.742	23223
840.879	22835
841.016	23029
841.153	22972
841.29	23151
841.427	23052
841.564	23098
841.701	23022
841.838	23014
841.975	23018
842.112	22927
842.249	22877
842.385	22869
842.522	22942
842.659	22839
842.796	22698
842.933	22778
843.069	22763
843.206	22828
843.343	22831
843.479	22835
843.616	22755
843.752	22596
843.889	22554
844.025	22801
844.162	22512
844.298	22637
844.435	22656
844.571	22550
844.708	22607
844.844	22748
844.98	22858
845.117	22786
845.253	22504
845.389	22417
845.525	22557
845.661	22436
845.798	22360
845.934	22390
846.07	22284
846.206	22478
846.342	22348
846.478	22287
846.614	22063
846.75	22082
846.886	21987
847.022	22074
847.158	21994
847.294	22124
847.429	22067
847.565	21964
847.701	22325
847.837	21762
847.972	21743
848.108	21888
848.244	21861
848.379	21747
848.515	21736
848.65	21595
848.786	21713
848.921	21618
849.057	21663
849.192	21682
849.328	21701
849.463	21526
849.598	21519
849.734	21526
849.869	21466
850.004	21378
850.14	21534
850.275	21340
850.41	21386
850.545	21454
850.68	21325
850.815	21443
850.95	21359
851.085	21599
851.22	21408
851.355	21393
851.49	21408
851.625	21393
851.76	21272
851.895	21351
852.03	21279
852.165	21317
852.299	21435
852.434	21473
852.569	21408
852.703	21363
852.838	21496
852.973	21568
853.107	21595
853.242	21351
853.376	21310
853.511	21020
853.645	21241
853.78	21321
853.914	21245
854.048	21150
854.183	21332
854.317	21195
854.451	21344
854.585	21256
854.72	21165
854.854	21332
854.988	21150
855.122	21169
855.256	21036
855.39	21142
855.524	21264
855.658	21252
855.792	21214
855.926	21199
856.06	21199
856.194	21313
856.327	21123
856.461	21173
856.595	21165
856.729	21104
856.862	21233
856.996	21154
857.13	21226
857.263	21321
857.397	21359
857.53	21275
857.664	21272
857.797	21237
857.931	21370
858.064	21294
858.197	21226
858.331	21058
858.464	21154
858.597	21123
858.731	21146
858.864	21195
858.997	21241
859.13	21199
859.263	21294
859.396	21173
859.529	21211
859.662	21161
859.795	21165
859.928	21161
860.061	21462
860.194	21363
860.327	21291
860.46	21329
860.592	21382
860.725	21195
860.858	21370
860.99	21165
861.123	21138
861.256	21096
861.388	21165
861.521	21816
861.653	21093
861.786	20941
861.918	20941
862.05	21081
862.183	21123
862.315	21116
862.447	21150
862.58	21085
862.712	20880
862.844	20960
862.976	21017
863.108	20921
863.24	21386
863.372	20921
863.504	20975
863.636	20868
863.768	20986
863.9	20899
864.032	20853
864.164	20891
864.296	20941
864.428	21005
864.559	20887
864.691	21055
864.823	20944
864.954	20921
865.086	20845
865.217	20921
865.349	20754
865.48	20788
865.612	20804
865.743	20868
865.875	20758
866.006	20746
866.137	20826
866.269	20868
866.4	20811
866.531	20762
866.662	20785
866.793	20674
866.924	20800
867.055	20746
867.186	20746
867.317	20785
867.448	20667
867.579	20697
867.71	20609
867.841	20613
867.972	20842
868.103	20777
868.233	20819
868.364	20781
868.495	20823
868.625	21074
868.756	20944
868.886	20933
869.017	20937
869.147	21096
869.278	21154
869.408	21032
869.539	20906
869.669	21104
869.799	20986
869.929	21089
870.06	21024
870.19	21332
870.32	21294
870.45	21294
870.58	21374
870.71	21507
870.84	21393
870.97	21317
871.1	21332
871.23	21530
871.36	21492
871.489	21458
871.619	21625
871.749	21545
871.879	21667
872.008	21713
872.138	21599
872.267	21504
872.397	21477
872.526	21431
872.656	21416
872.785	21321
872.915	21618
873.044	21789
873.173	21564
873.303	21526
873.432	21576
873.561	21622
873.69	21583
873.819	21713
873.948	21679
874.077	21587
874.206	21542
874.335	21739
874.464	21755
874.593	21846
874.722	21823
874.851	21793
874.979	21918
875.108	21949
875.237	21675
875.365	21736
875.494	21762
875.623	21854
875.751	21922
875.88	21903
876.008	22006
876.136	22090
876.265	22185
876.393	22284
876.521	22348
876.65	22261
876.778	22185
876.906	22200
877.034	22116
877.162	22242
877.29	22226
877.418	22181
877.546	22238
877.674	22166
877.802	22188
877.93	22211
878.058	22124
878.185	22090
878.313	22276
878.441	22051
878.568	21956
878.696	22192
878.824	22246
878.951	22356
879.079	22310
879.206	22504
879.333	22329
879.461	22310
879.588	22352
879.715	22424
879.842	22504
879.97	22287
880.097	22048
880.224	22044
880.351	22059
880.478	21880
880.605	22017
880.732	21964
880.859	22204
880.986	22063
881.112	21987
881.239	21884
881.366	21747
881.493	21583
881.619	21682
881.746	21618
881.872	21660
881.999	21625
882.125	21454
882.252	21648
882.378	21561
882.505	21644
882.631	21500
882.757	21340
882.883	21237
883.01	21473
883.136	21161
883.262	21081
883.388	21051
883.514	21321
883.64	21287
883.766	21222
883.892	21104
884.018	21154
884.143	21203
884.269	21332
884.395	20914
884.52	20918
884.646	20895
884.772	20921
884.897	20804
885.023	20838
885.148	20918
885.274	20994
885.399	21055
885.524	20998
885.65	20804
885.775	20956
885.9	20872
886.025	20952
886.15	21017
886.275	20895
886.4	20845
886.525	20762
886.65	20857
886.775	20906
886.9	21055
887.025	21165
887.149	20899
887.274	20777
887.399	20701
887.523	20655
887.648	20674
887.773	20693
887.897	20773
888.021	20781
888.146	20613
888.27	20758
888.395	20655
888.519	20606
888.643	20670
888.767	20701
888.891	20712
889.015	20465
889.139	20579
889.263	20587
889.387	20503
889.511	20682
889.635	20571
889.759	20450
889.883	20602
890.006	20511
890.13	20644
890.254	20362
890.377	20442
890.501	20408
890.624	20339
890.748	20282
890.871	20103
890.995	20039
891.118	19967
891.241	20134
891.364	20191
891.488	20263
891.611	20172
891.734	20046
891.857	20206
891.98	20107
892.103	20244
892.226	20100
892.349	20130
892.471	19864
892.594	20081
892.717	20062
892.839	20046
892.962	20005
893.085	20092
893.207	20035
893.33	19925
893.452	20001
893.575	20024
893.697	19997
893.819	20202
893.941	20229
894.064	20168
894.186	20001
894.308	19898
894.43	20142
894.552	20107
894.674	20138
894.796	19989
894.918	20039
895.04	20088
895.161	19947
895.283	19967
895.405	19887
895.526	20008
895.648	19947
895.769	19986
895.891	20027
896.012	20115
896.134	20065
896.255	20058
896.376	19955
896.498	19913
896.619	20084
896.74	19993
896.861	20119
896.982	20271
897.103	20492
897.224	20290
897.345	20149
897.466	20130
897.587	20214
897.708	20533
897.828	20206
897.949	20084
898.07	20103
898.19	20103
898.311	20282
898.431	20172
898.552	20195
898.672	20263
898.792	20191
898.913	20275
899.033	19997
899.153	19967
899.273	19951
899.393	19997
899.513	20024
899.633	19928
899.753	20062
899.873	19921
899.993	20024
900.113	19944
900.232	19902
900.352	19932
900.472	19791
900.591	19712
900.711	19811
900.83	19727
900.95	19769
901.069	19845
901.189	19746
901.308	19483
901.427	19343
901.546	19339
901.665	19346
901.784	19320
901.904	19164
902.023	19145
902.141	18924
902.26	18894
902.379	18996
902.498	18825
902.617	18719
902.735	18848
902.854	18821
902.973	18821
903.091	18460
903.21	18525
903.328	18506
903.446	18589
903.565	18281
903.683	18388
903.801	18251
903.919	18319
904.038	18372
904.156	18152
904.274	18308
904.392	18171
904.51	18110
904.627	18159
904.745	18102
904.863	18079
904.981	17973
905.098	17668
905.216	17737
905.334	17805
905.451	17828
905.569	17687
905.686	17847
905.803	17764
905.921	17589
906.038	17722
906.155	17524
906.272	17501
906.389	17410
906.506	17391
906.623	17250
906.74	17364
906.857	17109
906.974	17288
907.091	17326
907.208	17372
907.324	17353
907.441	17235
907.557	17052
907.674	17025
907.79	16961
907.907	17014
908.023	16938
908.139	17143
908.256	17052
908.372	16972
908.488	16911
908.604	16736
908.72	16710
908.836	16786
908.952	16713
909.068	16797
909.184	16843
909.3	16763
909.415	16809
909.531	16725
909.647	16554
909.762	16508
909.878	16459
909.993	16428
910.108	16379
910.224	16440
910.339	16569
910.454	16390
910.57	16280
910.685	16211
910.8	16489
910.915	16428
911.03	16295
911.145	16059
911.259	16147
911.374	16032
911.489	15930
911.604	15949
911.718	15854
911.833	15789
911.947	15667
912.062	15618
912.176	15717
912.291	15743
912.405	15770
912.519	15873
912.633	16086
912.748	15800
912.862	15804
912.976	15629
913.09	15523
913.204	15538
913.318	15637
913.431	15682
913.545	15682
913.659	15705
913.772	15595
913.886	15420
914	15420
914.113	15481
914.226	15538
914.34	15477
914.453	15279
914.566	15424
914.68	15180
914.793	15207
914.906	15058
915.019	14902
915.132	14963
915.245	14986
915.358	15100
915.47	15093
915.583	14967
915.696	15047
915.809	15123
915.921	15131
916.034	14986
916.146	15024
916.259	14933
916.371	15005
916.483	14967
916.595	14807
916.708	14769
916.82	14842
916.932	14785
917.044	14777
917.156	14781
917.268	14651
917.38	14697
917.491	14610
917.603	14705
917.715	14727
917.826	14777
917.938	14606
918.049	14518
918.161	14575
918.272	14781
918.384	14739
918.495	14640
918.606	14514
918.717	14461
918.828	14488
918.939	14499
919.05	14305
919.161	14476
919.272	14153
919.383	14248
919.494	14530
919.604	14632
919.715	14431
919.826	14275
919.936	14431
920.047	14480
920.157	14450
920.267	14632
920.378	14347
920.488	14442
920.598	14533
920.708	14670
920.818	14522
920.928	14568
921.038	14754
921.148	14686
921.258	14423
921.368	14259
921.477	14199
921.587	14145
921.697	14065
921.806	14202
921.916	14031
922.025	13807
922.134	13772
922.244	13723
922.353	13784
922.462	13723
922.571	13594
922.68	13415
922.789	13422
922.898	13472
923.007	13396
923.116	13460
923.224	13316
923.333	13529
923.442	13251
923.55	13221
923.659	13149
923.767	13293
923.876	13126
923.984	13274
924.092	13141
924.201	13232
924.309	13149
924.417	13137
924.525	13141
924.633	13050
924.741	13887
924.849	12916
924.956	12977
925.064	12928
925.172	12776
925.279	12875
925.387	12840
925.494	12825
925.602	12996
925.709	12954
925.816	12688
925.924	12810
926.031	12833
926.138	12753
926.245	12814
926.352	12749
926.459	12844
926.566	12973
926.673	12722
926.779	12654
926.886	12566
926.993	12445
927.099	12532
927.206	12346
927.312	12426
927.419	12391
927.525	12418
927.631	12422
927.737	12433
927.843	12251
927.95	12140
928.056	12186
928.162	12239
928.267	12300
928.373	12890
928.479	12292
928.585	12106
928.69	12205
928.796	12224
928.901	12171
929.007	11950
929.112	12060
929.218	12045
929.323	11908
929.428	11969
929.533	12148
929.638	11870
929.743	11969
929.848	11992
929.953	11980
930.058	11794
930.163	11680
930.267	11752
930.372	11794
930.477	11573
930.581	11851
930.685	11722
930.79	11596
930.894	11558
930.998	11551
931.103	11752
931.207	11296
931.311	11231
931.415	11140
931.519	10839
931.623	10934
