Data from test_V78500241_3357.txt Node
Date: Fri Mar 25 15:33:14 CST 2022
User: usil
Spectrometer: V785-0024
Trigger mode: 0
Integration Time (sec): 4.000000E-1
Scans to average: 1
Nonlinearity correction enabled: false
Boxcar width: 0
Storing dark spectrum: false
XAxis mode: Wavelengths
Number of Pixels in Spectrum: 1024
>>>>>Begin Spectral Data<<<<<
801.071	27096
801.214	26967
801.356	26792
801.499	26807
801.641	26522
801.783	26697
801.926	26724
802.068	26682
802.211	26720
802.353	26461
802.496	26537
802.638	26412
802.78	26320
802.923	26240
803.065	26332
803.208	26176
803.35	26275
803.492	26423
803.635	26469
803.777	26415
803.919	26503
804.061	26739
804.204	26552
804.346	26336
804.488	26381
804.63	26453
804.773	26358
804.915	26393
805.057	26537
805.199	26362
805.341	26564
805.483	26598
805.626	26583
805.768	26450
805.91	26533
806.052	26514
806.194	26351
806.336	26697
806.478	26583
806.62	26522
806.762	26606
806.904	26758
807.046	26952
807.188	26944
807.33	27036
807.472	26979
807.614	26830
807.756	27085
807.898	26830
808.04	26670
808.182	26743
808.324	26754
808.465	26853
808.607	27024
808.749	27165
808.891	27195
809.033	27298
809.174	27214
809.316	27154
809.458	27184
809.6	27184
809.741	27096
809.883	27233
810.025	27359
810.166	27302
810.308	27507
810.45	27416
810.591	27401
810.733	27237
810.875	27249
811.016	26971
811.158	27116
811.299	27237
811.441	27351
811.582	27283
811.724	27116
811.865	27074
812.007	27104
812.148	27154
812.29	27180
812.431	27275
812.573	27382
812.714	27443
812.855	27378
812.997	27663
813.138	27736
813.279	27892
813.421	27515
813.562	27526
813.703	27412
813.845	27279
813.986	27077
814.127	26815
814.268	26739
814.41	26720
814.551	26739
814.692	26792
814.833	26655
814.974	26792
815.115	26758
815.256	26667
815.397	26689
815.539	26648
815.68	26621
815.821	26457
815.962	26590
816.103	26579
816.244	26298
816.385	26408
816.526	26267
816.666	26130
816.807	26157
816.948	26027
817.089	26161
817.23	26122
817.371	26103
817.512	26039
817.653	26020
817.793	25993
817.934	26107
818.075	26126
818.216	26005
818.356	26027
818.497	25982
818.638	25712
818.778	25670
818.919	25879
819.06	25864
819.2	25978
819.341	25989
819.481	26024
819.622	26210
819.762	26248
819.903	26237
820.043	26252
820.184	25986
820.324	26161
820.465	26180
820.605	26229
820.746	26115
820.886	25788
821.026	26058
821.167	26119
821.307	26077
821.447	26020
821.588	25890
821.728	25852
821.868	25514
822.008	25556
822.149	25548
822.289	25533
822.429	25335
822.569	25148
822.709	25183
822.849	24966
822.99	25046
823.13	24958
823.27	24954
823.41	24844
823.55	24840
823.69	24810
823.83	24787
823.97	24749
824.11	24601
824.25	24627
824.389	24540
824.529	24745
824.669	24650
824.809	24798
824.949	24696
825.089	24791
825.228	24547
825.368	24528
825.508	24505
825.648	24559
825.787	24566
825.927	24475
826.067	24475
826.206	24502
826.346	24612
826.485	24578
826.625	24563
826.765	24555
826.904	24486
827.044	24369
827.183	24091
827.323	24186
827.462	24319
827.601	24228
827.741	24148
827.88	24190
828.02	24038
828.159	24224
828.298	24285
828.437	24308
828.577	24144
828.716	24319
828.855	24163
828.994	23878
829.134	23775
829.273	24053
829.412	23904
829.551	23958
829.69	23828
829.829	24003
829.968	23946
830.107	23946
830.246	23916
830.385	23824
830.524	23874
830.663	23794
830.802	23619
830.941	23608
831.08	23558
831.219	23714
831.357	23608
831.496	23566
831.635	23459
831.774	23490
831.913	23558
832.051	23315
832.19	23353
832.329	23307
832.467	23170
832.606	23208
832.744	23174
832.883	23239
833.022	23372
833.16	23121
833.299	23212
833.437	23242
833.576	23121
833.714	23166
833.852	23326
833.991	23459
834.129	23376
834.267	23322
834.406	23288
834.544	23349
834.682	23303
834.821	23250
834.959	23535
835.097	23242
835.235	23391
835.373	23273
835.511	23265
835.65	23071
835.788	23124
835.926	23014
836.064	22953
836.202	22946
836.34	23299
836.478	23292
836.615	23151
836.753	23189
836.891	23143
837.029	23151
837.167	23113
837.305	23090
837.443	22961
837.58	23025
837.718	23041
837.856	23124
837.993	23018
838.131	22953
838.269	22854
838.406	22896
838.544	22816
838.681	22626
838.819	22782
838.956	22405
839.094	22386
839.231	22447
839.369	22687
839.506	22938
839.643	22786
839.781	22481
839.918	22375
840.055	22481
840.193	22424
840.33	22409
840.467	22489
840.604	22443
840.742	22630
840.879	22367
841.016	22337
841.153	22306
841.29	22535
841.427	22402
841.564	22413
841.701	22363
841.838	22265
841.975	22295
842.112	22371
842.249	22204
842.385	22226
842.522	22390
842.659	22299
842.796	22196
842.933	22238
843.069	21975
843.206	22097
843.343	22112
843.479	22166
843.616	22169
843.752	21979
843.889	22017
844.025	22044
844.162	21983
844.298	21972
844.435	21987
844.571	21934
844.708	22029
844.844	22044
844.98	22120
845.117	22051
845.253	21888
845.389	21747
845.525	21743
845.661	21808
845.798	21766
845.934	21705
846.07	21637
846.206	21698
846.342	21819
846.478	21785
846.614	21583
846.75	21351
846.886	21534
847.022	21473
847.158	21515
847.294	21462
847.429	21458
847.565	21447
847.701	21553
847.837	21268
847.972	21161
848.108	21214
848.244	21237
848.379	21089
848.515	20906
848.65	20990
848.786	21096
848.921	21089
849.057	21237
849.192	21131
849.328	21154
849.463	21093
849.598	20906
849.734	20963
849.869	20906
850.004	20815
850.14	20811
850.275	20762
850.41	20754
850.545	20739
850.68	20720
850.815	20937
850.95	20693
851.085	20921
851.22	20823
851.355	20781
851.49	20788
851.625	20724
851.76	20727
851.895	20743
852.03	20644
852.165	20853
852.299	20796
852.434	20880
852.569	20697
852.703	20769
852.838	20807
852.973	20842
853.107	20986
853.242	20823
853.376	20678
853.511	20503
853.645	20530
853.78	20667
853.914	20598
854.048	20667
854.183	20644
854.317	20689
854.451	20769
854.585	20484
854.72	20545
854.854	20651
854.988	20457
855.122	20739
855.256	20495
855.39	20609
855.524	20663
855.658	20720
855.792	20549
855.926	20708
856.06	20564
856.194	20762
856.327	20499
856.461	20511
856.595	20537
856.729	20606
856.862	20648
856.996	20743
857.13	20674
857.263	20720
857.397	20609
857.53	20568
857.664	20644
857.797	20602
857.931	20727
858.064	20602
858.197	20762
858.331	20594
858.464	20499
858.597	20488
858.731	20473
858.864	20629
858.997	20549
859.13	20758
859.263	20629
859.396	20705
859.529	20556
859.662	20473
859.795	20568
859.928	20621
860.061	20834
860.194	20823
860.327	20568
860.46	20651
860.592	20750
860.725	20708
860.858	20659
860.99	20579
861.123	20511
861.256	20549
861.388	20678
861.521	21332
861.653	20271
861.786	20389
861.918	20480
862.05	20404
862.183	20476
862.315	20579
862.447	20705
862.58	20495
862.712	20259
862.844	20298
862.976	20415
863.108	20412
863.24	20636
863.372	20233
863.504	20290
863.636	20298
863.768	20286
863.9	20199
864.032	20317
864.164	20275
864.296	20298
864.428	20450
864.559	20358
864.691	20385
864.823	20313
864.954	20355
865.086	20278
865.217	20305
865.349	20183
865.48	20119
865.612	20313
865.743	20271
865.875	20259
866.006	20259
866.137	20294
866.269	20271
866.4	20164
866.531	20107
866.662	20096
866.793	20191
866.924	20172
867.055	20252
867.186	20206
867.317	20115
867.448	20119
867.579	20107
867.71	20065
867.841	20111
867.972	20267
868.103	20115
868.233	20252
868.364	20172
868.495	20252
868.625	20351
868.756	20473
868.886	20336
869.017	20347
869.147	20560
869.278	20655
869.408	20446
869.539	20450
869.669	20484
869.799	20476
869.929	20602
870.06	20469
870.19	20758
870.32	20575
870.45	20777
870.58	20758
870.71	20933
870.84	20861
870.97	20773
871.1	20667
871.23	20933
871.36	21085
871.489	21017
871.619	20925
871.749	20960
871.879	21127
872.008	21279
872.138	21055
872.267	20971
872.397	20807
872.526	20758
872.656	20918
872.785	20788
872.915	20971
873.044	21108
873.173	21119
873.303	21131
873.432	21085
873.561	21066
873.69	21013
873.819	20982
873.948	21112
874.077	21165
874.206	20975
874.335	21058
874.464	21279
874.593	21226
874.722	21199
874.851	21218
874.979	21302
875.108	21287
875.237	21192
875.365	21230
875.494	21348
875.623	21374
875.751	21249
875.88	21237
876.008	21363
876.136	21473
876.265	21739
876.393	21812
876.521	21797
876.65	21724
876.778	21705
876.906	21538
877.034	21682
877.162	21625
877.29	21709
877.418	21553
877.546	21572
877.674	21614
877.802	21717
877.93	21690
878.058	21724
878.185	21603
878.313	21717
878.441	21663
878.568	21561
878.696	21534
878.824	21633
878.951	21701
879.079	21808
879.206	21968
879.333	21717
879.461	21663
879.588	21816
879.715	21736
879.842	21922
879.97	21774
880.097	21538
880.224	21530
880.351	21580
880.478	21523
880.605	21496
880.732	21454
880.859	21770
880.986	21393
881.112	21549
881.239	21306
881.366	21192
881.493	21180
881.619	21081
881.746	21043
881.872	21036
881.999	21032
882.125	21123
882.252	21135
882.378	20941
882.505	21127
882.631	20933
882.757	20727
882.883	20921
883.01	20823
883.136	20754
883.262	20609
883.388	20686
883.514	20804
883.64	20773
883.766	20659
883.892	20465
884.018	20587
884.143	20648
884.269	20792
884.395	20423
884.52	20351
884.646	20476
884.772	20347
884.897	20343
885.023	20488
885.148	20556
885.274	20530
885.399	20571
885.524	20488
885.65	20488
885.775	20408
885.9	20400
886.025	20518
886.15	20442
886.275	20332
886.4	20271
886.525	20320
886.65	20320
886.775	20358
886.9	20438
887.025	20606
887.149	20366
887.274	20195
887.399	20180
887.523	20168
887.648	20168
887.773	20046
887.897	20275
888.021	20290
888.146	20180
888.27	20267
888.395	20210
888.519	20221
888.643	20358
888.767	20248
888.891	20020
889.015	19974
889.139	20001
889.263	20005
889.387	20206
889.511	20187
889.635	20142
889.759	19959
889.883	19902
890.006	19963
890.13	20077
890.254	19856
890.377	19875
890.501	19776
890.624	19841
890.748	19837
890.871	19655
890.995	19578
891.118	19464
891.241	19533
891.364	19567
891.488	19628
891.611	19613
891.734	19746
891.857	19639
891.98	19567
892.103	19578
892.226	19613
892.349	19441
892.471	19400
892.594	19502
892.717	19529
892.839	19571
892.962	19384
893.085	19449
893.207	19464
893.33	19460
893.452	19441
893.575	19472
893.697	19430
893.819	19708
893.941	19719
894.064	19540
894.186	19502
894.308	19426
894.43	19605
894.552	19601
894.674	19499
894.796	19487
894.918	19563
895.04	19438
895.161	19521
895.283	19457
895.405	19514
895.526	19567
895.648	19419
895.769	19495
895.891	19472
896.012	19563
896.134	19510
896.255	19582
896.376	19441
896.498	19468
896.619	19613
896.74	19521
896.861	19556
896.982	19746
897.103	19947
897.224	19772
897.345	19658
897.466	19746
897.587	19738
897.708	19776
897.828	19731
897.949	19616
898.07	19609
898.19	19655
898.311	19833
898.431	19666
898.552	19807
898.672	19875
898.792	19837
898.913	19731
899.033	19624
899.153	19620
899.273	19373
899.393	19521
899.513	19495
899.633	19487
899.753	19521
899.873	19441
899.993	19559
900.113	19354
900.232	19453
900.352	19381
900.472	19350
900.591	19304
900.711	19335
900.83	19160
900.95	19327
901.069	19282
901.189	19232
901.308	18981
901.427	18890
901.546	18837
901.665	18890
901.784	18859
901.904	18779
902.023	18726
902.141	18555
902.26	18441
902.379	18506
902.498	18372
902.617	18426
902.735	18502
902.854	18205
902.973	18300
903.091	18095
903.21	17908
903.328	18007
903.446	17935
903.565	17988
903.683	17912
903.801	17843
903.919	17950
904.038	17878
904.156	17672
904.274	17627
904.392	17551
904.51	17691
904.627	17680
904.745	17699
904.863	17813
904.981	17402
905.098	17303
905.216	17280
905.334	17334
905.451	17288
905.569	17273
905.686	17356
905.803	17376
905.921	17060
906.038	17193
906.155	17128
906.272	17048
906.389	17071
906.506	16793
906.623	16896
906.74	16748
906.857	16725
906.974	16801
907.091	16824
907.208	17018
907.324	16820
907.441	16809
907.557	16546
907.674	16599
907.79	16500
907.907	16481
908.023	16611
908.139	16546
908.256	16516
908.372	16500
908.488	16497
908.604	16314
908.72	16352
908.836	16287
908.952	16276
909.068	16325
909.184	16413
909.3	16299
909.415	16200
909.531	16356
909.647	16063
909.762	16036
909.878	15987
909.993	15949
910.108	16010
910.224	15968
910.339	16067
910.454	15781
910.57	15819
910.685	15759
910.8	16032
910.915	15983
911.03	15755
911.145	15679
911.259	15561
911.374	15587
911.489	15519
911.604	15542
911.718	15359
911.833	15469
911.947	15245
912.062	15180
912.176	15367
912.291	15389
912.405	15416
912.519	15545
912.633	15488
912.748	15424
912.862	15268
912.976	15287
913.09	15081
913.204	15138
913.318	15256
913.431	15294
913.545	15211
913.659	15275
913.772	15165
913.886	15062
914	15081
914.113	15131
914.226	15169
914.34	15036
914.453	14830
914.566	15032
914.68	15017
914.793	14891
914.906	14659
915.019	14598
915.132	14571
915.245	14568
915.358	14724
915.47	14716
915.583	14583
915.696	14549
915.809	14777
915.921	14701
916.034	14564
916.146	14537
916.259	14606
916.371	14621
916.483	14617
916.595	14507
916.708	14503
916.82	14492
916.932	14473
917.044	14438
917.156	14396
917.268	14358
917.38	14195
917.491	14267
917.603	14313
917.715	14377
917.826	14404
917.938	14233
918.049	14115
918.161	14278
918.272	14351
918.384	14370
918.495	14267
918.606	14130
918.717	14062
918.828	14016
918.939	14058
919.05	13932
919.161	14069
919.272	13818
919.383	13944
919.494	14119
919.604	14317
919.715	14081
919.826	13932
919.936	14012
920.047	14081
920.157	13993
920.267	14259
920.378	14084
920.488	14012
920.598	14180
920.708	14313
920.818	14142
920.928	14168
921.038	14309
921.148	14214
921.258	13967
921.368	13841
921.477	13742
921.587	13822
921.697	13696
921.806	13837
921.916	13696
922.025	13495
922.134	13354
922.244	13483
922.353	13483
922.462	13301
922.571	13225
922.68	13141
922.789	13118
922.898	13133
923.007	13072
923.116	13114
923.224	13046
923.333	13012
923.442	12909
923.55	12848
923.659	13008
923.767	12951
923.876	12867
923.984	12973
924.092	12840
924.201	12920
924.309	12863
924.417	12764
924.525	12749
924.633	12852
924.741	13624
924.849	12570
924.956	12760
925.064	12563
925.172	12486
925.279	12597
925.387	12601
925.494	12460
925.602	12719
925.709	12597
925.816	12418
925.924	12471
926.031	12521
926.138	12532
926.245	12597
926.352	12300
926.459	12486
926.566	12513
926.673	12490
926.779	12338
926.886	12304
926.993	12178
927.099	12121
927.206	12030
927.312	12140
927.419	12178
927.525	12159
927.631	12159
927.737	12072
927.843	11973
927.95	11878
928.056	11836
928.162	11950
928.267	12045
928.373	12517
928.479	11973
928.585	11832
928.69	11969
928.796	11893
928.901	11802
929.007	11630
929.112	11752
929.218	11798
929.323	11745
929.428	11642
929.533	11863
929.638	11604
929.743	11627
929.848	11615
929.953	11672
930.058	11547
930.163	11326
930.267	11337
930.372	11478
930.477	11273
930.581	11543
930.685	11440
930.79	11303
930.894	11360
930.998	11181
931.103	11353
931.207	11060
931.311	10980
931.415	10862
931.519	10691
931.623	10656
