Data from test_V78500241_3576.txt Node
Date: Fri Mar 25 15:34:45 CST 2022
User: usil
Spectrometer: V785-0024
Trigger mode: 0
Integration Time (sec): 4.000000E-1
Scans to average: 1
Nonlinearity correction enabled: false
Boxcar width: 0
Storing dark spectrum: false
XAxis mode: Wavelengths
Number of Pixels in Spectrum: 1024
>>>>>Begin Spectral Data<<<<<
801.071	27393
801.214	27321
801.356	27188
801.499	26994
801.641	26807
801.783	27039
801.926	26963
802.068	26929
802.211	26834
802.353	26804
802.496	26697
802.638	26530
802.78	26632
802.923	26446
803.065	26400
803.208	26499
803.35	26556
803.492	26571
803.635	26689
803.777	26469
803.919	26606
804.061	26948
804.204	26682
804.346	26632
804.488	26636
804.63	26651
804.773	26537
804.915	26682
805.057	26929
805.199	26727
805.341	26758
805.483	26834
805.626	26686
805.768	26765
805.91	26986
806.052	26819
806.194	26613
806.336	26921
806.478	26758
806.62	26861
806.762	26933
806.904	26990
807.046	27245
807.188	27393
807.33	27142
807.472	27294
807.614	27058
807.756	27123
807.898	27058
808.04	27001
808.182	26952
808.324	27081
808.465	27039
808.607	27310
808.749	27367
808.891	27450
809.033	27580
809.174	27485
809.316	27485
809.458	27367
809.6	27283
809.741	27530
809.883	27526
810.025	27663
810.166	27686
810.308	27709
810.45	27610
810.591	27583
810.733	27348
810.875	27348
811.016	27408
811.158	27302
811.299	27542
811.441	27606
811.582	27637
811.724	27275
811.865	27359
812.007	27370
812.148	27401
812.29	27466
812.431	27458
812.573	27736
812.714	27793
812.855	27831
812.997	28044
813.138	28048
813.279	28006
813.421	27819
813.562	27835
813.703	27713
813.845	27564
813.986	27287
814.127	27207
814.268	26929
814.41	27058
814.551	27058
814.692	27066
814.833	27036
814.974	27085
815.115	27135
815.256	27108
815.397	26948
815.539	26990
815.68	26823
815.821	26792
815.962	26895
816.103	26895
816.244	26674
816.385	26552
816.526	26545
816.666	26450
816.807	26358
816.948	26355
817.089	26480
817.23	26362
817.371	26351
817.512	26168
817.653	26237
817.793	26438
817.934	26370
818.075	26347
818.216	26237
818.356	26225
818.497	26130
818.638	25974
818.778	26050
818.919	26134
819.06	26183
819.2	26134
819.341	26305
819.481	26206
819.622	26537
819.762	26739
819.903	26663
820.043	26545
820.184	26522
820.324	26438
820.465	26412
820.605	26412
820.746	26366
820.886	26210
821.026	26480
821.167	26400
821.307	26495
821.447	26229
821.588	26214
821.728	26001
821.868	25841
822.008	25788
822.149	25757
822.289	25742
822.429	25620
822.569	25415
822.709	25422
822.849	25419
822.99	25304
823.13	25392
823.27	25293
823.41	25221
823.55	25129
823.69	25137
823.83	25084
823.97	25008
824.11	24901
824.25	24951
824.389	24913
824.529	24928
824.669	24913
824.809	24954
824.949	25057
825.089	24833
825.228	25004
825.368	24814
825.508	24658
825.648	24863
825.787	24745
825.927	24878
826.067	24894
826.206	24875
826.346	24932
826.485	24840
826.625	24905
826.765	24875
826.904	24913
827.044	24528
827.183	24578
827.323	24509
827.462	24490
827.601	24483
827.741	24479
827.88	24467
828.02	24441
828.159	24429
828.298	24490
828.437	24528
828.577	24429
828.716	24563
828.855	24445
828.994	24239
829.134	24308
829.273	24308
829.412	24205
829.551	24121
829.69	24057
829.829	24300
829.968	24456
830.107	24296
830.246	24330
830.385	24277
830.524	24072
830.663	24049
830.802	23908
830.941	23851
831.08	23847
831.219	23946
831.357	23992
831.496	24110
831.635	23969
831.774	23828
831.913	23676
832.051	23600
832.19	23608
832.329	23718
832.467	23630
832.606	23417
832.744	23486
832.883	23505
833.022	23452
833.16	23535
833.299	23482
833.437	23531
833.576	23657
833.714	23634
833.852	23566
833.991	23699
834.129	23653
834.267	23668
834.406	23562
834.544	23657
834.682	23661
834.821	23528
834.959	23741
835.097	23581
835.235	23726
835.373	23551
835.511	23604
835.65	23463
835.788	23315
835.926	23292
836.064	23193
836.202	23303
836.34	23455
836.478	23524
836.615	23315
836.753	23398
836.891	23558
837.029	23486
837.167	23440
837.305	23402
837.443	23334
837.58	23322
837.718	23246
837.856	23223
837.993	23265
838.131	23341
838.269	23159
838.406	23189
838.544	23121
838.681	22972
838.819	23003
838.956	22854
839.094	22854
839.231	22858
839.369	22911
839.506	23189
839.643	23010
839.781	22824
839.918	22759
840.055	22771
840.193	22752
840.33	22592
840.467	22694
840.604	22653
840.742	23010
840.879	22744
841.016	22618
841.153	22523
841.29	22752
841.427	22729
841.564	22687
841.701	22729
841.838	22698
841.975	22668
842.112	22557
842.249	22535
842.385	22672
842.522	22740
842.659	22565
842.796	22451
842.933	22535
843.069	22443
843.206	22493
843.343	22569
843.479	22573
843.616	22645
843.752	22204
843.889	22268
844.025	22386
844.162	22246
844.298	22299
844.435	22386
844.571	22181
844.708	22367
844.844	22322
844.98	22474
845.117	22390
845.253	22246
845.389	22128
845.525	22154
845.661	22017
845.798	22010
845.934	21975
846.07	21949
846.206	21956
846.342	22082
846.478	21903
846.614	21892
846.75	21797
846.886	21766
847.022	21835
847.158	21705
847.294	21759
847.429	21701
847.565	21694
847.701	21903
847.837	21439
847.972	21450
848.108	21549
848.244	21564
848.379	21405
848.515	21298
848.65	21351
848.786	21374
848.921	21355
849.057	21462
849.192	21298
849.328	21363
849.463	21310
849.598	21275
849.734	21161
849.869	21294
850.004	21142
850.14	21100
850.275	21077
850.41	21085
850.545	21081
850.68	21032
850.815	21180
850.95	21081
851.085	21188
851.22	21203
851.355	21093
851.49	21123
851.625	21001
851.76	21089
851.895	21028
852.03	21043
852.165	21066
852.299	21211
852.434	21089
852.569	20998
852.703	21055
852.838	21157
852.973	21165
853.107	21192
853.242	21036
853.376	20941
853.511	20895
853.645	20933
853.78	21055
853.914	20864
854.048	20842
854.183	20914
854.317	20994
854.451	21119
854.585	21058
854.72	20838
854.854	20979
854.988	20754
855.122	20918
855.256	20811
855.39	20956
855.524	20887
855.658	20944
855.792	20963
855.926	20929
856.06	20845
856.194	21047
856.327	20853
856.461	20792
856.595	20800
856.729	20967
856.862	20971
856.996	20933
857.13	20910
857.263	20906
857.397	21043
857.53	20963
857.664	20971
857.797	20990
857.931	20937
858.064	20906
858.197	21119
858.331	20899
858.464	20918
858.597	20796
858.731	20895
858.864	20937
858.997	20887
859.13	20925
859.263	20853
859.396	20982
859.529	20880
859.662	20883
859.795	20823
859.928	21005
860.061	21146
860.194	21043
860.327	21005
860.46	21047
860.592	20960
860.725	21051
860.858	20990
860.99	20857
861.123	20872
861.256	20800
861.388	20872
861.521	21686
861.653	20781
861.786	20663
861.918	20712
862.05	20750
862.183	20880
862.315	20883
862.447	20979
862.58	20785
862.712	20777
862.844	20697
862.976	20811
863.108	20701
863.24	21093
863.372	20594
863.504	20613
863.636	20594
863.768	20765
863.9	20701
864.032	20590
864.164	20503
864.296	20632
864.428	20796
864.559	20724
864.691	20754
864.823	20697
864.954	20568
865.086	20659
865.217	20579
865.349	20518
865.48	20549
865.612	20419
865.743	20655
865.875	20587
866.006	20499
866.137	20575
866.269	20583
866.4	20533
866.531	20476
866.662	20415
866.793	20495
866.924	20514
867.055	20480
867.186	20503
867.317	20415
867.448	20419
867.579	20385
867.71	20476
867.841	20343
867.972	20583
868.103	20469
868.233	20511
868.364	20427
868.495	20602
868.625	20689
868.756	20800
868.886	20686
869.017	20682
869.147	20941
869.278	20857
869.408	20636
869.539	20693
869.669	20781
869.799	20750
869.929	20849
870.06	20876
870.19	21104
870.32	20986
870.45	20982
870.58	21184
870.71	21226
870.84	21176
870.97	21207
871.1	21173
871.23	21306
871.36	21332
871.489	21222
871.619	21370
871.749	21363
871.879	21397
872.008	21507
872.138	21359
872.267	21313
872.397	21116
872.526	21272
872.656	21173
872.785	21173
872.915	21416
873.044	21428
873.173	21382
873.303	21450
873.432	21416
873.561	21386
873.69	21268
873.819	21386
873.948	21397
874.077	21344
874.206	21230
874.335	21439
874.464	21439
874.593	21690
874.722	21424
874.851	21591
874.979	21652
875.108	21667
875.237	21561
875.365	21439
875.494	21610
875.623	21671
875.751	21523
875.88	21637
876.008	21720
876.136	21739
876.265	22059
876.393	22158
876.521	22029
876.65	22070
876.778	21987
876.906	21945
877.034	21937
877.162	21987
877.29	21884
877.418	21854
877.546	22013
877.674	22025
877.802	21911
877.93	21949
878.058	21816
878.185	21835
878.313	21804
878.441	21854
878.568	21797
878.696	21922
878.824	21953
878.951	21964
879.079	22097
879.206	22253
879.333	22044
879.461	22090
879.588	22238
879.715	22166
879.842	22173
879.97	22032
880.097	21736
880.224	21762
880.351	21865
880.478	21797
880.605	21720
880.732	21755
880.859	22006
880.986	21808
881.112	21857
881.239	21595
881.366	21519
881.493	21393
881.619	21454
881.746	21469
881.872	21313
881.999	21291
882.125	21230
882.252	21294
882.378	21344
882.505	21382
882.631	21169
882.757	21081
882.883	21188
883.01	21062
883.136	20933
883.262	20941
883.388	20925
883.514	21036
883.64	20998
883.766	20979
883.892	20750
884.018	20902
884.143	21024
884.269	21108
884.395	20724
884.52	20613
884.646	20708
884.772	20686
884.897	20609
885.023	20746
885.148	20731
885.274	20815
885.399	20800
885.524	20651
885.65	20670
885.775	20720
885.9	20674
886.025	20826
886.15	20693
886.275	20648
886.4	20499
886.525	20674
886.65	20632
886.775	20583
886.9	20826
887.025	20910
887.149	20689
887.274	20427
887.399	20431
887.523	20366
887.648	20423
887.773	20404
887.897	20446
888.021	20400
888.146	20351
888.27	20564
888.395	20522
888.519	20465
888.643	20545
888.767	20511
888.891	20282
889.015	20351
889.139	20336
889.263	20282
889.387	20290
889.511	20488
889.635	20454
889.759	20206
889.883	20202
890.006	20244
890.13	20446
890.254	20115
890.377	20164
890.501	20062
890.624	19974
890.748	20077
890.871	20024
890.995	19814
891.118	19731
891.241	19776
891.364	19879
891.488	19982
891.611	19955
891.734	19791
891.857	19879
891.98	19906
892.103	19879
892.226	19769
892.349	19856
892.471	19590
892.594	19890
892.717	19784
892.839	19674
892.962	19833
893.085	19769
893.207	19746
893.33	19784
893.452	19723
893.575	19814
893.697	19746
893.819	19902
893.941	20020
894.064	19959
894.186	19788
894.308	19620
894.43	19791
894.552	19932
894.674	19826
894.796	19674
894.918	19643
895.04	19658
895.161	19837
895.283	19917
895.405	19666
895.526	19635
895.648	19693
895.769	19742
895.891	19864
896.012	19841
896.134	19833
896.255	19624
896.376	19655
896.498	19742
896.619	19936
896.74	19723
896.861	19830
896.982	20031
897.103	20149
897.224	20005
897.345	19951
897.466	19902
897.587	19890
897.708	20103
897.828	20107
897.949	19906
898.07	19803
898.19	19913
898.311	20024
898.431	19970
898.552	19963
898.672	20100
898.792	20027
898.913	20020
899.033	19909
899.153	19780
899.273	19715
899.393	19677
899.513	19734
899.633	19719
899.753	19719
899.873	19624
899.993	19734
900.113	19685
900.232	19822
900.352	19658
900.472	19491
900.591	19468
900.711	19552
900.83	19419
900.95	19628
901.069	19578
901.189	19453
901.308	19099
901.427	19164
901.546	19099
901.665	19034
901.784	18985
901.904	18985
902.023	18791
902.141	18730
902.26	18620
902.379	18719
902.498	18597
902.617	18528
902.735	18688
902.854	18639
902.973	18498
903.091	18270
903.21	18277
903.328	18251
903.446	18228
903.565	18148
903.683	18136
903.801	17939
903.919	18060
904.038	18034
904.156	17935
904.274	17893
904.392	17935
904.51	17794
904.627	17870
904.745	17813
904.863	17889
904.981	17619
905.098	17493
905.216	17425
905.334	17463
905.451	17604
905.569	17406
905.686	17524
905.803	17558
905.921	17364
906.038	17395
906.155	17261
906.272	17254
906.389	17277
906.506	17105
906.623	17079
906.74	16957
906.857	16896
906.974	17071
907.091	17200
907.208	17200
907.324	17124
907.441	17064
907.557	16839
907.674	16793
907.79	16717
907.907	16824
908.023	16801
908.139	16805
908.256	16786
908.372	16755
908.488	16679
908.604	16580
908.72	16512
908.836	16489
908.952	16504
909.068	16607
909.184	16607
909.3	16527
909.415	16554
909.531	16599
909.647	16299
909.762	16246
909.878	16124
909.993	16226
910.108	16150
910.224	16291
910.339	16181
910.454	16135
910.57	16044
910.685	16002
910.8	16200
910.915	16215
911.03	16135
911.145	15972
911.259	15808
911.374	15888
911.489	15793
911.604	15739
911.718	15603
911.833	15660
911.947	15458
912.062	15458
912.176	15584
912.291	15690
912.405	15686
912.519	15785
912.633	15709
912.748	15534
912.862	15504
912.976	15355
913.09	15374
913.204	15344
913.318	15363
913.431	15477
913.545	15606
913.659	15458
913.772	15340
913.886	15279
914	15214
914.113	15363
914.226	15310
914.34	15249
914.453	15165
914.566	15211
914.68	15104
914.793	15058
914.906	14921
915.019	14876
915.132	14811
915.245	14845
915.358	14830
915.47	14826
915.583	14910
915.696	14823
915.809	14921
915.921	14921
916.034	14857
916.146	14720
916.259	14693
916.371	14857
916.483	14720
916.595	14571
916.708	14655
916.82	14651
916.932	14773
917.044	14678
917.156	14545
917.268	14560
917.38	14461
917.491	14408
917.603	14526
917.715	14575
917.826	14610
917.938	14423
918.049	14358
918.161	14393
918.272	14503
918.384	14613
918.495	14389
918.606	14259
918.717	14244
918.828	14271
918.939	14282
919.05	14187
919.161	14191
919.272	14107
919.383	14123
919.494	14328
919.604	14480
919.715	14142
919.826	14138
919.936	14225
920.047	14221
920.157	14180
920.267	14317
920.378	14142
920.488	14214
920.598	14438
920.708	14545
920.818	14461
920.928	14385
921.038	14598
921.148	14480
921.258	14210
921.368	14084
921.477	13944
921.587	13921
921.697	13833
921.806	13947
921.916	13791
922.025	13677
922.134	13609
922.244	13609
922.353	13689
922.462	13518
922.571	13464
922.68	13175
922.789	13266
922.898	13263
923.007	13236
923.116	13240
923.224	13213
923.333	13133
923.442	13141
923.55	13061
923.659	13168
923.767	13171
923.876	13088
923.984	13126
924.092	13012
924.201	13095
924.309	12958
924.417	13023
924.525	12894
924.633	13019
924.741	13887
924.849	12787
924.956	12924
925.064	12719
925.172	12585
925.279	12711
925.387	12692
925.494	12681
925.602	12700
925.709	12738
925.816	12578
925.924	12692
926.031	12662
926.138	12608
926.245	12700
926.352	12521
926.459	12703
926.566	12707
926.673	12540
926.779	12506
926.886	12426
926.993	12258
927.099	12281
927.206	12213
927.312	12216
927.419	12285
927.525	12197
927.631	12292
927.737	12197
927.843	12076
927.95	11984
928.056	12083
928.162	12087
928.267	12167
928.373	12597
928.479	12155
928.585	11912
928.69	12098
928.796	12114
928.901	11912
929.007	11767
929.112	11927
929.218	11893
929.323	11870
929.428	11832
929.533	11969
929.638	11726
929.743	11798
929.848	11771
929.953	11767
930.058	11653
930.163	11509
930.267	11570
930.372	11630
930.477	11421
930.581	11699
930.685	11512
930.79	11402
930.894	11440
930.998	11368
931.103	11509
931.207	11162
931.311	11056
931.415	10957
931.519	10755
931.623	10820
