Data from test_V78500241_2213.txt Node
Date: Fri Mar 25 15:25:16 CST 2022
User: usil
Spectrometer: V785-0024
Trigger mode: 0
Integration Time (sec): 4.000000E-1
Scans to average: 1
Nonlinearity correction enabled: false
Boxcar width: 0
Storing dark spectrum: false
XAxis mode: Wavelengths
Number of Pixels in Spectrum: 1024
>>>>>Begin Spectral Data<<<<<
801.071	27819
801.214	27804
801.356	27572
801.499	27603
801.641	27351
801.783	27378
801.926	27401
802.068	27363
802.211	27370
802.353	27150
802.496	27043
802.638	27032
802.78	27096
802.923	26937
803.065	26948
803.208	26883
803.35	26994
803.492	27222
803.635	27230
803.777	27020
803.919	27344
804.061	27519
804.204	27405
804.346	27226
804.488	27184
804.63	27066
804.773	27154
804.915	27264
805.057	27370
805.199	27279
805.341	27275
805.483	27393
805.626	27412
805.768	27256
805.91	27393
806.052	27370
806.194	27249
806.336	27667
806.478	27363
806.62	27294
806.762	27538
806.904	27614
807.046	27899
807.188	27808
807.33	27869
807.472	27914
807.614	27686
807.756	27724
807.898	27564
808.04	27534
808.182	27637
808.324	27637
808.465	27682
808.607	27808
808.749	28078
808.891	28162
809.033	28150
809.174	28082
809.316	27899
809.458	27998
809.6	27895
809.741	28036
809.883	28109
810.025	28188
810.166	28276
810.308	28181
810.45	28200
810.591	28082
810.733	28078
810.875	27994
811.016	27972
811.158	27846
811.299	28116
811.441	28025
811.582	28162
811.724	28059
811.865	27907
812.007	27979
812.148	27987
812.29	27934
812.431	28112
812.573	28291
812.714	28443
812.855	28344
812.997	28561
813.138	28721
813.279	28740
813.421	28516
813.562	28371
813.703	28436
813.845	28253
813.986	27968
814.127	27876
814.268	27755
814.41	27717
814.551	27717
814.692	27808
814.833	27610
814.974	27625
815.115	27759
815.256	27439
815.397	27679
815.539	27507
815.68	27637
815.821	27329
815.962	27405
816.103	27511
816.244	27329
816.385	27245
816.526	27146
816.666	26979
816.807	26990
816.948	27085
817.089	26937
817.23	26921
817.371	26986
817.512	27039
817.653	26914
817.793	26990
817.934	26887
818.075	27036
818.216	26986
818.356	26792
818.497	26804
818.638	26678
818.778	26750
818.919	26724
819.06	26621
819.2	26849
819.341	26921
819.481	26933
819.622	27112
819.762	27165
819.903	27199
820.043	27245
820.184	27077
820.324	26960
820.465	27104
820.605	27058
820.746	27203
820.886	26921
821.026	27066
821.167	26842
821.307	27093
821.447	26925
821.588	26762
821.728	26682
821.868	26678
822.008	26453
822.149	26450
822.289	26484
822.429	26134
822.569	26001
822.709	26062
822.849	26035
822.99	25955
823.13	25989
823.27	25856
823.41	25761
823.55	25613
823.69	25818
823.83	25742
823.97	25727
824.11	25605
824.25	25430
824.389	25586
824.529	25559
824.669	25594
824.809	25708
824.949	25666
825.089	25575
825.228	25559
825.368	25384
825.508	25350
825.648	25529
825.787	25453
825.927	25373
826.067	25343
826.206	25244
826.346	25324
826.485	25407
826.625	25441
826.765	25586
826.904	25369
827.044	25187
827.183	25179
827.323	25023
827.462	25213
827.601	25217
827.741	24947
827.88	25293
828.02	25072
828.159	25069
828.298	25050
828.437	25103
828.577	25012
828.716	25156
828.855	25050
828.994	24928
829.134	24798
829.273	24981
829.412	24875
829.551	24814
829.69	24844
829.829	24867
829.968	24962
830.107	24909
830.246	24837
830.385	24696
830.524	24669
830.663	24726
830.802	24593
830.941	24365
831.08	24422
831.219	24551
831.357	24498
831.496	24669
831.635	24601
831.774	24418
831.913	24197
832.051	24171
832.19	24342
832.329	24133
832.467	24232
832.606	24022
832.744	24045
832.883	24121
833.022	23916
833.16	24091
833.299	24152
833.437	24064
833.576	24136
833.714	24144
833.852	24182
833.991	24251
834.129	24216
834.267	24273
834.406	24110
834.544	24136
834.682	24258
834.821	24121
834.959	24403
835.097	23992
835.235	24125
835.373	24178
835.511	24178
835.65	24030
835.788	23965
835.926	23999
836.064	23851
836.202	23809
836.34	23969
836.478	24095
836.615	24011
836.753	23992
836.891	23999
837.029	23935
837.167	23908
837.305	23942
837.443	23863
837.58	23836
837.718	23889
837.856	23714
837.993	23817
838.131	23874
838.269	23657
838.406	23684
838.544	23642
838.681	23509
838.819	23429
838.956	23334
839.094	23322
839.231	23292
839.369	23505
839.506	23729
839.643	23429
839.781	23200
839.918	23162
840.055	23189
840.193	23231
840.33	23140
840.467	23311
840.604	23353
840.742	23398
840.879	23117
841.016	23170
841.153	23064
841.29	23299
841.427	23200
841.564	23174
841.701	23280
841.838	23079
841.975	23181
842.112	23083
842.249	23014
842.385	23006
842.522	23216
842.659	22984
842.796	22942
842.933	22850
843.069	22968
843.206	22805
843.343	23052
843.479	23018
843.616	23029
843.752	22790
843.889	22649
844.025	22866
844.162	22805
844.298	22911
844.435	22710
844.571	22759
844.708	22831
844.844	22938
844.98	22797
845.117	22801
845.253	22653
845.389	22565
845.525	22630
845.661	22546
845.798	22424
845.934	22546
846.07	22360
846.206	22554
846.342	22546
846.478	22402
846.614	22360
846.75	22147
846.886	22131
847.022	22230
847.158	22268
847.294	22215
847.429	22226
847.565	22265
847.701	22561
847.837	21972
847.972	21964
848.108	22010
848.244	22013
848.379	21823
848.515	21778
848.65	21812
848.786	21732
848.921	21850
849.057	21899
849.192	21892
849.328	21751
849.463	21759
849.598	21739
849.734	21709
849.869	21450
850.004	21530
850.14	21519
850.275	21561
850.41	21462
850.545	21564
850.68	21466
850.815	21488
850.95	21549
851.085	21720
851.22	21682
851.355	21625
851.49	21641
851.625	21504
851.76	21542
851.895	21447
852.03	21447
852.165	21587
852.299	21507
852.434	21663
852.569	21557
852.703	21568
852.838	21545
852.973	21720
853.107	21622
853.242	21549
853.376	21431
853.511	21161
853.645	21363
853.78	21477
853.914	21416
854.048	21458
854.183	21351
854.317	21435
854.451	21530
854.585	21344
854.72	21287
854.854	21435
854.988	21332
855.122	21317
855.256	21268
855.39	21462
855.524	21389
855.658	21549
855.792	21401
855.926	21386
856.06	21359
856.194	21469
856.327	21348
856.461	21184
856.595	21268
856.729	21374
856.862	21458
856.996	21408
857.13	21325
857.263	21435
857.397	21450
857.53	21317
857.664	21416
857.797	21405
857.931	21393
858.064	21504
858.197	21469
858.331	21340
858.464	21378
858.597	21272
858.731	21325
858.864	21397
858.997	21264
859.13	21405
859.263	21325
859.396	21447
859.529	21214
859.662	21256
859.795	21264
859.928	21344
860.061	21492
860.194	21583
860.327	21519
860.46	21466
860.592	21481
860.725	21439
860.858	21511
860.99	21389
861.123	21112
861.256	21268
861.388	21405
861.521	22211
861.653	21214
861.786	21184
861.918	21218
862.05	21275
862.183	21279
862.315	21245
862.447	21313
862.58	21264
862.712	21043
862.844	21009
862.976	21214
863.108	21154
863.24	21325
863.372	21108
863.504	21169
863.636	20963
863.768	21154
863.9	21085
864.032	20979
864.164	20982
864.296	21112
864.428	21165
864.559	21241
864.691	21192
864.823	21154
864.954	21058
865.086	21104
865.217	20872
865.349	20990
865.48	20918
865.612	20982
865.743	21028
865.875	20941
866.006	20838
866.137	20952
866.269	21020
866.4	20994
866.531	20906
866.662	20876
866.793	20944
866.924	20914
867.055	20910
867.186	20937
867.317	20880
867.448	20739
867.579	20868
867.71	20765
867.841	20765
867.972	20796
868.103	20830
868.233	20982
868.364	20963
868.495	21043
868.625	21127
868.756	21226
868.886	20944
869.017	21017
869.147	21188
869.278	21100
869.408	21131
869.539	21184
869.669	21211
869.799	21100
869.929	21332
870.06	21157
870.19	21454
870.32	21420
870.45	21534
870.58	21549
870.71	21557
870.84	21671
870.97	21523
871.1	21549
871.23	21739
871.36	21785
871.489	21648
871.619	21720
871.749	21774
871.879	21717
872.008	21660
872.138	21591
872.267	21713
872.397	21538
872.526	21496
872.656	21591
872.785	21625
872.915	21709
873.044	21785
873.173	21804
873.303	21766
873.432	21869
873.561	21759
873.69	21766
873.819	21751
873.948	21835
874.077	21747
874.206	21713
874.335	21838
874.464	21854
874.593	21937
874.722	21903
874.851	21964
874.979	22017
875.108	22017
875.237	21755
875.365	21926
875.494	21968
875.623	21941
875.751	21930
875.88	22029
876.008	22010
876.136	22116
876.265	22466
876.393	22478
876.521	22382
876.65	22409
876.778	22291
876.906	22215
877.034	22318
877.162	22398
877.29	22325
877.418	22253
877.546	22424
877.674	22306
877.802	22409
877.93	22276
878.058	22306
878.185	22131
878.313	22249
878.441	22356
878.568	22276
878.696	22246
878.824	22329
878.951	22409
879.079	22413
879.206	22603
879.333	22470
879.461	22409
879.588	22390
879.715	22428
879.842	22523
879.97	22398
880.097	22204
880.224	21994
880.351	22196
880.478	22101
880.605	22253
880.732	21956
880.859	22341
880.986	22207
881.112	22128
881.239	21979
881.366	21846
881.493	21663
881.619	21793
881.746	21789
881.872	21705
881.999	21580
882.125	21720
882.252	21797
882.378	21755
882.505	21861
882.631	21686
882.757	21389
882.883	21534
883.01	21382
883.136	21519
883.262	21272
883.388	21348
883.514	21351
883.64	21310
883.766	21260
883.892	21119
884.018	21249
884.143	21401
884.269	21477
884.395	21119
884.52	21058
884.646	21013
884.772	20986
884.897	20914
885.023	21116
885.148	21154
885.274	21116
885.399	21157
885.524	21146
885.65	21154
885.775	21020
885.9	21104
886.025	21157
886.15	21116
886.275	21009
886.4	20906
886.525	21077
886.65	21013
886.775	20910
886.9	21150
887.025	21233
887.149	21024
887.274	20804
887.399	20811
887.523	20773
887.648	20682
887.773	20629
887.897	20788
888.021	20830
888.146	20830
888.27	20967
888.395	20994
888.519	20750
888.643	20845
888.767	20921
888.891	20754
889.015	20499
889.139	20724
889.263	20712
889.387	20743
889.511	20777
889.635	20750
889.759	20457
889.883	20686
890.006	20541
890.13	20655
890.254	20518
890.377	20526
890.501	20374
890.624	20278
890.748	20404
890.871	20187
890.995	20149
891.118	20115
891.241	20233
891.364	20240
891.488	20244
891.611	20130
891.734	20233
891.857	20202
891.98	20214
892.103	20107
892.226	20119
892.349	20191
892.471	20073
892.594	20115
892.717	20229
892.839	20145
892.962	20100
893.085	20122
893.207	20069
893.33	19944
893.452	20008
893.575	20103
893.697	20020
893.819	20256
893.941	20286
894.064	20286
894.186	20001
894.308	19986
894.43	20100
894.552	20233
894.674	20180
894.796	20081
894.918	20027
895.04	19951
895.161	20187
895.283	20149
895.405	20008
895.526	20027
895.648	20005
895.769	20138
895.891	20157
896.012	20115
896.134	20168
896.255	20054
896.376	20012
896.498	20142
896.619	20164
896.74	20054
896.861	20084
896.982	20419
897.103	20579
897.224	20446
897.345	20381
897.466	20271
897.587	20423
897.708	20423
897.828	20351
897.949	20161
898.07	20126
898.19	20142
898.311	20400
898.431	20343
898.552	20366
898.672	20423
898.792	20374
898.913	20305
899.033	20191
899.153	20031
899.273	20073
899.393	20168
899.513	20161
899.633	20065
899.753	20126
899.873	19974
899.993	20062
900.113	20069
900.232	20084
900.352	19989
900.472	19951
900.591	19791
900.711	19807
900.83	19856
900.95	19970
901.069	19928
901.189	19807
901.308	19506
901.427	19426
901.546	19411
901.665	19445
901.784	19449
901.904	19251
902.023	19285
902.141	19088
902.26	18954
902.379	19080
902.498	18943
902.617	18909
902.735	18886
902.854	18882
902.973	18905
903.091	18608
903.21	18707
903.328	18650
903.446	18536
903.565	18532
903.683	18509
903.801	18327
903.919	18372
904.038	18330
904.156	18167
904.274	18353
904.392	18190
904.51	18087
904.627	18155
904.745	18155
904.863	18270
904.981	18095
905.098	17920
905.216	17973
905.334	17988
905.451	17870
905.569	17802
905.686	17923
905.803	17859
905.921	17573
906.038	17824
906.155	17627
906.272	17520
906.389	17566
906.506	17478
906.623	17440
906.74	17448
906.857	17273
906.974	17315
907.091	17376
907.208	17512
907.324	17360
907.441	17315
907.557	17185
907.674	17140
907.79	17045
907.907	17124
908.023	17052
908.139	17193
908.256	17014
908.372	16972
908.488	17033
908.604	16866
908.72	16812
908.836	16843
908.952	16831
909.068	16881
909.184	17037
909.3	16839
909.415	16801
909.531	16797
909.647	16607
909.762	16573
909.878	16569
909.993	16535
910.108	16500
910.224	16474
910.339	16516
910.454	16348
910.57	16360
910.685	16337
910.8	16664
910.915	16371
911.03	16261
911.145	16242
911.259	16078
911.374	16124
911.489	16074
911.604	15968
911.718	15892
911.833	15945
911.947	15778
912.062	15720
912.176	15861
912.291	15755
912.405	15922
912.519	16048
912.633	16040
912.748	15895
912.862	15793
912.976	15625
913.09	15530
913.204	15698
913.318	15724
913.431	15751
913.545	15793
913.659	15766
913.772	15690
913.886	15492
914	15557
914.113	15534
914.226	15682
914.34	15420
914.453	15408
914.566	15587
914.68	15393
914.793	15321
914.906	15195
915.019	15104
915.132	15020
915.245	15009
915.358	15077
915.47	15066
915.583	15138
915.696	15051
915.809	15199
915.921	15188
916.034	14998
916.146	14975
916.259	14910
916.371	14933
916.483	15055
916.595	14902
916.708	14971
916.82	14921
916.932	14765
917.044	14929
917.156	14762
917.268	14762
917.38	14800
917.491	14678
917.603	14845
917.715	14727
917.826	14842
917.938	14777
918.049	14670
918.161	14674
918.272	14796
918.384	14762
918.495	14712
918.606	14480
918.717	14541
918.828	14530
918.939	14564
919.05	14412
919.161	14488
919.272	14324
919.383	14423
919.494	14526
919.604	14765
919.715	14492
919.826	14374
919.936	14434
920.047	14571
920.157	14495
920.267	14781
920.378	14431
920.488	14484
920.598	14659
920.708	14686
920.818	14621
920.928	14499
921.038	14762
921.148	14705
921.258	14476
921.368	14362
921.477	14180
921.587	14275
921.697	14062
921.806	14107
921.916	14054
922.025	13928
922.134	13887
922.244	13788
922.353	13875
922.462	13807
922.571	13582
922.68	13487
922.789	13457
922.898	13430
923.007	13430
923.116	13514
923.224	13396
923.333	13407
923.442	13327
923.55	13350
923.659	13289
923.767	13457
923.876	13236
923.984	13301
924.092	13137
924.201	13266
924.309	13206
924.417	13232
924.525	13168
924.633	13217
924.741	13970
924.849	12966
924.956	12973
925.064	13015
925.172	12928
925.279	12928
925.387	12905
925.494	12894
925.602	12966
925.709	12989
925.816	12848
925.924	12829
926.031	12947
926.138	12901
926.245	12863
926.352	12707
926.459	12920
926.566	12848
926.673	12806
926.779	12620
926.886	12707
926.993	12570
927.099	12486
927.206	12464
927.312	12418
927.419	12475
927.525	12502
927.631	12502
927.737	12334
927.843	12327
927.95	12178
928.056	12266
928.162	12300
928.267	12296
928.373	12916
928.479	12467
928.585	12114
928.69	12167
928.796	12353
928.901	12220
929.007	12045
929.112	12091
929.218	12186
929.323	12057
929.428	11961
929.533	12121
929.638	11969
929.743	12022
929.848	12026
929.953	11946
930.058	11882
930.163	11756
930.267	11745
930.372	11859
930.477	11695
930.581	11893
930.685	11722
930.79	11604
930.894	11630
930.998	11543
931.103	11745
931.207	11364
931.311	11265
931.415	11159
931.519	11033
931.623	10930
