Data from test_V78500241_1244.txt Node
Date: Fri Mar 25 15:18:31 CST 2022
User: usil
Spectrometer: V785-0024
Trigger mode: 0
Integration Time (sec): 4.000000E-1
Scans to average: 1
Nonlinearity correction enabled: false
Boxcar width: 0
Storing dark spectrum: false
XAxis mode: Wavelengths
Number of Pixels in Spectrum: 1024
>>>>>Begin Spectral Data<<<<<
801.071	27614
801.214	27663
801.356	27393
801.499	27241
801.641	27150
801.783	27332
801.926	27298
802.068	27279
802.211	27150
802.353	27081
802.496	26895
802.638	26876
802.78	26781
802.923	26773
803.065	26792
803.208	26781
803.35	26823
803.492	27032
803.635	26910
803.777	26834
803.919	26937
804.061	27382
804.204	27036
804.346	26963
804.488	26933
804.63	26944
804.773	26906
804.915	26918
805.057	27077
805.199	27020
805.341	27070
805.483	27169
805.626	27199
805.768	26956
805.91	27119
806.052	27123
806.194	27230
806.336	27317
806.478	27218
806.62	27100
806.762	27268
806.904	27367
807.046	27561
807.188	27477
807.33	27523
807.472	27629
807.614	27526
807.756	27477
807.898	27462
808.04	27321
808.182	27374
808.324	27340
808.465	27378
808.607	27572
808.749	27804
808.891	27819
809.033	27953
809.174	27888
809.316	27576
809.458	27751
809.6	27755
809.741	27854
809.883	27994
810.025	28032
810.166	27934
810.308	27968
810.45	28090
810.591	27941
810.733	27911
810.875	27709
811.016	27800
811.158	27663
811.299	27793
811.441	27884
811.582	27850
811.724	27709
811.865	27751
812.007	27663
812.148	27781
812.29	27907
812.431	27899
812.573	28048
812.714	28268
812.855	28405
812.997	28428
813.138	28428
813.279	28546
813.421	28386
813.562	28314
813.703	28097
813.845	28029
813.986	27709
814.127	27587
814.268	27439
814.41	27507
814.551	27416
814.692	27583
814.833	27329
814.974	27355
815.115	27458
815.256	27291
815.397	27332
815.539	27367
815.68	27302
815.821	27123
815.962	27317
816.103	27275
816.244	27119
816.385	26883
816.526	27039
816.666	26845
816.807	26648
816.948	26777
817.089	26876
817.23	26678
817.371	26720
817.512	26792
817.653	26804
817.793	26701
817.934	26849
818.075	26910
818.216	26826
818.356	26720
818.497	26571
818.638	26518
818.778	26446
818.919	26450
819.06	26606
819.2	26659
819.341	26682
819.481	26651
819.622	26830
819.762	27112
819.903	26872
820.043	27032
820.184	26792
820.324	26887
820.465	26910
820.605	26895
820.746	26891
820.886	26625
821.026	26952
821.167	26804
821.307	26762
821.447	26765
821.588	26606
821.728	26533
821.868	26362
822.008	26294
822.149	26077
822.289	26210
822.429	25860
822.569	25909
822.709	25883
822.849	25799
822.99	25670
823.13	25719
823.27	25655
823.41	25590
823.55	25495
823.69	25567
823.83	25384
823.97	25438
824.11	25327
824.25	25453
824.389	25403
824.529	25426
824.669	25487
824.809	25499
824.949	25495
825.089	25422
825.228	25335
825.368	25187
825.508	25346
825.648	25168
825.787	25240
825.927	25198
826.067	25122
826.206	25255
826.346	25240
826.485	25095
826.625	25282
826.765	25289
826.904	25213
827.044	25015
827.183	25080
827.323	24989
827.462	24992
827.601	24852
827.741	25004
827.88	25023
828.02	24970
828.159	24863
828.298	24935
828.437	24981
828.577	24996
828.716	24966
828.855	24825
828.994	24684
829.134	24707
829.273	24642
829.412	24715
829.551	24551
829.69	24650
829.829	24669
829.968	24715
830.107	24681
830.246	24783
830.385	24517
830.524	24547
830.663	24403
830.802	24346
830.941	24334
831.08	24114
831.219	24342
831.357	24479
831.496	24346
831.635	24262
831.774	24163
831.913	24117
832.051	24106
832.19	24114
832.329	24011
832.467	23893
832.606	24034
832.744	23946
832.883	24026
833.022	23874
833.16	23935
833.299	23931
833.437	24022
833.576	24098
833.714	24003
833.852	24011
833.991	24034
834.129	24133
834.267	24197
834.406	24102
834.544	23969
834.682	24022
834.821	23908
834.959	24247
835.097	23958
835.235	23999
835.373	24064
835.511	23961
835.65	23916
835.788	23961
835.926	23771
836.064	23634
836.202	23657
836.34	23893
836.478	23988
836.615	23882
836.753	23813
836.891	23931
837.029	23920
837.167	23843
837.305	23847
837.443	23775
837.58	23790
837.718	23775
837.856	23836
837.993	23668
838.131	23672
838.269	23623
838.406	23600
838.544	23551
838.681	23261
838.819	23311
838.956	23269
839.094	23117
839.231	23220
839.369	23326
839.506	23638
839.643	23505
839.781	23235
839.918	23124
840.055	23086
840.193	23162
840.33	23155
840.467	23075
840.604	23162
840.742	23341
840.879	23090
841.016	23098
841.153	22904
841.29	23128
841.427	23151
841.564	23010
841.701	23105
841.838	22995
841.975	22892
842.112	22934
842.249	22892
842.385	22790
842.522	22984
842.659	22953
842.796	22812
842.933	22805
843.069	22790
843.206	22862
843.343	22850
843.479	22866
843.616	22767
843.752	22603
843.889	22645
844.025	22782
844.162	22577
844.298	22725
844.435	22683
844.571	22455
844.708	22691
844.844	22866
844.98	22694
845.117	22759
845.253	22516
845.389	22523
845.525	22588
845.661	22569
845.798	22348
845.934	22371
846.07	22230
846.206	22470
846.342	22417
846.478	22405
846.614	22154
846.75	22017
846.886	22036
847.022	22192
847.158	22158
847.294	22192
847.429	22116
847.565	21975
847.701	22280
847.837	21831
847.972	21873
848.108	21915
848.244	21888
848.379	21679
848.515	21622
848.65	21720
848.786	21793
848.921	21603
849.057	21797
849.192	21793
849.328	21797
849.463	21599
849.598	21652
849.734	21561
849.869	21530
850.004	21401
850.14	21397
850.275	21511
850.41	21336
850.545	21428
850.68	21393
850.815	21458
850.95	21428
851.085	21625
851.22	21538
851.355	21587
851.49	21420
851.625	21439
851.76	21416
851.895	21389
852.03	21332
852.165	21530
852.299	21454
852.434	21454
852.569	21580
852.703	21500
852.838	21428
852.973	21610
853.107	21500
853.242	21496
853.376	21214
853.511	21226
853.645	21272
853.78	21439
853.914	21321
854.048	21256
854.183	21241
854.317	21340
854.451	21447
854.585	21275
854.72	21260
854.854	21306
854.988	21135
855.122	21313
855.256	21173
855.39	21310
855.524	21325
855.658	21291
855.792	21302
855.926	21256
856.06	21382
856.194	21298
856.327	21336
856.461	21047
856.595	21325
856.729	21226
856.862	21374
856.996	21401
857.13	21237
857.263	21416
857.397	21496
857.53	21150
857.664	21283
857.797	21348
857.931	21386
858.064	21283
858.197	21401
858.331	21230
858.464	21203
858.597	21287
858.731	21199
858.864	21135
858.997	21192
859.13	21222
859.263	21313
859.396	21382
859.529	21252
859.662	21275
859.795	21169
859.928	21237
860.061	21291
860.194	21443
860.327	21218
860.46	21169
860.592	21363
860.725	21439
860.858	21378
860.99	21283
861.123	21272
861.256	21180
861.388	21233
861.521	21949
861.653	21180
861.786	21058
861.918	21146
862.05	21207
862.183	21146
862.315	21127
862.447	21268
862.58	21161
862.712	21009
862.844	20941
862.976	21085
863.108	21017
863.24	21272
863.372	20998
863.504	20929
863.636	20937
863.768	21055
863.9	20960
864.032	20963
864.164	20956
864.296	21013
864.428	21077
864.559	21108
864.691	21036
864.823	20891
864.954	20929
865.086	21043
865.217	20921
865.349	20758
865.48	20956
865.612	20883
865.743	21100
865.875	20853
866.006	20899
866.137	20918
866.269	20788
866.4	20811
866.531	20845
866.662	20830
866.793	20887
866.924	20708
867.055	20788
867.186	20811
867.317	20739
867.448	20830
867.579	20819
867.71	20708
867.841	20781
867.972	20864
868.103	20777
868.233	20788
868.364	20864
868.495	20910
868.625	20952
868.756	21154
868.886	20998
869.017	20849
869.147	21142
869.278	21146
869.408	21180
869.539	21104
869.669	21089
869.799	21157
869.929	21146
870.06	21207
870.19	21256
870.32	21382
870.45	21351
870.58	21469
870.71	21614
870.84	21485
870.97	21504
871.1	21412
871.23	21595
871.36	21515
871.489	21488
871.619	21625
871.749	21694
871.879	21637
872.008	21861
872.138	21747
872.267	21580
872.397	21542
872.526	21488
872.656	21500
872.785	21428
872.915	21618
873.044	21755
873.173	21557
873.303	21675
873.432	21766
873.561	21781
873.69	21686
873.819	21701
873.948	21671
874.077	21679
874.206	21644
874.335	21865
874.464	21785
874.593	22048
874.722	21907
874.851	21892
874.979	22032
875.108	21899
875.237	21876
875.365	21778
875.494	21842
875.623	21911
875.751	21876
875.88	21934
876.008	22036
876.136	22006
876.265	22261
876.393	22310
876.521	22371
876.65	22295
876.778	22363
876.906	22188
877.034	22246
877.162	22105
877.29	22246
877.418	22192
877.546	22253
877.674	22204
877.802	22268
877.93	22341
878.058	22055
878.185	22154
878.313	22226
878.441	22226
878.568	22067
878.696	22131
878.824	22325
878.951	22421
879.079	22405
879.206	22565
879.333	22451
879.461	22325
879.588	22322
879.715	22440
879.842	22481
879.97	22287
880.097	22154
880.224	22078
880.351	22044
880.478	22040
880.605	22002
880.732	21991
880.859	22238
880.986	21987
881.112	21968
881.239	21987
881.366	21766
881.493	21789
881.619	21599
881.746	21686
881.872	21538
881.999	21614
882.125	21526
882.252	21530
882.378	21568
882.505	21644
882.631	21526
882.757	21344
882.883	21401
883.01	21405
883.136	21264
883.262	21226
883.388	21131
883.514	21332
883.64	21382
883.766	21249
883.892	21119
884.018	21154
884.143	21241
884.269	21428
884.395	21058
884.52	21100
884.646	20937
884.772	20902
884.897	20735
885.023	20933
885.148	21047
885.274	21032
885.399	21104
885.524	20994
885.65	21058
885.775	21043
885.9	20975
886.025	21085
886.15	21032
886.275	20986
886.4	20899
886.525	20910
886.65	20788
886.775	20956
886.9	21142
887.025	21116
887.149	20861
887.274	20899
887.399	20792
887.523	20731
887.648	20640
887.773	20682
887.897	20876
888.021	20659
888.146	20663
888.27	20868
888.395	20902
888.519	20777
888.643	20758
888.767	20769
888.891	20640
889.015	20625
889.139	20693
889.263	20530
889.387	20644
889.511	20762
889.635	20670
889.759	20473
889.883	20552
890.006	20431
890.13	20651
890.254	20541
890.377	20465
890.501	20320
890.624	20256
890.748	20263
890.871	20271
890.995	20122
891.118	20065
891.241	20058
891.364	20130
891.488	20164
891.611	20168
891.734	20027
891.857	20016
891.98	20077
892.103	20202
892.226	20111
892.349	20084
892.471	19772
892.594	20084
892.717	20069
892.839	20012
892.962	20005
893.085	19989
893.207	19978
893.33	19978
893.452	19944
893.575	20084
893.697	19997
893.819	20229
893.941	20275
894.064	20180
894.186	19997
894.308	19925
894.43	20103
894.552	20221
894.674	20016
894.796	19887
894.918	20043
895.04	20020
895.161	20115
895.283	20100
895.405	19849
895.526	19955
895.648	19925
895.769	20012
895.891	20122
896.012	20103
896.134	20062
896.255	19989
896.376	20027
896.498	19967
896.619	20069
896.74	20092
896.861	20199
896.982	20309
897.103	20556
897.224	20271
897.345	20183
897.466	20240
897.587	20290
897.708	20320
897.828	20313
897.949	20248
898.07	20134
898.19	20214
898.311	20278
898.431	20259
898.552	20313
898.672	20347
898.792	20294
898.913	20153
899.033	20119
899.153	20031
899.273	19928
899.393	19963
899.513	20092
899.633	20065
899.753	20027
899.873	20065
899.993	19947
900.113	19967
900.232	19974
900.352	19841
900.472	19928
900.591	19700
900.711	19822
900.83	19693
900.95	19871
901.069	19841
901.189	19666
901.308	19472
901.427	19369
901.546	19438
901.665	19362
901.784	19270
901.904	19183
902.023	19072
902.141	18981
902.26	19000
902.379	18947
902.498	18878
902.617	18882
902.735	18894
902.854	18916
902.973	18741
903.091	18517
903.21	18555
903.328	18513
903.446	18414
903.565	18391
903.683	18281
903.801	18357
903.919	18194
904.038	18235
904.156	18140
904.274	18190
904.392	18057
904.51	18106
904.627	18125
904.745	18174
904.863	18220
904.981	17950
905.098	17809
905.216	17676
905.334	17847
905.451	17775
905.569	17912
905.686	17729
905.803	17794
905.921	17684
906.038	17577
906.155	17539
906.272	17524
906.389	17509
906.506	17364
906.623	17383
906.74	17303
906.857	17181
906.974	17345
907.091	17391
907.208	17444
907.324	17410
907.441	17204
907.557	17010
907.674	17083
907.79	17056
907.907	16968
908.023	16987
908.139	17109
908.256	16934
908.372	16987
908.488	16839
908.604	16889
908.72	16710
908.836	16889
908.952	16824
909.068	16748
909.184	16831
909.3	16740
909.415	16824
909.531	16797
909.647	16584
909.762	16466
909.878	16531
909.993	16500
910.108	16455
910.224	16390
910.339	16379
910.454	16405
910.57	16325
910.685	16261
910.8	16554
910.915	16466
911.03	16337
911.145	16147
911.259	16086
911.374	16063
911.489	15941
911.604	16021
911.718	15808
911.833	15808
911.947	15698
912.062	15584
912.176	15797
912.291	15766
912.405	15762
912.519	15968
912.633	15960
912.748	15907
912.862	15713
912.976	15523
913.09	15462
913.204	15629
913.318	15603
913.431	15724
913.545	15728
913.659	15720
913.772	15694
913.886	15351
914	15477
914.113	15466
914.226	15507
914.34	15458
914.453	15283
914.566	15412
914.68	15435
914.793	15264
914.906	15051
915.019	15066
915.132	14948
915.245	15009
915.358	15116
915.47	15081
915.583	14937
915.696	15032
915.809	15188
915.921	15146
916.034	15028
916.146	14872
916.259	14857
916.371	14876
916.483	14929
916.595	14910
916.708	14853
916.82	14883
916.932	14804
917.044	14811
917.156	14815
917.268	14678
917.38	14708
917.491	14739
917.603	14731
917.715	14754
917.826	14819
917.938	14598
918.049	14469
918.161	14678
918.272	14811
918.384	14769
918.495	14621
918.606	14564
918.717	14469
918.828	14431
918.939	14438
919.05	14343
919.161	14362
919.272	14244
919.383	14343
919.494	14518
919.604	14617
919.715	14465
919.826	14324
919.936	14377
920.047	14404
920.157	14400
920.267	14625
920.378	14358
920.488	14301
920.598	14541
920.708	14667
920.818	14480
920.928	14457
921.038	14678
921.148	14640
921.258	14355
921.368	14358
921.477	14214
921.587	14111
921.697	13974
921.806	14229
921.916	13970
922.025	13883
922.134	13791
922.244	13677
922.353	13818
922.462	13670
922.571	13537
922.68	13422
922.789	13396
922.898	13403
923.007	13396
923.116	13510
923.224	13434
923.333	13354
923.442	13339
923.55	13327
923.659	13350
923.767	13266
923.876	13175
923.984	13316
924.092	13179
924.201	13171
924.309	13221
924.417	13221
924.525	13072
924.633	13038
924.741	13841
924.849	12882
924.956	13103
925.064	12954
925.172	12703
925.279	12897
925.387	12882
925.494	12871
925.602	12973
925.709	12928
925.816	12810
925.924	12878
926.031	12802
926.138	12852
926.245	12753
926.352	12726
926.459	12795
926.566	12806
926.673	12722
926.779	12578
926.886	12604
926.993	12380
927.099	12422
927.206	12407
927.312	12357
927.419	12475
927.525	12483
927.631	12414
927.737	12315
927.843	12308
927.95	12186
928.056	12281
928.162	12262
928.267	12201
928.373	12909
928.479	12289
928.585	12060
928.69	12266
928.796	12133
928.901	12114
929.007	11977
929.112	12098
929.218	12041
929.323	11996
929.428	11935
929.533	12136
929.638	11950
929.743	11870
929.848	12030
929.953	11897
930.058	11912
930.163	11619
930.267	11684
930.372	11790
930.477	11661
930.581	11859
930.685	11764
930.79	11604
930.894	11554
930.998	11478
931.103	11592
931.207	11235
931.311	11220
931.415	11098
931.519	10957
931.623	10892
