Data from test_V78500241_1163.txt Node
Date: Fri Mar 25 15:17:57 CST 2022
User: usil
Spectrometer: V785-0024
Trigger mode: 0
Integration Time (sec): 4.000000E-1
Scans to average: 1
Nonlinearity correction enabled: false
Boxcar width: 0
Storing dark spectrum: false
XAxis mode: Wavelengths
Number of Pixels in Spectrum: 1024
>>>>>Begin Spectral Data<<<<<
801.071	28348
801.214	28337
801.356	28093
801.499	28078
801.641	27922
801.783	27983
801.926	27930
802.068	28090
802.211	27956
802.353	27797
802.496	27751
802.638	27553
802.78	27568
802.923	27652
803.065	27549
803.208	27511
803.35	27568
803.492	27736
803.635	27831
803.777	27705
803.919	27831
804.061	28154
804.204	27857
804.346	27770
804.488	27629
804.63	27766
804.773	27641
804.915	27861
805.057	27888
805.199	27930
805.341	27956
805.483	27994
805.626	28074
805.768	27854
805.91	27937
806.052	27945
806.194	27876
806.336	28055
806.478	27979
806.62	27873
806.762	28135
806.904	28150
807.046	28394
807.188	28401
807.33	28405
807.472	28500
807.614	28295
807.756	28382
807.898	28280
808.04	28333
808.182	28219
808.324	28398
808.465	28306
808.607	28596
808.749	28778
808.891	28809
809.033	28892
809.174	28706
809.316	28394
809.458	28733
809.6	28611
809.741	28797
809.883	28869
810.025	28957
810.166	28801
810.308	28934
810.45	28824
810.591	28797
810.733	28782
810.875	28740
811.016	28637
811.158	28599
811.299	28683
811.441	28793
811.582	28660
811.724	28656
811.865	28660
812.007	28668
812.148	28668
812.29	28664
812.431	28911
812.573	29018
812.714	29105
812.855	29231
812.997	29200
813.138	29261
813.279	29455
813.421	29178
813.562	29178
813.703	29094
813.845	28862
813.986	28637
814.127	28440
814.268	28455
814.41	28382
814.551	28310
814.692	28523
814.833	28173
814.974	28329
815.115	28459
815.256	28371
815.397	28322
815.539	28257
815.68	28173
815.821	28169
815.962	28223
816.103	28131
816.244	28124
816.385	27968
816.526	27975
816.666	27918
816.807	27728
816.948	27747
817.089	27823
817.23	27679
817.371	27572
817.512	27545
817.653	27618
817.793	27545
817.934	27785
818.075	27720
818.216	27625
818.356	27564
818.497	27523
818.638	27351
818.778	27507
818.919	27469
819.06	27587
819.2	27694
819.341	27759
819.481	27694
819.622	27892
819.762	28048
819.903	27964
820.043	27778
820.184	27918
820.324	27819
820.465	27732
820.605	27781
820.746	27747
820.886	27663
821.026	27759
821.167	27732
821.307	27827
821.447	27641
821.588	27614
821.728	27393
821.868	27237
822.008	27066
822.149	27165
822.289	27154
822.429	27036
822.569	26929
822.709	26849
822.849	26674
822.99	26807
823.13	26602
823.27	26606
823.41	26537
823.55	26549
823.69	26511
823.83	26602
823.97	26419
824.11	26351
824.25	26320
824.389	26301
824.529	26461
824.669	26351
824.809	26446
824.949	26453
825.089	26499
825.228	26400
825.368	26199
825.508	26180
825.648	26278
825.787	26271
825.927	26290
826.067	26180
826.206	26221
826.346	26267
826.485	26267
826.625	26210
826.765	26275
826.904	26122
827.044	26039
827.183	25970
827.323	25932
827.462	25978
827.601	25928
827.741	25951
827.88	26012
828.02	25811
828.159	26008
828.298	25818
828.437	25944
828.577	25826
828.716	26100
828.855	25898
828.994	25727
829.134	25753
829.273	25677
829.412	25639
829.551	25540
829.69	25575
829.829	25674
829.968	25723
830.107	25658
830.246	25700
830.385	25662
830.524	25666
830.663	25510
830.802	25377
830.941	25255
831.08	25297
831.219	25308
831.357	25312
831.496	25506
831.635	25346
831.774	25247
831.913	25107
832.051	25034
832.19	25137
832.329	25080
832.467	24863
832.606	24837
832.744	24939
832.883	25122
833.022	24989
833.16	24913
833.299	25053
833.437	25004
833.576	24958
833.714	25110
833.852	25072
833.991	25114
834.129	25129
834.267	25034
834.406	24970
834.544	25061
834.682	25088
834.821	25019
834.959	25320
835.097	25008
835.235	24973
835.373	24985
835.511	25012
835.65	24962
835.788	24886
835.926	24840
836.064	24757
836.202	24665
836.34	24897
836.478	24958
836.615	24745
836.753	24878
836.891	24985
837.029	24764
837.167	24920
837.305	24795
837.443	24817
837.58	24639
837.718	24673
837.856	24753
837.993	24525
838.131	24658
838.269	24494
838.406	24601
838.544	24464
838.681	24304
838.819	24334
838.956	24209
839.094	24011
839.231	24239
839.369	24285
839.506	24681
839.643	24384
839.781	24178
839.918	23977
840.055	24060
840.193	24266
840.33	24079
840.467	24095
840.604	24034
840.742	24292
840.879	23897
841.016	24060
841.153	23969
841.29	24186
841.427	24152
841.564	23980
841.701	24018
841.838	24003
841.975	23920
842.112	23977
842.249	23935
842.385	23676
842.522	23942
842.659	23942
842.796	23733
842.933	23878
843.069	23760
843.206	23851
843.343	23817
843.479	23901
843.616	23870
843.752	23554
843.889	23604
844.025	23878
844.162	23547
844.298	23741
844.435	23535
844.571	23581
844.708	23722
844.844	23752
844.98	23665
845.117	23775
845.253	23577
845.389	23455
845.525	23524
845.661	23429
845.798	23383
845.934	23395
846.07	23200
846.206	23444
846.342	23368
846.478	23250
846.614	23128
846.75	22976
846.886	22995
847.022	23102
847.158	23044
847.294	23136
847.429	23064
847.565	23014
847.701	23166
847.837	22706
847.972	22675
848.108	22736
848.244	22850
848.379	22618
848.515	22672
848.65	22664
848.786	22641
848.921	22508
849.057	22729
849.192	22721
849.328	22683
849.463	22672
849.598	22538
849.734	22577
849.869	22440
850.004	22527
850.14	22440
850.275	22325
850.41	22424
850.545	22371
850.68	22337
850.815	22538
850.95	22344
851.085	22603
851.22	22592
851.355	22421
851.49	22337
851.625	22375
851.76	22535
851.895	22333
852.03	22462
852.165	22432
852.299	22481
852.434	22455
852.569	22341
852.703	22329
852.838	22413
852.973	22489
853.107	22497
853.242	22265
853.376	22211
853.511	22219
853.645	22196
853.78	22371
853.914	22139
854.048	22169
854.183	22105
854.317	22223
854.451	22459
854.585	22314
854.72	22322
854.854	22215
854.988	22109
855.122	22249
855.256	22150
855.39	22314
855.524	22234
855.658	22284
855.792	22280
855.926	22291
856.06	22284
856.194	22268
856.327	22257
856.461	22112
856.595	22101
856.729	22169
856.862	22276
856.996	22246
857.13	22272
857.263	22333
857.397	22310
857.53	22131
857.664	22310
857.797	22238
857.931	22375
858.064	22272
858.197	22356
858.331	22287
858.464	22204
858.597	22150
858.731	22306
858.864	22169
858.997	22105
859.13	22139
859.263	22173
859.396	22234
859.529	22249
859.662	22154
859.795	22166
859.928	22280
860.061	22455
860.194	22466
860.327	22215
860.46	22344
860.592	22295
860.725	22398
860.858	22314
860.99	22363
861.123	22101
861.256	22139
861.388	22291
861.521	22923
861.653	22112
861.786	22063
861.918	22181
862.05	22154
862.183	22112
862.315	22242
862.447	22226
862.58	22124
862.712	21930
862.844	21991
862.976	22036
863.108	22032
863.24	22352
863.372	21964
863.504	21884
863.636	22032
863.768	21937
863.9	21983
864.032	21888
864.164	21968
864.296	21831
864.428	21975
864.559	22040
864.691	22101
864.823	21953
864.954	21857
865.086	21895
865.217	21857
865.349	21759
865.48	21785
865.612	21842
865.743	21888
865.875	21861
866.006	21827
866.137	21808
866.269	21804
866.4	21854
866.531	21694
866.662	21720
866.793	21625
866.924	21797
867.055	21679
867.186	21717
867.317	21633
867.448	21603
867.579	21553
867.71	21736
867.841	21652
867.972	21800
868.103	21644
868.233	21705
868.364	21770
868.495	21857
868.625	21934
868.756	22002
868.886	21831
869.017	21930
869.147	22173
869.278	22097
869.408	21895
869.539	21960
869.669	22040
869.799	22051
869.929	22185
870.06	22040
870.19	22261
870.32	22162
870.45	22333
870.58	22348
870.71	22523
870.84	22394
870.97	22329
871.1	22447
871.23	22615
871.36	22645
871.489	22561
871.619	22546
871.749	22565
871.879	22615
872.008	22672
872.138	22546
872.267	22523
872.397	22459
872.526	22352
872.656	22325
872.785	22234
872.915	22481
873.044	22622
873.173	22538
873.303	22599
873.432	22542
873.561	22630
873.69	22599
873.819	22519
873.948	22630
874.077	22535
874.206	22542
874.335	22668
874.464	22736
874.593	22755
874.722	22824
874.851	22816
874.979	22721
875.108	22934
875.237	22774
875.365	22763
875.494	22820
875.623	22835
875.751	22801
875.88	22668
876.008	22934
876.136	23090
876.265	23178
876.393	23368
876.521	23200
876.65	23178
876.778	23132
876.906	23181
877.034	23151
877.162	23102
877.29	23159
877.418	23071
877.546	23220
877.674	23075
877.802	22995
877.93	23292
878.058	23037
878.185	22934
878.313	23067
878.441	23060
878.568	22965
878.696	23014
878.824	23349
878.951	23345
879.079	23220
879.206	23395
879.333	23311
879.461	23197
879.588	23223
879.715	23277
879.842	23455
879.97	23246
880.097	22987
880.224	23006
880.351	22999
880.478	22934
880.605	22972
880.732	22976
880.859	23220
880.986	23010
881.112	23010
881.239	22839
881.366	22729
881.493	22626
881.619	22405
881.746	22584
881.872	22592
881.999	22550
882.125	22538
882.252	22592
882.378	22497
882.505	22683
882.631	22352
882.757	22162
882.883	22162
883.01	22230
883.136	22207
883.262	22131
883.388	22112
883.514	22169
883.64	22207
883.766	22055
883.892	21869
884.018	21846
884.143	22032
884.269	22409
884.395	21953
884.52	21793
884.646	21835
884.772	21842
884.897	21759
885.023	21846
885.148	21873
885.274	21998
885.399	21998
885.524	21956
885.65	21804
885.775	21850
885.9	21850
886.025	21903
886.15	21876
886.275	21804
886.4	21747
886.525	21747
886.65	21774
886.775	21781
886.9	21888
887.025	22101
887.149	21728
887.274	21614
887.399	21675
887.523	21686
887.648	21511
887.773	21576
887.897	21629
888.021	21641
888.146	21572
888.27	21667
888.395	21633
888.519	21637
888.643	21656
888.767	21644
888.891	21557
889.015	21359
889.139	21439
889.263	21416
889.387	21416
889.511	21629
889.635	21492
889.759	21321
889.883	21378
890.006	21359
890.13	21504
890.254	21321
890.377	21233
890.501	21180
890.624	21096
890.748	21112
890.871	20868
890.995	20944
891.118	20849
891.241	20975
891.364	20891
891.488	20979
891.611	20918
891.734	20933
891.857	21028
891.98	21036
892.103	20883
892.226	21001
892.349	20891
892.471	20739
892.594	20807
892.717	20853
892.839	20902
892.962	20868
893.085	21024
893.207	20796
893.33	20617
893.452	20765
893.575	20826
893.697	20883
893.819	21066
893.941	20853
894.064	20895
894.186	20674
894.308	20777
894.43	20899
894.552	21051
894.674	20834
894.796	20705
894.918	20811
895.04	20724
895.161	20960
895.283	20849
895.405	20750
895.526	20724
895.648	20834
895.769	20910
895.891	20868
896.012	20963
896.134	20845
896.255	20788
896.376	20746
896.498	20762
896.619	20902
896.74	20762
896.861	20918
896.982	21119
897.103	21207
897.224	21085
897.345	21013
897.466	20891
897.587	21009
897.708	21237
897.828	21024
897.949	21055
898.07	20838
898.19	20891
898.311	21093
898.431	20948
898.552	20918
898.672	21055
898.792	21093
898.913	21104
899.033	20998
899.153	20762
899.273	20724
899.393	20853
899.513	20823
899.633	20823
899.753	20625
899.873	20670
899.993	20716
900.113	20701
900.232	20708
900.352	20560
900.472	20552
900.591	20480
900.711	20560
900.83	20473
900.95	20594
901.069	20609
901.189	20332
901.308	20122
901.427	20039
901.546	20088
901.665	20088
901.784	20107
901.904	19963
902.023	19772
902.141	19601
902.26	19590
902.379	19708
902.498	19670
902.617	19537
902.735	19624
902.854	19563
902.973	19445
903.091	19270
903.21	19244
903.328	19289
903.446	19232
903.565	19091
903.683	19118
903.801	19008
903.919	18871
904.038	18977
904.156	18791
904.274	18859
904.392	18669
904.51	18646
904.627	18802
904.745	18863
904.863	18973
904.981	18582
905.098	18601
905.216	18433
905.334	18365
905.451	18479
905.569	18559
905.686	18525
905.803	18464
905.921	18311
906.038	18361
906.155	18148
906.272	18235
906.389	18197
906.506	18045
906.623	18060
906.74	17961
906.857	17863
906.974	17878
907.091	17980
907.208	18182
907.324	18038
907.441	17946
907.557	17775
907.674	17840
907.79	17668
907.907	17611
908.023	17722
908.139	17722
908.256	17646
908.372	17512
908.488	17596
908.604	17383
908.72	17425
908.836	17444
908.952	17448
909.068	17547
909.184	17577
909.3	17387
909.415	17570
909.531	17463
909.647	17223
909.762	17124
909.878	17075
909.993	17086
910.108	17083
910.224	17094
910.339	17197
910.454	17075
910.57	16942
910.685	16835
910.8	17079
910.915	17086
911.03	16976
911.145	16797
911.259	16748
911.374	16733
911.489	16653
911.604	16577
911.718	16489
911.833	16474
911.947	16360
912.062	16253
912.176	16466
912.291	16508
912.405	16500
912.519	16717
912.633	16622
912.748	16523
912.862	16402
912.976	16284
913.09	16154
913.204	16246
913.318	16219
913.431	16303
913.545	16394
913.659	16421
913.772	16215
913.886	16173
914	16101
914.113	16196
914.226	16253
914.34	16150
914.453	15983
914.566	16162
914.68	15945
914.793	15953
914.906	15728
915.019	15724
915.132	15523
915.245	15625
915.358	15690
915.47	15644
915.583	15629
915.696	15606
915.809	15835
915.921	15751
916.034	15663
916.146	15553
916.259	15458
916.371	15610
916.483	15572
916.595	15431
916.708	15526
916.82	15443
916.932	15481
917.044	15367
917.156	15397
917.268	15226
917.38	15294
917.491	15207
917.603	15272
917.715	15408
917.826	15370
917.938	15150
918.049	15184
918.161	15245
918.272	15374
918.384	15340
918.495	15195
918.606	15036
918.717	14998
918.828	15036
918.939	15055
919.05	14998
919.161	15097
919.272	14773
919.383	14952
919.494	15009
919.604	15249
919.715	14956
919.826	14838
919.936	15055
920.047	15032
920.157	15017
920.267	15230
920.378	15009
920.488	14956
920.598	15203
920.708	15249
920.818	15138
920.928	15135
921.038	15173
921.148	15184
921.258	14960
921.368	14891
921.477	14674
921.587	14807
921.697	14602
921.806	14708
921.916	14473
922.025	14469
922.134	14377
922.244	14366
922.353	14351
922.462	14237
922.571	14081
922.68	13955
922.789	14020
922.898	13925
923.007	13951
923.116	13974
923.224	13978
923.333	13909
923.442	13932
923.55	13795
923.659	13833
923.767	13830
923.876	13788
923.984	13856
924.092	13712
924.201	13765
924.309	13685
924.417	13753
924.525	13666
924.633	13658
924.741	14522
924.849	13529
924.956	13544
925.064	13335
925.172	13289
925.279	13400
925.387	13411
925.494	13350
925.602	13441
925.709	13426
925.816	13240
925.924	13304
926.031	13426
926.138	13270
926.245	13472
926.352	13168
926.459	13441
926.566	13430
926.673	13156
926.779	13209
926.886	13084
926.993	13065
927.099	12977
927.206	12932
927.312	12825
927.419	12920
927.525	12897
927.631	12924
927.737	12802
927.843	12825
927.95	12711
928.056	12783
928.162	12741
928.267	12798
928.373	13270
928.479	12772
928.585	12608
928.69	12635
928.796	12692
928.901	12642
929.007	12506
929.112	12559
929.218	12559
929.323	12464
929.428	12338
929.533	12589
929.638	12410
929.743	12460
929.848	12483
929.953	12422
930.058	12330
930.163	12098
930.267	12197
930.372	12220
930.477	12148
930.581	12289
930.685	12201
930.79	11939
930.894	12041
930.998	11901
931.103	12068
931.207	11748
931.311	11665
931.415	11710
931.519	11376
931.623	11398
