Data from test_V78500241_2592.txt Node
Date: Fri Mar 25 15:27:54 CST 2022
User: usil
Spectrometer: V785-0024
Trigger mode: 0
Integration Time (sec): 4.000000E-1
Scans to average: 1
Nonlinearity correction enabled: false
Boxcar width: 0
Storing dark spectrum: false
XAxis mode: Wavelengths
Number of Pixels in Spectrum: 1024
>>>>>Begin Spectral Data<<<<<
801.071	27306
801.214	27013
801.356	26963
801.499	26876
801.641	26716
801.783	26568
801.926	26735
802.068	26708
802.211	26724
802.353	26522
802.496	26351
802.638	26149
802.78	26278
802.923	26305
803.065	26161
803.208	26092
803.35	26313
803.492	26488
803.635	26549
803.777	26370
803.919	26552
804.061	26815
804.204	26469
804.346	26313
804.488	26290
804.63	26552
804.773	26514
804.915	26461
805.057	26484
805.199	26298
805.341	26488
805.483	26655
805.626	26594
805.768	26370
805.91	26556
806.052	26499
806.194	26377
806.336	26644
806.478	26617
806.62	26484
806.762	26686
806.904	26819
807.046	27036
807.188	27203
807.33	27024
807.472	26986
807.614	27009
807.756	26963
807.898	26906
808.04	26731
808.182	26788
808.324	26792
808.465	26876
808.607	26986
808.749	27203
808.891	27287
809.033	27329
809.174	27195
809.316	27146
809.458	27150
809.6	27047
809.741	27211
809.883	27408
810.025	27336
810.166	27469
810.308	27443
810.45	27443
810.591	27294
810.733	27207
810.875	27131
811.016	27066
811.158	27093
811.299	27389
811.441	27363
811.582	27427
811.724	27306
811.865	27211
812.007	26994
812.148	27085
812.29	27146
812.431	27123
812.573	27397
812.714	27515
812.855	27759
812.997	27663
813.138	27812
813.279	27793
813.421	27545
813.562	27603
813.703	27393
813.845	27325
813.986	27062
814.127	26910
814.268	26864
814.41	26823
814.551	26788
814.692	26845
814.833	26785
814.974	26826
815.115	26857
815.256	26826
815.397	26621
815.539	26659
815.68	26632
815.821	26606
815.962	26705
816.103	26587
816.244	26568
816.385	26267
816.526	26305
816.666	26195
816.807	25982
816.948	26111
817.089	26111
817.23	26183
817.371	25997
817.512	26111
817.653	26065
817.793	26206
817.934	26062
818.075	26039
818.216	26126
818.356	26111
818.497	25887
818.638	25887
818.778	25974
818.919	25849
819.06	25887
819.2	26145
819.341	25997
819.481	26043
819.622	26263
819.762	26358
819.903	26347
820.043	26233
820.184	26370
820.324	26092
820.465	26259
820.605	26100
820.746	26168
820.886	26164
821.026	26077
821.167	26103
821.307	26183
821.447	26092
821.588	26031
821.728	25871
821.868	25681
822.008	25552
822.149	25674
822.289	25438
822.429	25445
822.569	25324
822.709	25259
822.849	25095
822.99	25194
823.13	25076
823.27	24958
823.41	24897
823.55	24825
823.69	24897
823.83	24863
823.97	24795
824.11	24616
824.25	24722
824.389	24635
824.529	24802
824.669	24764
824.809	24859
824.949	24882
825.089	24825
825.228	24741
825.368	24490
825.508	24631
825.648	24475
825.787	24604
825.927	24627
826.067	24471
826.206	24528
826.346	24688
826.485	24707
826.625	24650
826.765	24719
826.904	24642
827.044	24372
827.183	24353
827.323	24258
827.462	24395
827.601	24266
827.741	24243
827.88	24254
828.02	24064
828.159	24174
828.298	24429
828.437	24300
828.577	24243
828.716	24327
828.855	24273
828.994	23980
829.134	23965
829.273	24049
829.412	23923
829.551	23920
829.69	24011
829.829	24076
829.968	23961
830.107	23904
830.246	24018
830.385	24015
830.524	23961
830.663	23764
830.802	23756
830.941	23649
831.08	23589
831.219	23714
831.357	23680
831.496	23771
831.635	23490
831.774	23531
831.913	23440
832.051	23459
832.19	23383
832.329	23471
832.467	23265
832.606	23239
832.744	23231
832.883	23197
833.022	23166
833.16	23303
833.299	23277
833.437	23284
833.576	23383
833.714	23239
833.852	23269
833.991	23398
834.129	23417
834.267	23341
834.406	23322
834.544	23444
834.682	23360
834.821	23372
834.959	23577
835.097	23296
835.235	23273
835.373	23330
835.511	23296
835.65	23124
835.788	23147
835.926	23014
836.064	22957
836.202	22987
836.34	23212
836.478	23372
836.615	23083
836.753	23098
836.891	23121
837.029	23151
837.167	23086
837.305	23052
837.443	23113
837.58	22991
837.718	23090
837.856	23098
837.993	23003
838.131	23075
838.269	22965
838.406	23079
838.544	22968
838.681	22664
838.819	22649
838.956	22584
839.094	22493
839.231	22626
839.369	22820
839.506	23018
839.643	22946
839.781	22508
839.918	22424
840.055	22497
840.193	22565
840.33	22493
840.467	22497
840.604	22535
840.742	22721
840.879	22409
841.016	22440
841.153	22409
841.29	22577
841.427	22531
841.564	22428
841.701	22508
841.838	22333
841.975	22413
842.112	22280
842.249	22363
842.385	22207
842.522	22470
842.659	22192
842.796	22226
842.933	22223
843.069	22074
843.206	22310
843.343	22295
843.479	22185
843.616	22181
843.752	21968
843.889	22010
844.025	22238
844.162	21831
844.298	22177
844.435	21926
844.571	21960
844.708	22097
844.844	22230
844.98	22059
845.117	22173
845.253	21987
845.389	21895
845.525	21876
845.661	21827
845.798	21743
845.934	21728
846.07	21682
846.206	21800
846.342	21778
846.478	21728
846.614	21523
846.75	21401
846.886	21485
847.022	21515
847.158	21542
847.294	21310
847.429	21450
847.565	21466
847.701	21778
847.837	21051
847.972	21093
848.108	21287
848.244	21207
848.379	21138
848.515	20982
848.65	21104
848.786	21013
848.921	21112
849.057	21062
849.192	21089
849.328	21150
849.463	21135
849.598	20998
849.734	20967
849.869	21017
850.004	20811
850.14	20880
850.275	20857
850.41	20739
850.545	20693
850.68	20788
850.815	20819
850.95	20872
851.085	21043
851.22	20910
851.355	20788
851.49	20792
851.625	20724
851.76	20849
851.895	20796
852.03	20720
852.165	20773
852.299	20941
852.434	20857
852.569	20910
852.703	20807
852.838	20807
852.973	20960
853.107	20902
853.242	20815
853.376	20743
853.511	20621
853.645	20621
853.78	20804
853.914	20773
854.048	20530
854.183	20617
854.317	20724
854.451	20807
854.585	20670
854.72	20659
854.854	20712
854.988	20526
855.122	20621
855.256	20537
855.39	20712
855.524	20743
855.658	20636
855.792	20716
855.926	20552
856.06	20781
856.194	20743
856.327	20629
856.461	20659
856.595	20484
856.729	20644
856.862	20800
856.996	20701
857.13	20754
857.263	20735
857.397	20686
857.53	20678
857.664	20727
857.797	20785
857.931	20743
858.064	20552
858.197	20735
858.331	20522
858.464	20507
858.597	20560
858.731	20568
858.864	20621
858.997	20689
859.13	20712
859.263	20735
859.396	20682
859.529	20625
859.662	20640
859.795	20492
859.928	20530
860.061	20845
860.194	20891
860.327	20659
860.46	20701
860.592	20724
860.725	20811
860.858	20686
860.99	20644
861.123	20552
861.256	20594
861.388	20697
861.521	21332
861.653	20613
861.786	20393
861.918	20545
862.05	20465
862.183	20469
862.315	20670
862.447	20644
862.58	20613
862.712	20393
862.844	20336
862.976	20450
863.108	20469
863.24	20857
863.372	20396
863.504	20355
863.636	20366
863.768	20427
863.9	20404
864.032	20301
864.164	20305
864.296	20537
864.428	20476
864.559	20461
864.691	20495
864.823	20278
864.954	20381
865.086	20267
865.217	20259
865.349	20218
865.48	20237
865.612	20275
865.743	20450
865.875	20221
866.006	20142
866.137	20290
866.269	20347
866.4	20396
866.531	20221
866.662	20180
866.793	20195
866.924	20157
867.055	20248
867.186	20157
867.317	20183
867.448	20134
867.579	20134
867.71	20237
867.841	20043
867.972	20073
868.103	20233
868.233	20221
868.364	20320
868.495	20366
868.625	20385
868.756	20598
868.886	20256
869.017	20336
869.147	20495
869.278	20465
869.408	20537
869.539	20438
869.669	20419
869.799	20533
869.929	20678
870.06	20530
870.19	20849
870.32	20746
870.45	20739
870.58	20849
870.71	20975
870.84	20918
870.97	20899
871.1	20834
871.23	21070
871.36	21036
871.489	20998
871.619	20925
871.749	20994
871.879	21062
872.008	21161
872.138	21127
872.267	20948
872.397	20887
872.526	20899
872.656	20948
872.785	20864
872.915	21036
873.044	21108
873.173	21142
873.303	21013
873.432	21108
873.561	21272
873.69	21108
873.819	21112
873.948	21142
874.077	21116
874.206	21058
874.335	20998
874.464	21180
874.593	21260
874.722	21222
874.851	21325
874.979	21378
875.108	21310
875.237	21131
875.365	21313
875.494	21279
875.623	21272
875.751	21310
875.88	21279
876.008	21504
876.136	21389
876.265	21724
876.393	21850
876.521	21679
876.65	21797
876.778	21633
876.906	21709
877.034	21644
877.162	21732
877.29	21644
877.418	21732
877.546	21747
877.674	21614
877.802	21724
877.93	21713
878.058	21599
878.185	21595
878.313	21671
878.441	21557
878.568	21564
878.696	21511
878.824	21701
878.951	21591
879.079	21838
879.206	22002
879.333	21812
879.461	21755
879.588	21736
879.715	21808
879.842	21888
879.97	21751
880.097	21561
880.224	21466
880.351	21576
880.478	21450
880.605	21408
880.732	21447
880.859	21831
880.986	21599
881.112	21485
881.239	21370
881.366	21104
881.493	21093
881.619	21104
881.746	21108
881.872	21066
881.999	20994
882.125	21070
882.252	21066
882.378	21036
882.505	21127
882.631	20948
882.757	20853
882.883	20853
883.01	20716
883.136	20731
883.262	20655
883.388	20537
883.514	20758
883.64	20667
883.766	20754
883.892	20522
884.018	20571
884.143	20777
884.269	20807
884.395	20541
884.52	20377
884.646	20632
884.772	20473
884.897	20355
885.023	20446
885.148	20644
885.274	20530
885.399	20419
885.524	20362
885.65	20461
885.775	20423
885.9	20355
886.025	20594
886.15	20530
886.275	20408
886.4	20286
886.525	20396
886.65	20393
886.775	20446
886.9	20514
887.025	20583
887.149	20366
887.274	20256
887.399	20138
887.523	20168
887.648	20039
887.773	20065
887.897	20301
888.021	20336
888.146	20240
888.27	20286
888.395	20332
888.519	20271
888.643	20183
888.767	20377
888.891	20058
889.015	20020
889.139	20008
889.263	20103
889.387	20191
889.511	20180
889.635	20119
889.759	20065
889.883	20027
890.006	20103
890.13	20039
890.254	20001
890.377	19997
890.501	19849
890.624	19803
890.748	19795
890.871	19746
890.995	19525
891.118	19613
891.241	19605
891.364	19624
891.488	19696
891.611	19559
891.734	19594
891.857	19609
891.98	19666
892.103	19674
892.226	19639
892.349	19605
892.471	19487
892.594	19457
892.717	19578
892.839	19487
892.962	19495
893.085	19525
893.207	19495
893.33	19392
893.452	19525
893.575	19521
893.697	19411
893.819	19597
893.941	19727
894.064	19620
894.186	19422
894.308	19373
894.43	19616
894.552	19647
894.674	19590
894.796	19422
894.918	19411
895.04	19449
895.161	19582
895.283	19468
895.405	19476
895.526	19438
895.648	19540
895.769	19556
895.891	19616
896.012	19685
896.134	19586
896.255	19449
896.376	19457
896.498	19460
896.619	19483
896.74	19518
896.861	19521
896.982	19780
897.103	19963
897.224	19799
897.345	19765
897.466	19666
897.587	19807
897.708	19849
897.828	19681
897.949	19613
898.07	19578
898.19	19628
898.311	19700
898.431	19731
898.552	19811
898.672	19845
898.792	19803
898.913	19700
899.033	19674
899.153	19540
899.273	19457
899.393	19502
899.513	19480
899.633	19491
899.753	19556
899.873	19514
899.993	19567
900.113	19430
900.232	19430
900.352	19278
900.472	19343
900.591	19304
900.711	19369
900.83	19213
900.95	19407
901.069	19472
901.189	19194
901.308	19000
901.427	18973
901.546	18863
901.665	18947
901.784	18913
901.904	18817
902.023	18593
902.141	18448
902.26	18334
902.379	18551
902.498	18403
902.617	18464
902.735	18532
902.854	18292
902.973	18266
903.091	18102
903.21	18106
903.328	18125
903.446	17969
903.565	17923
903.683	17851
903.801	17863
903.919	17802
904.038	17828
904.156	17714
904.274	17699
904.392	17710
904.51	17627
904.627	17600
904.745	17714
904.863	17737
904.981	17463
905.098	17299
905.216	17280
905.334	17368
905.451	17258
905.569	17341
905.686	17478
905.803	17280
905.921	17113
906.038	17193
906.155	17220
906.272	16965
906.389	17037
906.506	16915
906.623	16938
906.74	16866
906.857	16649
906.974	16828
907.091	16873
907.208	16984
907.324	16995
907.441	16771
907.557	16588
907.674	16630
907.79	16443
907.907	16615
908.023	16622
908.139	16565
908.256	16558
908.372	16478
908.488	16523
908.604	16379
908.72	16325
908.836	16379
908.952	16310
909.068	16356
909.184	16402
909.3	16261
909.415	16337
909.531	16310
909.647	16048
909.762	16006
909.878	15968
909.993	16074
910.108	16040
910.224	16055
910.339	15983
910.454	15835
910.57	15899
910.685	15686
910.8	16074
910.915	15945
911.03	15903
911.145	15694
911.259	15728
911.374	15580
911.489	15599
911.604	15561
911.718	15447
911.833	15412
911.947	15306
912.062	15302
912.176	15492
912.291	15545
912.405	15378
912.519	15656
912.633	15538
912.748	15348
912.862	15428
912.976	15188
913.09	15127
913.204	15207
913.318	15165
913.431	15294
913.545	15252
913.659	15291
913.772	15127
913.886	15020
914	15047
914.113	15020
914.226	15173
914.34	15135
914.453	14956
914.566	15058
914.68	14876
914.793	14857
914.906	14743
915.019	14579
915.132	14621
915.245	14621
915.358	14598
915.47	14533
915.583	14674
915.696	14746
915.809	14697
915.921	14743
916.034	14606
916.146	14530
916.259	14511
916.371	14621
916.483	14594
916.595	14457
916.708	14480
916.82	14480
916.932	14362
917.044	14503
917.156	14484
917.268	14282
917.38	14305
917.491	14202
917.603	14240
917.715	14419
917.826	14343
917.938	14286
918.049	14180
918.161	14259
918.272	14377
918.384	14431
918.495	14267
918.606	14103
918.717	14084
918.828	14130
918.939	14130
919.05	13947
919.161	13970
919.272	13849
919.383	13928
919.494	14138
919.604	14229
919.715	14065
919.826	14035
919.936	14054
920.047	14005
920.157	13986
920.267	14157
920.378	14100
920.488	14043
920.598	14252
920.708	14389
920.818	14164
920.928	14157
921.038	14320
921.148	14275
921.258	13970
921.368	13837
921.477	13769
921.587	13791
921.697	13700
921.806	13791
921.916	13689
922.025	13483
922.134	13537
922.244	13343
922.353	13460
922.462	13358
922.571	13255
922.68	13190
922.789	13164
922.898	13160
923.007	12989
923.116	13160
923.224	13031
923.333	13122
923.442	12928
923.55	12875
923.659	12909
923.767	13027
923.876	12852
923.984	12935
924.092	12707
924.201	12863
924.309	12863
924.417	12837
924.525	12703
924.633	12935
924.741	13693
924.849	12536
924.956	12692
925.064	12604
925.172	12460
925.279	12585
925.387	12494
925.494	12513
925.602	12692
925.709	12528
925.816	12422
925.924	12490
926.031	12585
926.138	12448
926.245	12566
926.352	12388
926.459	12566
926.566	12578
926.673	12380
926.779	12296
926.886	12281
926.993	12175
927.099	12140
927.206	12030
927.312	12087
927.419	12186
927.525	12079
927.631	12182
927.737	12011
927.843	11897
927.95	11767
928.056	12015
928.162	11958
928.267	11946
928.373	12506
928.479	12083
928.585	11855
928.69	11931
928.796	11939
928.901	11764
929.007	11722
929.112	11767
929.218	11783
929.323	11760
929.428	11710
929.533	11756
929.638	11611
929.743	11611
929.848	11695
929.953	11642
930.058	11471
930.163	11360
930.267	11364
930.372	11516
930.477	11261
930.581	11532
930.685	11429
930.79	11242
930.894	11239
930.998	11170
931.103	11387
931.207	10987
931.311	10995
931.415	10889
931.519	10679
931.623	10668
