Data from test_V78500241_1328.txt Node
Date: Fri Mar 25 15:19:06 CST 2022
User: usil
Spectrometer: V785-0024
Trigger mode: 0
Integration Time (sec): 4.000000E-1
Scans to average: 1
Nonlinearity correction enabled: false
Boxcar width: 0
Storing dark spectrum: false
XAxis mode: Wavelengths
Number of Pixels in Spectrum: 1024
>>>>>Begin Spectral Data<<<<<
801.071	28032
801.214	27895
801.356	27793
801.499	27690
801.641	27492
801.783	27485
801.926	27557
802.068	27656
802.211	27466
802.353	27462
802.496	27260
802.638	27230
802.78	27233
802.923	27013
803.065	27157
803.208	27176
803.35	27199
803.492	27211
803.635	27291
803.777	27264
803.919	27481
804.061	27675
804.204	27568
804.346	27473
804.488	27386
804.63	27321
804.773	27458
804.915	27412
805.057	27553
805.199	27313
805.341	27462
805.483	27568
805.626	27545
805.768	27523
805.91	27576
806.052	27652
806.194	27534
806.336	27736
806.478	27603
806.62	27637
806.762	27625
806.904	27804
807.046	28109
807.188	28002
807.33	28070
807.472	28249
807.614	27964
807.756	27960
807.898	27888
808.04	27869
808.182	27759
808.324	27884
808.465	27842
808.607	27983
808.749	28276
808.891	28261
809.033	28497
809.174	28341
809.316	28169
809.458	28295
809.6	28223
809.741	28432
809.883	28424
810.025	28550
810.166	28535
810.308	28500
810.45	28474
810.591	28504
810.733	28192
810.875	28242
811.016	28109
811.158	28055
811.299	28253
811.441	28455
811.582	28337
811.724	28143
811.865	28238
812.007	28272
812.148	28196
812.29	28405
812.431	28481
812.573	28672
812.714	28774
812.855	28679
812.997	28869
813.138	28877
813.279	28675
813.421	28664
813.562	28763
813.703	28565
813.845	28356
813.986	28082
814.127	28032
814.268	27991
814.41	27911
814.551	27914
814.692	27983
814.833	27907
814.974	27713
815.115	27895
815.256	27755
815.397	27785
815.539	27751
815.68	27724
815.821	27785
815.962	27755
816.103	27690
816.244	27682
816.385	27660
816.526	27466
816.666	27313
816.807	27218
816.948	27332
817.089	27302
817.23	27214
817.371	27226
817.512	27218
817.653	27233
817.793	27074
817.934	27408
818.075	27199
818.216	27256
818.356	27135
818.497	27093
818.638	26937
818.778	26899
818.919	26895
819.06	27081
819.2	27142
819.341	27173
819.481	27199
819.622	27329
819.762	27450
819.903	27534
820.043	27424
820.184	27393
820.324	27287
820.465	27370
820.605	27431
820.746	27306
820.886	27058
821.026	27393
821.167	27279
821.307	27447
821.447	27169
821.588	27077
821.728	26823
821.868	26804
822.008	26689
822.149	26613
822.289	26727
822.429	26518
822.569	26385
822.709	26298
822.849	26206
822.99	26244
823.13	26221
823.27	26081
823.41	26024
823.55	25963
823.69	26092
823.83	26058
823.97	26008
824.11	25765
824.25	25769
824.389	25818
824.529	26077
824.669	25902
824.809	26031
824.949	25955
825.089	25944
825.228	25887
825.368	25845
825.508	25689
825.648	25753
825.787	25738
825.927	25746
826.067	25719
826.206	25712
826.346	25761
826.485	25689
826.625	25643
826.765	25753
826.904	25712
827.044	25537
827.183	25514
827.323	25457
827.462	25597
827.601	25464
827.741	25358
827.88	25472
828.02	25221
828.159	25392
828.298	25369
828.437	25655
828.577	25358
828.716	25582
828.855	25419
828.994	25156
829.134	25160
829.273	25110
829.412	25148
829.551	25057
829.69	25175
829.829	25072
829.968	25198
830.107	25206
830.246	25247
830.385	25217
830.524	24932
830.663	24859
830.802	24878
830.941	24772
831.08	24749
831.219	24875
831.357	24890
831.496	24989
831.635	24798
831.774	24700
831.913	24635
832.051	24688
832.19	24536
832.329	24585
832.467	24505
832.606	24380
832.744	24243
832.883	24460
833.022	24384
833.16	24433
833.299	24513
833.437	24479
833.576	24574
833.714	24536
833.852	24566
833.991	24486
834.129	24517
834.267	24608
834.406	24544
834.544	24505
834.682	24604
834.821	24505
834.959	24536
835.097	24475
835.235	24582
835.373	24361
835.511	24471
835.65	24422
835.788	24441
835.926	24178
836.064	24144
836.202	24190
836.34	24350
836.478	24346
836.615	24258
836.753	24289
836.891	24239
837.029	24365
837.167	24338
837.305	24224
837.443	24197
837.58	24178
837.718	24224
837.856	24136
837.993	24201
838.131	24125
838.269	24114
838.406	23980
838.544	23980
838.681	23832
838.819	23870
838.956	23493
839.094	23562
839.231	23745
839.369	23821
839.506	24007
839.643	23977
839.781	23722
839.918	23543
840.055	23509
840.193	23615
840.33	23478
840.467	23509
840.604	23463
840.742	23870
840.879	23391
841.016	23535
841.153	23368
841.29	23657
841.427	23493
841.564	23478
841.701	23528
841.838	23433
841.975	23448
842.112	23421
842.249	23406
842.385	23159
842.522	23467
842.659	23318
842.796	23284
842.933	23318
843.069	23227
843.206	23288
843.343	23383
843.479	23288
843.616	23208
843.752	22987
843.889	23006
844.025	23242
844.162	23094
844.298	23242
844.435	23071
844.571	23064
844.708	23075
844.844	23326
844.98	23178
845.117	23140
845.253	23083
845.389	23003
845.525	22911
845.661	22949
845.798	22778
845.934	22900
846.07	22687
846.206	22713
846.342	22896
846.478	22778
846.614	22542
846.75	22512
846.886	22504
847.022	22573
847.158	22580
847.294	22622
847.429	22474
847.565	22459
847.701	22694
847.837	22246
847.972	22249
848.108	22280
848.244	22272
848.379	22185
848.515	22158
848.65	22128
848.786	22169
848.921	22063
849.057	22249
849.192	22196
849.328	22177
849.463	22112
849.598	22032
849.734	22078
849.869	21865
850.004	21876
850.14	21892
850.275	21968
850.41	21644
850.545	21873
850.68	21964
850.815	21873
850.95	21899
851.085	21960
851.22	22036
851.355	21911
851.49	21846
851.625	21911
851.76	21846
851.895	21846
852.03	21873
852.165	21880
852.299	21915
852.434	21953
852.569	21956
852.703	21869
852.838	21861
852.973	22021
853.107	22029
853.242	21785
853.376	21835
853.511	21530
853.645	21648
853.78	21835
853.914	21633
854.048	21629
854.183	21747
854.317	21705
854.451	21869
854.585	21690
854.72	21728
854.854	21816
854.988	21500
855.122	21652
855.256	21458
855.39	21717
855.524	21739
855.658	21694
855.792	21759
855.926	21831
856.06	21785
856.194	21812
856.327	21663
856.461	21538
856.595	21724
856.729	21667
856.862	21827
856.996	21694
857.13	21816
857.263	21717
857.397	21717
857.53	21720
857.664	21812
857.797	21728
857.931	21724
858.064	21720
858.197	21960
858.331	21759
858.464	21618
858.597	21698
858.731	21656
858.864	21751
858.997	21774
859.13	21675
859.263	21641
859.396	21823
859.529	21743
859.662	21580
859.795	21682
859.928	21675
860.061	21865
860.194	21880
860.327	21667
860.46	21720
860.592	21766
860.725	21873
860.858	21854
860.99	21717
861.123	21618
861.256	21488
861.388	21660
861.521	22337
861.653	21564
861.786	21439
861.918	21507
862.05	21576
862.183	21538
862.315	21660
862.447	21675
862.58	21599
862.712	21443
862.844	21348
862.976	21568
863.108	21466
863.24	21838
863.372	21340
863.504	21485
863.636	21370
863.768	21393
863.9	21321
864.032	21279
864.164	21340
864.296	21526
864.428	21454
864.559	21298
864.691	21485
864.823	21374
864.954	21431
865.086	21359
865.217	21283
865.349	21260
865.48	21466
865.612	21344
865.743	21302
865.875	21294
866.006	21313
866.137	21325
866.269	21218
866.4	21279
866.531	21237
866.662	21218
866.793	21245
866.924	21157
867.055	21275
867.186	21207
867.317	21203
867.448	21108
867.579	21142
867.71	21142
867.841	21169
867.972	21325
868.103	21173
868.233	21195
868.364	21298
868.495	21473
868.625	21450
868.756	21542
868.886	21431
869.017	21393
869.147	21542
869.278	21549
869.408	21473
869.539	21507
869.669	21492
869.799	21462
869.929	21701
870.06	21561
870.19	21743
870.32	21781
870.45	21759
870.58	21960
870.71	21960
870.84	21975
870.97	21846
871.1	21865
871.23	22036
871.36	22086
871.489	21922
871.619	22021
871.749	22021
871.879	22067
872.008	22230
872.138	21972
872.267	21994
872.397	21869
872.526	21915
872.656	21876
872.785	21747
872.915	22029
873.044	22185
873.173	22112
873.303	22192
873.432	22074
873.561	22249
873.69	22196
873.819	22048
873.948	22131
874.077	22154
874.206	22017
874.335	22044
874.464	22230
874.593	22295
874.722	22253
874.851	22325
874.979	22390
875.108	22474
875.237	22169
875.365	22090
875.494	22230
875.623	22424
875.751	22192
875.88	22234
876.008	22363
876.136	22394
876.265	22729
876.393	22805
876.521	22721
876.65	22771
876.778	22729
876.906	22618
877.034	22603
877.162	22641
877.29	22569
877.418	22771
877.546	22615
877.674	22634
877.802	22672
877.93	22641
878.058	22603
878.185	22493
878.313	22603
878.441	22542
878.568	22512
878.696	22474
878.824	22710
878.951	22748
879.079	22858
879.206	22869
879.333	22866
879.461	22717
879.588	22763
879.715	22790
879.842	22980
879.97	22687
880.097	22485
880.224	22436
880.351	22542
880.478	22417
880.605	22405
880.732	22371
880.859	22588
880.986	22371
881.112	22299
881.239	22303
881.366	22223
881.493	22105
881.619	22116
881.746	21994
881.872	22002
881.999	21835
882.125	21816
882.252	22082
882.378	21975
882.505	22154
882.631	21975
882.757	21713
882.883	21778
883.01	21804
883.136	21671
883.262	21705
883.388	21599
883.514	21728
883.64	21743
883.766	21709
883.892	21496
884.018	21504
884.143	21770
884.269	21751
884.395	21439
884.52	21351
884.646	21477
884.772	21336
884.897	21180
885.023	21298
885.148	21492
885.274	21492
885.399	21454
885.524	21363
885.65	21374
885.775	21374
885.9	21336
886.025	21477
886.15	21530
886.275	21332
886.4	21180
886.525	21294
886.65	21313
886.775	21222
886.9	21462
887.025	21561
887.149	21332
887.274	21119
887.399	21161
887.523	21062
887.648	21093
887.773	21013
887.897	21264
888.021	21230
888.146	21150
888.27	21138
888.395	21268
888.519	21116
888.643	21146
888.767	21310
888.891	21070
889.015	20887
889.139	21047
889.263	20956
889.387	21043
889.511	21169
889.635	20918
889.759	20838
889.883	20868
890.006	20941
890.13	20891
890.254	20864
890.377	20895
890.501	20689
890.624	20598
890.748	20678
890.871	20613
890.995	20412
891.118	20423
891.241	20457
891.364	20511
891.488	20602
891.611	20492
891.734	20526
891.857	20552
891.98	20473
892.103	20571
892.226	20431
892.349	20469
892.471	20305
892.594	20446
892.717	20450
892.839	20415
892.962	20396
893.085	20442
893.207	20320
893.33	20370
893.452	20240
893.575	20423
893.697	20381
893.819	20476
893.941	20594
894.064	20518
894.186	20446
894.308	20381
894.43	20415
894.552	20545
894.674	20423
894.796	20389
894.918	20332
895.04	20301
895.161	20461
895.283	20442
895.405	20267
895.526	20370
895.648	20267
895.769	20282
895.891	20579
896.012	20492
896.134	20408
896.255	20362
896.376	20362
896.498	20442
896.619	20328
896.74	20362
896.861	20332
896.982	20731
897.103	20830
897.224	20792
897.345	20469
897.466	20503
897.587	20590
897.708	20754
897.828	20617
897.949	20461
898.07	20473
898.19	20507
898.311	20609
898.431	20552
898.552	20629
898.672	20644
898.792	20640
898.913	20564
899.033	20423
899.153	20343
899.273	20210
899.393	20408
899.513	20355
899.633	20339
899.753	20256
899.873	20237
899.993	20336
900.113	20282
900.232	20454
900.352	20221
900.472	20202
900.591	20096
900.711	20069
900.83	20084
900.95	20142
901.069	20035
901.189	19986
901.308	19845
901.427	19681
901.546	19856
901.665	19613
901.784	19742
901.904	19567
902.023	19422
902.141	19327
902.26	19156
902.379	19316
902.498	19160
902.617	19103
902.735	19225
902.854	19038
902.973	19114
903.091	18863
903.21	18795
903.328	18970
903.446	18802
903.565	18703
903.683	18719
903.801	18494
903.919	18563
904.038	18574
904.156	18391
904.274	18589
904.392	18391
904.51	18315
904.627	18441
904.745	18395
904.863	18448
904.981	18216
905.098	17973
905.216	18041
905.334	18045
905.451	18068
905.569	18098
905.686	18144
905.803	17980
905.921	17927
906.038	18034
906.155	17980
906.272	17840
906.389	17866
906.506	17646
906.623	17703
906.74	17611
906.857	17478
906.974	17490
907.091	17630
907.208	17703
907.324	17600
907.441	17543
907.557	17444
907.674	17433
907.79	17216
907.907	17349
908.023	17341
908.139	17330
908.256	17208
908.372	17223
908.488	17136
908.604	17098
908.72	17121
908.836	17025
908.952	17045
909.068	17075
909.184	17197
909.3	17128
909.415	17094
909.531	17060
909.647	16866
909.762	16774
909.878	16637
909.993	16733
910.108	16744
910.224	16752
910.339	16668
910.454	16702
910.57	16596
910.685	16626
910.8	16805
910.915	16664
911.03	16641
911.145	16519
911.259	16348
911.374	16375
911.489	16344
911.604	16223
911.718	16097
911.833	16143
911.947	16074
912.062	15941
912.176	16040
912.291	16120
912.405	16063
912.519	16295
912.633	16348
912.748	16105
912.862	16173
912.976	15949
913.09	15903
913.204	15892
913.318	15975
913.431	15979
913.545	16032
913.659	15987
913.772	15949
913.886	15812
914	15827
914.113	15876
914.226	15842
914.34	15781
914.453	15679
914.566	15747
914.68	15625
914.793	15656
914.906	15458
915.019	15382
915.132	15321
915.245	15306
915.358	15321
915.47	15348
915.583	15363
915.696	15393
915.809	15488
915.921	15431
916.034	15325
916.146	15233
916.259	15203
916.371	15214
916.483	15226
916.595	15203
916.708	15211
916.82	15135
916.932	15214
917.044	15241
917.156	15135
917.268	15039
917.38	15036
917.491	14880
917.603	15051
917.715	15055
917.826	15058
917.938	14937
918.049	14765
918.161	14921
918.272	15055
918.384	14960
918.495	14921
918.606	14701
918.717	14754
918.828	14708
918.939	14716
919.05	14701
919.161	14762
919.272	14556
919.383	14499
919.494	14758
919.604	14979
919.715	14800
919.826	14590
919.936	14716
920.047	14807
920.157	14670
920.267	14861
920.378	14678
920.488	14571
920.598	14811
920.708	14952
920.818	14872
920.928	14857
921.038	14868
921.148	14971
921.258	14659
921.368	14503
921.477	14518
921.587	14511
921.697	14267
921.806	14400
921.916	14267
922.025	14126
922.134	14046
922.244	13997
922.353	14001
922.462	13993
922.571	13837
922.68	13780
922.789	13784
922.898	13693
923.007	13715
923.116	13734
923.224	13696
923.333	13613
923.442	13590
923.55	13552
923.659	13590
923.767	13685
923.876	13426
923.984	13563
924.092	13430
924.201	13392
924.309	13426
924.417	13445
924.525	13377
924.633	13430
924.741	14221
924.849	13149
924.956	13365
925.064	13217
925.172	13152
925.279	13065
925.387	13149
925.494	13057
925.602	13255
925.709	13103
925.816	13042
925.924	13012
926.031	13133
926.138	13038
926.245	13095
926.352	13000
926.459	13084
926.566	13042
926.673	12932
926.779	12852
926.886	12901
926.993	12738
927.099	12707
927.206	12620
927.312	12570
927.419	12604
927.525	12566
927.631	12639
927.737	12547
927.843	12563
927.95	12445
928.056	12551
928.162	12479
928.267	12547
928.373	13149
928.479	12578
928.585	12300
928.69	12540
928.796	12486
928.901	12369
929.007	12270
929.112	12388
929.218	12319
929.323	12216
929.428	12167
929.533	12346
929.638	12144
929.743	12243
929.848	12281
929.953	12129
930.058	12106
930.163	11855
930.267	11885
930.372	12087
930.477	11912
930.581	12083
930.685	11992
930.79	11764
930.894	11870
930.998	11798
931.103	11859
931.207	11562
931.311	11459
931.415	11356
931.519	11197
931.623	11189
