Data from test_V78500241_1604.txt Node
Date: Fri Mar 25 15:21:01 CST 2022
User: usil
Spectrometer: V785-0024
Trigger mode: 0
Integration Time (sec): 4.000000E-1
Scans to average: 1
Nonlinearity correction enabled: false
Boxcar width: 0
Storing dark spectrum: false
XAxis mode: Wavelengths
Number of Pixels in Spectrum: 1024
>>>>>Begin Spectral Data<<<<<
801.071	28040
801.214	27869
801.356	27469
801.499	27675
801.641	27519
801.783	27488
801.926	27576
802.068	27534
802.211	27435
802.353	27367
802.496	27226
802.638	27214
802.78	27051
802.923	27207
803.065	26986
803.208	27131
803.35	27173
803.492	27378
803.635	27340
803.777	27188
803.919	27431
804.061	27656
804.204	27427
804.346	27336
804.488	27367
804.63	27237
804.773	27351
804.915	27329
805.057	27389
805.199	27233
805.341	27523
805.483	27679
805.626	27500
805.768	27325
805.91	27481
806.052	27431
806.194	27454
806.336	27736
806.478	27633
806.62	27572
806.762	27694
806.904	27781
807.046	27930
807.188	27895
807.33	27964
807.472	27987
807.614	27987
807.756	28051
807.898	27641
808.04	27781
808.182	27682
808.324	27797
808.465	27876
808.607	28139
808.749	28226
808.891	28181
809.033	28325
809.174	28135
809.316	28128
809.458	28158
809.6	28109
809.741	28207
809.883	28215
810.025	28455
810.166	28352
810.308	28489
810.45	28386
810.591	28246
810.733	28177
810.875	28017
811.016	28006
811.158	27994
811.299	28070
811.441	28341
811.582	28379
811.724	28059
811.865	28185
812.007	28112
812.148	28051
812.29	28173
812.431	28299
812.573	28497
812.714	28634
812.855	28596
812.997	28752
813.138	28942
813.279	28626
813.421	28656
813.562	28710
813.703	28459
813.845	28440
813.986	28013
814.127	27926
814.268	27888
814.41	27903
814.551	27816
814.692	27922
814.833	27743
814.974	27766
815.115	27956
815.256	27701
815.397	27660
815.539	27797
815.68	27633
815.821	27561
815.962	27603
816.103	27557
816.244	27572
816.385	27344
816.526	27519
816.666	27298
816.807	27169
816.948	27222
817.089	27176
817.23	27108
817.371	27108
817.512	27142
817.653	26906
817.793	27020
817.934	26918
818.075	27119
818.216	27081
818.356	26967
818.497	26910
818.638	26887
818.778	26883
818.919	26830
819.06	26910
819.2	26899
819.341	27146
819.481	27135
819.622	27306
819.762	27431
819.903	27378
820.043	27291
820.184	27222
820.324	27294
820.465	27245
820.605	27123
820.746	27096
820.886	27089
821.026	27123
821.167	27131
821.307	27230
821.447	27188
821.588	27135
821.728	26899
821.868	26781
822.008	26473
822.149	26590
822.289	26579
822.429	26336
822.569	26275
822.709	26202
822.849	26157
822.99	26259
823.13	26092
823.27	26050
823.41	25811
823.55	25731
823.69	26027
823.83	25902
823.97	26024
824.11	25742
824.25	25750
824.389	25704
824.529	25742
824.669	25875
824.809	25780
824.949	25807
825.089	25913
825.228	25780
825.368	25582
825.508	25521
825.648	25590
825.787	25651
825.927	25655
826.067	25449
826.206	25460
826.346	25772
826.485	25666
826.625	25521
826.765	25635
826.904	25594
827.044	25388
827.183	25392
827.323	25400
827.462	25358
827.601	25247
827.741	25362
827.88	25327
828.02	25247
828.159	25373
828.298	25274
828.437	25362
828.577	25274
828.716	25354
828.855	25217
828.994	25175
829.134	24901
829.273	25148
829.412	24859
829.551	24992
829.69	24958
829.829	25103
829.968	25034
830.107	24996
830.246	25091
830.385	24989
830.524	24943
830.663	24760
830.802	24681
830.941	24646
831.08	24578
831.219	24650
831.357	24688
831.496	24779
831.635	24559
831.774	24525
831.913	24540
832.051	24361
832.19	24414
832.329	24426
832.467	24197
832.606	24190
832.744	24186
832.883	24190
833.022	24273
833.16	24403
833.299	24330
833.437	24254
833.576	24330
833.714	24304
833.852	24414
833.991	24429
834.129	24433
834.267	24467
834.406	24281
834.544	24323
834.682	24327
834.821	24391
834.959	24589
835.097	24429
835.235	24410
835.373	24262
835.511	24251
835.65	24159
835.788	24228
835.926	24167
836.064	24030
836.202	24022
836.34	24311
836.478	24216
836.615	24133
836.753	24254
836.891	24361
837.029	24136
837.167	24182
837.305	24038
837.443	24026
837.58	24022
837.718	24243
837.856	24106
837.993	23980
838.131	24015
838.269	23992
838.406	23969
838.544	23847
838.681	23726
838.819	23630
838.956	23596
839.094	23421
839.231	23512
839.369	23764
839.506	23901
839.643	23783
839.781	23551
839.918	23368
840.055	23509
840.193	23334
840.33	23520
840.467	23421
840.604	23459
840.742	23676
840.879	23353
841.016	23528
841.153	23345
841.29	23467
841.427	23554
841.564	23474
841.701	23398
841.838	23425
841.975	23307
842.112	23364
842.249	23227
842.385	23113
842.522	23512
842.659	23299
842.796	23094
842.933	23284
843.069	23044
843.206	23014
843.343	23223
843.479	23200
843.616	23121
843.752	23003
843.889	23060
844.025	23075
844.162	23022
844.298	23064
844.435	22987
844.571	23025
844.708	22961
844.844	23185
844.98	23155
845.117	23105
845.253	22927
845.389	22786
845.525	22881
845.661	22740
845.798	22736
845.934	22812
846.07	22691
846.206	22698
846.342	22839
846.478	22504
846.614	22409
846.75	22295
846.886	22367
847.022	22481
847.158	22409
847.294	22527
847.429	22470
847.565	22314
847.701	22721
847.837	22154
847.972	22032
848.108	22314
848.244	22219
848.379	22006
848.515	22048
848.65	21979
848.786	22010
848.921	22044
849.057	22188
849.192	22070
849.328	22063
849.463	22082
849.598	21991
849.734	21907
849.869	21865
850.004	21781
850.14	21812
850.275	21793
850.41	21728
850.545	21762
850.68	21709
850.815	21911
850.95	21808
851.085	21831
851.22	21880
851.355	21800
851.49	21747
851.625	21831
851.76	21861
851.895	21720
852.03	21599
852.165	21694
852.299	21800
852.434	21861
852.569	21785
852.703	21751
852.838	21835
852.973	21857
853.107	21880
853.242	21793
853.376	21603
853.511	21538
853.645	21618
853.78	21606
853.914	21705
854.048	21553
854.183	21587
854.317	21625
854.451	21812
854.585	21679
854.72	21538
854.854	21705
854.988	21488
855.122	21675
855.256	21386
855.39	21595
855.524	21663
855.658	21656
855.792	21682
855.926	21534
856.06	21633
856.194	21534
856.327	21587
856.461	21439
856.595	21530
856.729	21466
856.862	21739
856.996	21633
857.13	21637
857.263	21789
857.397	21595
857.53	21481
857.664	21564
857.797	21679
857.931	21797
858.064	21633
858.197	21751
858.331	21564
858.464	21545
858.597	21542
858.731	21542
858.864	21545
858.997	21622
859.13	21606
859.263	21633
859.396	21762
859.529	21408
859.662	21572
859.795	21538
859.928	21622
860.061	21743
860.194	21739
860.327	21652
860.46	21511
860.592	21766
860.725	21747
860.858	21751
860.99	21622
861.123	21542
861.256	21481
861.388	21595
861.521	22287
861.653	21469
861.786	21359
861.918	21530
862.05	21583
862.183	21458
862.315	21576
862.447	21473
862.58	21454
862.712	21424
862.844	21340
862.976	21298
863.108	21336
863.24	21622
863.372	21283
863.504	21249
863.636	21230
863.768	21321
863.9	21317
864.032	21214
864.164	21306
864.296	21252
864.428	21348
864.559	21252
864.691	21401
864.823	21359
864.954	21279
865.086	21230
865.217	21306
865.349	21077
865.48	21154
865.612	21176
865.743	21351
865.875	21218
866.006	21195
866.137	21074
866.269	21165
866.4	21230
866.531	21032
866.662	21039
866.793	21165
866.924	21157
867.055	21192
867.186	21203
867.317	21123
867.448	21017
867.579	21085
867.71	21036
867.841	21009
867.972	21127
868.103	21146
868.233	21180
868.364	21089
868.495	21268
868.625	21336
868.756	21458
868.886	21389
869.017	21245
869.147	21389
869.278	21439
869.408	21363
869.539	21363
869.669	21492
869.799	21370
869.929	21370
870.06	21477
870.19	21705
870.32	21561
870.45	21747
870.58	21770
870.71	21774
870.84	21785
870.97	21671
871.1	21797
871.23	21865
871.36	21998
871.489	21713
871.619	21842
871.749	21991
871.879	21983
872.008	22044
872.138	21941
872.267	21907
872.397	21793
872.526	21827
872.656	21797
872.785	21808
872.915	21903
873.044	21930
873.173	21911
873.303	21922
873.432	21987
873.561	22036
873.69	22032
873.819	21991
873.948	21972
874.077	21949
874.206	22010
874.335	21937
874.464	22124
874.593	22166
874.722	22040
874.851	22207
874.979	22261
875.108	22154
875.237	22150
875.365	22185
875.494	22196
875.623	22204
875.751	22135
875.88	22200
876.008	22303
876.136	22306
876.265	22580
876.393	22626
876.521	22645
876.65	22603
876.778	22626
876.906	22550
877.034	22580
877.162	22557
877.29	22527
877.418	22466
877.546	22588
877.674	22557
877.802	22485
877.93	22634
878.058	22470
878.185	22375
878.313	22470
878.441	22577
878.568	22348
878.696	22519
878.824	22504
878.951	22729
879.079	22755
879.206	22710
879.333	22786
879.461	22626
879.588	22592
879.715	22850
879.842	22725
879.97	22611
880.097	22287
880.224	22379
880.351	22424
880.478	22375
880.605	22272
880.732	22333
880.859	22672
880.986	22333
881.112	22424
881.239	22230
881.366	22135
881.493	22078
881.619	21907
881.746	21953
881.872	21873
881.999	21873
882.125	21827
882.252	21941
882.378	21930
882.505	22086
882.631	21778
882.757	21656
882.883	21762
883.01	21663
883.136	21595
883.262	21553
883.388	21431
883.514	21625
883.64	21599
883.766	21545
883.892	21431
884.018	21329
884.143	21473
884.269	21671
884.395	21389
884.52	21302
884.646	21351
884.772	21249
884.897	21169
885.023	21233
885.148	21268
885.274	21378
885.399	21378
885.524	21184
885.65	21420
885.775	21287
885.9	21237
886.025	21302
886.15	21306
886.275	21233
886.4	21127
886.525	21252
886.65	21241
886.775	21252
886.9	21382
887.025	21504
887.149	21260
887.274	21028
887.399	21104
887.523	21104
887.648	20948
887.773	20845
887.897	21036
888.021	21116
888.146	20994
888.27	21085
888.395	21093
888.519	21123
888.643	21009
888.767	21074
888.891	20921
889.015	20815
889.139	20861
889.263	20914
889.387	20998
889.511	21089
889.635	20800
889.759	20876
889.883	20811
890.006	20838
890.13	20876
890.254	20819
890.377	20720
890.501	20609
890.624	20682
890.748	20526
890.871	20552
890.995	20389
891.118	20332
891.241	20298
891.364	20347
891.488	20541
891.611	20396
891.734	20362
891.857	20412
891.98	20446
892.103	20339
892.226	20389
892.349	20347
892.471	20244
892.594	20240
892.717	20339
892.839	20278
892.962	20237
893.085	20317
893.207	20286
893.33	20191
893.452	20298
893.575	20164
893.697	20263
893.819	20503
893.941	20549
894.064	20351
894.186	20210
894.308	20107
894.43	20336
894.552	20370
894.674	20332
894.796	20237
894.918	20233
895.04	20134
895.161	20271
895.283	20328
895.405	20187
895.526	20259
895.648	20271
895.769	20271
895.891	20385
896.012	20404
896.134	20267
896.255	20271
896.376	20214
896.498	20259
896.619	20244
896.74	20282
896.861	20347
896.982	20564
897.103	20659
897.224	20598
897.345	20408
897.466	20446
897.587	20396
897.708	20701
897.828	20560
897.949	20434
898.07	20362
898.19	20476
898.311	20530
898.431	20514
898.552	20457
898.672	20545
898.792	20629
898.913	20541
899.033	20396
899.153	20305
899.273	20218
899.393	20172
899.513	20221
899.633	20225
899.753	20282
899.873	20115
899.993	20142
900.113	20161
900.232	20218
900.352	20096
900.472	20096
900.591	19993
900.711	20107
900.83	19989
900.95	20077
901.069	20024
901.189	19902
901.308	19662
901.427	19639
901.546	19609
901.665	19594
901.784	19632
901.904	19362
902.023	19449
902.141	19171
902.26	19183
902.379	19240
902.498	19141
902.617	19103
902.735	19194
902.854	19103
902.973	19053
903.091	18848
903.21	18798
903.328	18806
903.446	18692
903.565	18681
903.683	18623
903.801	18544
903.919	18536
904.038	18589
904.156	18433
904.274	18494
904.392	18376
904.51	18308
904.627	18270
904.745	18376
904.863	18319
904.981	18117
905.098	18049
905.216	18098
905.334	18019
905.451	18171
905.569	18038
905.686	18087
905.803	17912
905.921	17726
906.038	17847
906.155	17824
906.272	17665
906.389	17748
906.506	17596
906.623	17505
906.74	17566
906.857	17455
906.974	17406
907.091	17558
907.208	17638
907.324	17562
907.441	17398
907.557	17288
907.674	17330
907.79	17193
907.907	17265
908.023	17303
908.139	17212
908.256	17280
908.372	17143
908.488	17094
908.604	17003
908.72	17003
908.836	16961
908.952	16961
909.068	16942
909.184	16991
909.3	16900
909.415	17029
909.531	16934
909.647	16793
909.762	16717
909.878	16607
909.993	16634
910.108	16675
910.224	16565
910.339	16622
910.454	16489
910.57	16497
910.685	16348
910.8	16603
910.915	16660
911.03	16440
911.145	16386
911.259	16284
911.374	16150
911.489	16246
911.604	16158
911.718	16010
911.833	16139
911.947	15998
912.062	15884
912.176	16051
912.291	16029
912.405	15972
912.519	16158
912.633	16238
912.748	16128
912.862	15934
912.976	15854
913.09	15698
913.204	15759
913.318	15789
913.431	15899
913.545	15960
913.659	15926
913.772	15770
913.886	15698
914	15549
914.113	15675
914.226	15774
914.34	15648
914.453	15488
914.566	15759
914.68	15481
914.793	15538
914.906	15332
915.019	15264
915.132	15241
915.245	15256
915.358	15218
915.47	15378
915.583	15207
915.696	15222
915.809	15416
915.921	15348
916.034	15226
916.146	15081
916.259	15097
916.371	15195
916.483	15249
916.595	15070
916.708	15074
916.82	14971
916.932	14944
917.044	15001
917.156	14956
917.268	14906
917.38	14956
917.491	14834
917.603	14880
917.715	15005
917.826	14925
917.938	14708
918.049	14705
918.161	14849
918.272	14937
918.384	15005
918.495	14788
918.606	14682
918.717	14583
918.828	14792
918.939	14659
919.05	14636
919.161	14678
919.272	14454
919.383	14328
919.494	14659
919.604	14705
919.715	14659
919.826	14457
919.936	14602
920.047	14568
920.157	14571
920.267	14686
920.378	14598
920.488	14545
920.598	14712
920.708	14895
920.818	14727
920.928	14701
921.038	14902
921.148	14845
921.258	14488
921.368	14412
921.477	14389
921.587	14404
921.697	14187
921.806	14332
921.916	14172
922.025	14020
922.134	13928
922.244	13856
922.353	13936
922.462	13826
922.571	13723
922.68	13597
922.789	13544
922.898	13662
923.007	13556
923.116	13628
923.224	13544
923.333	13647
923.442	13514
923.55	13430
923.659	13384
923.767	13491
923.876	13381
923.984	13518
924.092	13293
924.201	13411
924.309	13350
924.417	13255
924.525	13251
924.633	13320
924.741	14065
924.849	13050
924.956	13206
925.064	13080
925.172	13050
925.279	13072
925.387	13057
925.494	13057
925.602	13202
925.709	13012
925.816	12977
925.924	12924
926.031	13042
926.138	12924
926.245	12932
926.352	12966
926.459	12996
926.566	13008
926.673	12913
926.779	12760
926.886	12749
926.993	12574
927.099	12506
927.206	12456
927.312	12608
927.419	12570
927.525	12563
927.631	12566
927.737	12483
927.843	12509
927.95	12296
928.056	12426
928.162	12300
928.267	12452
928.373	13034
928.479	12490
928.585	12273
928.69	12338
928.796	12327
928.901	12296
929.007	12155
929.112	12308
929.218	12197
929.323	12102
929.428	12129
929.533	12285
929.638	12076
929.743	12068
929.848	12091
929.953	12064
930.058	11942
930.163	11851
930.267	11836
930.372	11882
930.477	11718
930.581	11950
930.685	11855
930.79	11710
930.894	11748
930.998	11752
931.103	11794
931.207	11474
931.311	11433
931.415	11296
931.519	11117
931.623	11079
