Data from test_V78500241_2780.txt Node
Date: Fri Mar 25 15:29:13 CST 2022
User: usil
Spectrometer: V785-0024
Trigger mode: 0
Integration Time (sec): 4.000000E-1
Scans to average: 1
Nonlinearity correction enabled: false
Boxcar width: 0
Storing dark spectrum: false
XAxis mode: Wavelengths
Number of Pixels in Spectrum: 1024
>>>>>Begin Spectral Data<<<<<
801.071	27169
801.214	27207
801.356	26940
801.499	26765
801.641	26636
801.783	26731
801.926	26758
802.068	26636
802.211	26552
802.353	26575
802.496	26408
802.638	26282
802.78	26172
802.923	26259
803.065	26240
803.208	26202
803.35	26339
803.492	26339
803.635	26427
803.777	26370
803.919	26473
804.061	26640
804.204	26549
804.346	26370
804.488	26347
804.63	26298
804.773	26393
804.915	26457
805.057	26621
805.199	26412
805.341	26617
805.483	26625
805.626	26575
805.768	26469
805.91	26530
806.052	26644
806.194	26453
806.336	26720
806.478	26488
806.62	26480
806.762	26720
806.904	26746
807.046	27138
807.188	27135
807.33	27116
807.472	26971
807.614	27062
807.756	26895
807.898	26918
808.04	26777
808.182	26750
808.324	26864
808.465	26883
808.607	27043
808.749	27237
808.891	27184
809.033	27420
809.174	27218
809.316	27093
809.458	27256
809.6	27108
809.741	27245
809.883	27393
810.025	27511
810.166	27450
810.308	27488
810.45	27332
810.591	27321
810.733	27138
810.875	27043
811.016	27096
811.158	27070
811.299	27180
811.441	27355
811.582	27367
811.724	27214
811.865	27100
812.007	27077
812.148	27161
812.29	27211
812.431	27207
812.573	27458
812.714	27492
812.855	27698
812.997	27618
813.138	27827
813.279	27667
813.421	27682
813.562	27545
813.703	27515
813.845	27199
813.986	27032
814.127	26842
814.268	26773
814.41	26807
814.551	26667
814.692	26853
814.833	26876
814.974	26826
815.115	26902
815.256	26571
815.397	26621
815.539	26701
815.68	26499
815.821	26484
815.962	26503
816.103	26556
816.244	26355
816.385	26320
816.526	26332
816.666	26195
816.807	26172
816.948	26191
817.089	26161
817.23	26035
817.371	26073
817.512	26008
817.653	26096
817.793	26111
817.934	26035
818.075	26119
818.216	26050
818.356	26001
818.497	25974
818.638	25765
818.778	25811
818.919	25833
819.06	25814
819.2	25940
819.341	26130
819.481	26115
819.622	26138
819.762	26366
819.903	26366
820.043	26294
820.184	26172
820.324	26328
820.465	26271
820.605	26149
820.746	26180
820.886	26065
821.026	26138
821.167	26046
821.307	26111
821.447	26039
821.588	25955
821.728	25620
821.868	25761
822.008	25434
822.149	25578
822.289	25483
822.429	25251
822.569	25171
822.709	25251
822.849	24939
822.99	24954
823.13	24916
823.27	24928
823.41	24840
823.55	24760
823.69	24840
823.83	24745
823.97	24665
824.11	24601
824.25	24589
824.389	24715
824.529	24703
824.669	24696
824.809	24875
824.949	24829
825.089	24658
825.228	24623
825.368	24547
825.508	24551
825.648	24517
825.787	24448
825.927	24642
826.067	24525
826.206	24536
826.346	24612
826.485	24536
826.625	24445
826.765	24582
826.904	24551
827.044	24376
827.183	24308
827.323	24224
827.462	24205
827.601	24311
827.741	24102
827.88	24273
828.02	24091
828.159	24251
828.298	24197
828.437	24311
828.577	24152
828.716	24296
828.855	24159
828.994	23935
829.134	23817
829.273	24045
829.412	23840
829.551	23878
829.69	23847
829.829	23958
829.968	23969
830.107	23889
830.246	23980
830.385	23999
830.524	23885
830.663	23832
830.802	23684
830.941	23642
831.08	23471
831.219	23455
831.357	23653
831.496	23665
831.635	23543
831.774	23318
831.913	23273
832.051	23360
832.19	23292
832.329	23356
832.467	23337
832.606	23212
832.744	23197
832.883	23140
833.022	23090
833.16	23292
833.299	23227
833.437	23242
833.576	23227
833.714	23322
833.852	23265
833.991	23269
834.129	23436
834.267	23277
834.406	23250
834.544	23269
834.682	23200
834.821	23235
834.959	23433
835.097	23174
835.235	23318
835.373	23250
835.511	23322
835.65	23216
835.788	23048
835.926	22972
836.064	23022
836.202	23003
836.34	22980
836.478	23216
836.615	23147
836.753	23105
836.891	23178
837.029	23132
837.167	23006
837.305	23109
837.443	22987
837.58	22942
837.718	22968
837.856	23037
837.993	22919
838.131	22854
838.269	22904
838.406	22820
838.544	22782
838.681	22554
838.819	22500
838.956	22455
839.094	22447
839.231	22519
839.369	22706
839.506	22805
839.643	22630
839.781	22569
839.918	22459
840.055	22341
840.193	22352
840.33	22284
840.467	22398
840.604	22417
840.742	22626
840.879	22242
841.016	22375
841.153	22310
841.29	22310
841.427	22329
841.564	22447
841.701	22299
841.838	22261
841.975	22291
842.112	22238
842.249	22169
842.385	22257
842.522	22474
842.659	22105
842.796	22093
842.933	22173
843.069	22074
843.206	22150
843.343	22139
843.479	22158
843.616	22051
843.752	21861
843.889	21876
844.025	22051
844.162	21907
844.298	22063
844.435	21869
844.571	21915
844.708	22029
844.844	22082
844.98	22025
845.117	22021
845.253	21930
845.389	21732
845.525	21804
845.661	21743
845.798	21625
845.934	21736
846.07	21591
846.206	21686
846.342	21804
846.478	21538
846.614	21431
846.75	21294
846.886	21355
847.022	21469
847.158	21321
847.294	21268
847.429	21450
847.565	21321
847.701	21530
847.837	21138
847.972	21024
848.108	21173
848.244	21180
848.379	20982
848.515	20933
848.65	20902
848.786	21066
848.921	21028
849.057	21051
849.192	21043
849.328	20975
849.463	21020
849.598	20868
849.734	20815
849.869	20811
850.004	20800
850.14	20701
850.275	20746
850.41	20724
850.545	20678
850.68	20678
850.815	20842
850.95	20613
851.085	21001
851.22	20807
851.355	20720
851.49	20792
851.625	20743
851.76	20724
851.895	20571
852.03	20693
852.165	20689
852.299	20838
852.434	20705
852.569	20750
852.703	20754
852.838	20758
852.973	20929
853.107	20746
853.242	20625
853.376	20526
853.511	20476
853.645	20613
853.78	20587
853.914	20594
854.048	20495
854.183	20549
854.317	20571
854.451	20731
854.585	20583
854.72	20564
854.854	20579
854.988	20583
855.122	20617
855.256	20495
855.39	20571
855.524	20590
855.658	20556
855.792	20545
855.926	20541
856.06	20648
856.194	20587
856.327	20602
856.461	20492
856.595	20514
856.729	20434
856.862	20625
856.996	20598
857.13	20587
857.263	20708
857.397	20659
857.53	20575
857.664	20648
857.797	20583
857.931	20686
858.064	20522
858.197	20609
858.331	20575
858.464	20526
858.597	20377
858.731	20507
858.864	20613
858.997	20613
859.13	20640
859.263	20526
859.396	20625
859.529	20469
859.662	20438
859.795	20473
859.928	20484
860.061	20655
860.194	20765
860.327	20556
860.46	20609
860.592	20720
860.725	20667
860.858	20811
860.99	20526
861.123	20374
861.256	20473
861.388	20522
861.521	21169
861.653	20469
861.786	20309
861.918	20381
862.05	20568
862.183	20473
862.315	20568
862.447	20640
862.58	20415
862.712	20336
862.844	20336
862.976	20305
863.108	20412
863.24	20739
863.372	20187
863.504	20233
863.636	20221
863.768	20298
863.9	20298
864.032	20149
864.164	20317
864.296	20240
864.428	20355
864.559	20339
864.691	20237
864.823	20374
864.954	20343
865.086	20347
865.217	20164
865.349	20138
865.48	20210
865.612	20183
865.743	20317
865.875	20084
866.006	20157
866.137	20256
866.269	20134
866.4	20278
866.531	20176
866.662	20077
866.793	20058
866.924	20149
867.055	20142
867.186	20191
867.317	20084
867.448	19940
867.579	20103
867.71	20020
867.841	19951
867.972	20195
868.103	20142
868.233	20054
868.364	20206
868.495	20248
868.625	20351
868.756	20404
868.886	20248
869.017	20294
869.147	20442
869.278	20518
869.408	20317
869.539	20328
869.669	20465
869.799	20275
869.929	20514
870.06	20454
870.19	20693
870.32	20670
870.45	20750
870.58	20716
870.71	20815
870.84	20853
870.97	20746
871.1	20743
871.23	20929
871.36	20948
871.489	20895
871.619	20971
871.749	21028
871.879	21043
872.008	21051
872.138	21020
872.267	20845
872.397	20872
872.526	20689
872.656	20845
872.785	20807
872.915	20910
873.044	21036
873.173	20876
873.303	21062
873.432	21047
873.561	21108
873.69	21112
873.819	20948
873.948	21081
874.077	20960
874.206	21001
874.335	20929
874.464	21077
874.593	21230
874.722	21245
874.851	21230
874.979	21252
875.108	21279
875.237	21104
875.365	21211
875.494	21180
875.623	21378
875.751	21074
875.88	21291
876.008	21348
876.136	21488
876.265	21622
876.393	21622
876.521	21663
876.65	21759
876.778	21644
876.906	21618
877.034	21477
877.162	21618
877.29	21603
877.418	21553
877.546	21701
877.674	21576
877.802	21568
877.93	21591
878.058	21591
878.185	21454
878.313	21485
878.441	21534
878.568	21469
878.696	21473
878.824	21504
878.951	21698
879.079	21759
879.206	21979
879.333	21637
879.461	21580
879.588	21690
879.715	21682
879.842	21979
879.97	21603
880.097	21405
880.224	21245
880.351	21367
880.478	21447
880.605	21355
880.732	21306
880.859	21542
880.986	21473
881.112	21336
881.239	21211
881.366	21268
881.493	21085
881.619	20990
881.746	20994
881.872	20998
881.999	20876
882.125	20921
882.252	21062
882.378	21009
882.505	21112
882.631	20929
882.757	20765
882.883	20777
883.01	20708
883.136	20568
883.262	20541
883.388	20609
883.514	20667
883.64	20765
883.766	20648
883.892	20408
884.018	20537
884.143	20640
884.269	20644
884.395	20473
884.52	20358
884.646	20419
884.772	20221
884.897	20305
885.023	20434
885.148	20454
885.274	20575
885.399	20419
885.524	20408
885.65	20358
885.775	20271
885.9	20336
886.025	20434
886.15	20511
886.275	20271
886.4	20355
886.525	20259
886.65	20218
886.775	20290
886.9	20469
887.025	20617
887.149	20343
887.274	20164
887.399	20210
887.523	20149
887.648	20100
887.773	20100
887.897	20233
888.021	20122
888.146	20050
888.27	20225
888.395	20248
888.519	20210
888.643	20122
888.767	20240
888.891	20001
889.015	19928
889.139	20020
889.263	19963
889.387	20100
889.511	20282
889.635	20100
889.759	19947
889.883	19921
890.006	19974
890.13	20065
890.254	19875
890.377	19841
890.501	19708
890.624	19731
890.748	19685
890.871	19658
890.995	19426
891.118	19533
891.241	19544
891.364	19590
891.488	19666
891.611	19575
891.734	19487
891.857	19655
891.98	19548
892.103	19594
892.226	19567
892.349	19480
892.471	19400
892.594	19472
892.717	19453
892.839	19468
892.962	19556
893.085	19529
893.207	19491
893.33	19457
893.452	19324
893.575	19495
893.697	19430
893.819	19635
893.941	19616
894.064	19567
894.186	19377
894.308	19472
894.43	19575
894.552	19586
894.674	19480
894.796	19369
894.918	19354
895.04	19540
895.161	19514
895.283	19400
895.405	19422
895.526	19514
895.648	19510
895.769	19487
895.891	19434
896.012	19480
896.134	19594
896.255	19495
896.376	19502
896.498	19540
896.619	19441
896.74	19434
896.861	19651
896.982	19841
897.103	19890
897.224	19803
897.345	19681
897.466	19594
897.587	19712
897.708	19845
897.828	19818
897.949	19647
898.07	19487
898.19	19616
898.311	19788
898.431	19651
898.552	19727
898.672	19814
898.792	19818
898.913	19742
899.033	19662
899.153	19529
899.273	19441
899.393	19483
899.513	19544
899.633	19445
899.753	19445
899.873	19445
899.993	19441
900.113	19518
900.232	19457
900.352	19476
900.472	19312
900.591	19247
900.711	19285
900.83	19141
900.95	19422
901.069	19308
901.189	19133
901.308	18924
901.427	18798
901.546	18901
901.665	18878
901.784	18798
901.904	18658
902.023	18608
902.141	18540
902.26	18369
902.379	18513
902.498	18311
902.617	18292
902.735	18426
902.854	18441
902.973	18190
903.091	18007
903.21	18007
903.328	18007
903.446	17954
903.565	17870
903.683	17946
903.801	17722
903.919	17760
904.038	17783
904.156	17615
904.274	17771
904.392	17684
904.51	17467
904.627	17619
904.745	17665
904.863	17512
904.981	17497
905.098	17254
905.216	17337
905.334	17288
905.451	17280
905.569	17254
905.686	17425
905.803	17280
905.921	17041
906.038	17197
906.155	17258
906.272	17109
906.389	17003
906.506	16869
906.623	16862
906.74	16767
906.857	16721
906.974	16763
907.091	16927
907.208	17052
907.324	16904
907.441	16733
907.557	16615
907.674	16485
907.79	16451
907.907	16516
908.023	16656
908.139	16645
908.256	16558
908.372	16462
908.488	16405
908.604	16344
908.72	16249
908.836	16367
908.952	16211
909.068	16356
909.184	16481
909.3	16246
909.415	16280
909.531	16249
909.647	16105
909.762	15972
909.878	15937
909.993	16067
910.108	15987
910.224	15945
910.339	15926
910.454	15884
910.57	15793
910.685	15637
910.8	15994
910.915	15949
911.03	15838
911.145	15728
911.259	15523
911.374	15603
911.489	15584
911.604	15477
911.718	15291
911.833	15431
911.947	15169
912.062	15192
912.176	15408
912.291	15405
912.405	15382
912.519	15545
912.633	15587
912.748	15351
912.862	15268
912.976	15180
913.09	15051
913.204	15180
913.318	15184
913.431	15249
913.545	15226
913.659	15302
913.772	15058
913.886	14998
914	14929
914.113	15039
914.226	15135
914.34	15047
914.453	14853
914.566	14998
914.68	14830
914.793	14979
914.906	14640
915.019	14644
915.132	14575
915.245	14587
915.358	14655
915.47	14678
915.583	14590
915.696	14602
915.809	14655
915.921	14701
916.034	14545
916.146	14465
916.259	14518
916.371	14610
916.483	14640
916.595	14400
916.708	14488
916.82	14438
916.932	14374
917.044	14381
917.156	14385
917.268	14240
917.38	14267
917.491	14240
917.603	14313
917.715	14476
917.826	14358
917.938	14225
918.049	14050
918.161	14294
918.272	14347
918.384	14244
918.495	14282
918.606	14100
918.717	14062
918.828	14054
918.939	14123
919.05	13967
919.161	14035
919.272	13879
919.383	13898
919.494	14069
919.604	14324
919.715	14005
919.826	13940
919.936	13871
920.047	14073
920.157	14062
920.267	14313
920.378	14054
920.488	13951
920.598	14191
920.708	14366
920.818	14214
920.928	14138
921.038	14332
921.148	14301
921.258	13978
921.368	13928
921.477	13833
921.587	13727
921.697	13715
921.806	13849
921.916	13628
922.025	13601
922.134	13449
922.244	13426
922.353	13460
922.462	13388
922.571	13228
922.68	13080
922.789	13023
922.898	13046
923.007	12993
923.116	13171
923.224	13072
923.333	13061
923.442	12958
923.55	12939
923.659	12993
923.767	12913
923.876	12920
923.984	13000
924.092	12825
924.201	12844
924.309	12779
924.417	12863
924.525	12764
924.633	12798
924.741	13537
924.849	12623
924.956	12757
925.064	12528
925.172	12532
925.279	12547
925.387	12506
925.494	12467
925.602	12555
925.709	12578
925.816	12479
925.924	12365
926.031	12506
926.138	12448
926.245	12422
926.352	12403
926.459	12604
926.566	12559
926.673	12403
926.779	12285
926.886	12232
926.993	12171
927.099	12106
927.206	11999
927.312	11988
927.419	12060
927.525	12060
927.631	12106
927.737	11992
927.843	11904
927.95	11885
928.056	11923
928.162	11901
928.267	11961
928.373	12570
928.479	12015
928.585	11688
928.69	11931
928.796	11863
928.901	11771
929.007	11649
929.112	11824
929.218	11756
929.323	11722
929.428	11646
929.533	11824
929.638	11604
929.743	11619
929.848	11585
929.953	11562
930.058	11505
930.163	11444
930.267	11440
930.372	11524
930.477	11303
930.581	11604
930.685	11414
930.79	11254
930.894	11296
930.998	11254
931.103	11349
931.207	10995
931.311	10980
931.415	10900
931.519	10683
931.623	10668
