Data from test_V78500241_2391.txt Node
Date: Fri Mar 25 15:26:30 CST 2022
User: usil
Spectrometer: V785-0024
Trigger mode: 0
Integration Time (sec): 4.000000E-1
Scans to average: 1
Nonlinearity correction enabled: false
Boxcar width: 0
Storing dark spectrum: false
XAxis mode: Wavelengths
Number of Pixels in Spectrum: 1024
>>>>>Begin Spectral Data<<<<<
801.071	27138
801.214	27195
801.356	26880
801.499	26975
801.641	26644
801.783	26644
801.926	26659
802.068	26678
802.211	26530
802.353	26518
802.496	26370
802.638	26336
802.78	26358
802.923	26218
803.065	26130
803.208	26126
803.35	26328
803.492	26507
803.635	26514
803.777	26374
803.919	26556
804.061	26697
804.204	26434
804.346	26469
804.488	26301
804.63	26442
804.773	26404
804.915	26518
805.057	26549
805.199	26476
805.341	26727
805.483	26427
805.626	26476
805.768	26457
805.91	26480
806.052	26499
806.194	26305
806.336	26746
806.478	26590
806.62	26507
806.762	26602
806.904	26720
807.046	27089
807.188	26887
807.33	26956
807.472	27135
807.614	27055
807.756	26773
807.898	26899
808.04	26663
808.182	26693
808.324	26746
808.465	26948
808.607	27104
808.749	27017
808.891	27195
809.033	27291
809.174	27150
809.316	27199
809.458	27230
809.6	27077
809.741	27275
809.883	27386
810.025	27386
810.166	27386
810.308	27439
810.45	27348
810.591	27268
810.733	27108
810.875	27070
811.016	26956
811.158	26990
811.299	27055
811.441	27275
811.582	27233
811.724	27119
811.865	27043
812.007	27123
812.148	26929
812.29	27131
812.431	27245
812.573	27496
812.714	27462
812.855	27682
812.997	27701
813.138	27816
813.279	27713
813.421	27709
813.562	27660
813.703	27542
813.845	27150
813.986	26998
814.127	26910
814.268	26811
814.41	26826
814.551	26876
814.692	26762
814.833	26762
814.974	26693
815.115	26651
815.256	26556
815.397	26640
815.539	26663
815.68	26522
815.821	26499
815.962	26720
816.103	26526
816.244	26343
816.385	26275
816.526	26248
816.666	26138
816.807	25955
816.948	26046
817.089	26233
817.23	26191
817.371	26065
817.512	25951
817.653	26050
817.793	26031
817.934	25913
818.075	26126
818.216	25982
818.356	25928
818.497	25811
818.638	25780
818.778	25837
818.919	25696
819.06	25795
819.2	25864
819.341	25966
819.481	25936
819.622	26164
819.762	26412
819.903	26290
820.043	26168
820.184	26130
820.324	26176
820.465	26282
820.605	26145
820.746	26161
820.886	25947
821.026	26149
821.167	26050
821.307	26027
821.447	26035
821.588	26008
821.728	25974
821.868	25734
822.008	25434
822.149	25464
822.289	25479
822.429	25331
822.569	25095
822.709	25202
822.849	25038
822.99	24932
823.13	24909
823.27	24958
823.41	24996
823.55	24642
823.69	24776
823.83	24703
823.97	24612
824.11	24627
824.25	24612
824.389	24642
824.529	24738
824.669	24540
824.809	24757
824.949	24563
825.089	24760
825.228	24608
825.368	24486
825.508	24456
825.648	24490
825.787	24498
825.927	24460
826.067	24330
826.206	24494
826.346	24525
826.485	24536
826.625	24475
826.765	24536
826.904	24563
827.044	24323
827.183	24216
827.323	24186
827.462	24342
827.601	24163
827.741	24178
827.88	24213
828.02	24148
828.159	24235
828.298	24289
828.437	24277
828.577	24087
828.716	24342
828.855	24110
828.994	23961
829.134	24026
829.273	23958
829.412	23882
829.551	23859
829.69	23817
829.829	24022
829.968	23855
830.107	23984
830.246	23908
830.385	23874
830.524	23859
830.663	23691
830.802	23676
830.941	23433
831.08	23463
831.219	23668
831.357	23668
831.496	23805
831.635	23455
831.774	23490
831.913	23341
832.051	23372
832.19	23410
832.329	23368
832.467	23204
832.606	23124
832.744	23204
832.883	23090
833.022	23223
833.16	23208
833.299	23124
833.437	23242
833.576	23356
833.714	23204
833.852	23330
833.991	23341
834.129	23463
834.267	23444
834.406	23277
834.544	23265
834.682	23280
834.821	23284
834.959	23421
835.097	23220
835.235	23280
835.373	23356
835.511	23349
835.65	23170
835.788	23174
835.926	23056
836.064	22881
836.202	22908
836.34	23029
836.478	23208
836.615	23037
836.753	23025
836.891	23197
837.029	23288
837.167	23098
837.305	22949
837.443	23041
837.58	22999
837.718	23064
837.856	22980
837.993	22927
838.131	22991
838.269	22752
838.406	22885
838.544	22683
838.681	22767
838.819	22744
838.956	22440
839.094	22573
839.231	22462
839.369	22660
839.506	22797
839.643	22752
839.781	22535
839.918	22394
840.055	22443
840.193	22379
840.33	22382
840.467	22440
840.604	22367
840.742	22675
840.879	22303
841.016	22246
841.153	22287
841.29	22421
841.427	22219
841.564	22500
841.701	22341
841.838	22344
841.975	22268
842.112	22299
842.249	22196
842.385	22109
842.522	22280
842.659	22166
842.796	22207
842.933	22162
843.069	22200
843.206	22097
843.343	22173
843.479	22128
843.616	22226
843.752	21949
843.889	21850
844.025	22082
844.162	21854
844.298	21899
844.435	21941
844.571	21835
844.708	21994
844.844	21991
844.98	22040
845.117	21960
845.253	21846
845.389	21793
845.525	21865
845.661	21667
845.798	21724
845.934	21660
846.07	21739
846.206	21656
846.342	21705
846.478	21641
846.614	21401
846.75	21287
846.886	21389
847.022	21545
847.158	21454
847.294	21386
847.429	21420
847.565	21340
847.701	21675
847.837	21036
847.972	21116
848.108	21138
848.244	21207
848.379	20960
848.515	21024
848.65	20910
848.786	20937
848.921	20994
849.057	21085
849.192	21032
849.328	20975
849.463	20826
849.598	20937
849.734	20937
849.869	20868
850.004	20796
850.14	20788
850.275	20727
850.41	20693
850.545	20773
850.68	20678
850.815	20724
850.95	20785
851.085	20861
851.22	20834
851.355	20708
851.49	20777
851.625	20606
851.76	20686
851.895	20674
852.03	20663
852.165	20724
852.299	20769
852.434	20933
852.569	20781
852.703	20754
852.838	20727
852.973	20895
853.107	20804
853.242	20667
853.376	20571
853.511	20446
853.645	20518
853.78	20670
853.914	20644
854.048	20503
854.183	20568
854.317	20659
854.451	20796
854.585	20693
854.72	20602
854.854	20678
854.988	20579
855.122	20465
855.256	20412
855.39	20640
855.524	20644
855.658	20568
855.792	20507
855.926	20625
856.06	20594
856.194	20769
856.327	20682
856.461	20454
856.595	20541
856.729	20537
856.862	20606
856.996	20659
857.13	20701
857.263	20629
857.397	20644
857.53	20575
857.664	20579
857.797	20609
857.931	20602
858.064	20575
858.197	20697
858.331	20556
858.464	20480
858.597	20377
858.731	20579
858.864	20583
858.997	20480
859.13	20575
859.263	20533
859.396	20549
859.529	20575
859.662	20651
859.795	20518
859.928	20492
860.061	20697
860.194	20842
860.327	20621
860.46	20556
860.592	20735
860.725	20758
860.858	20659
860.99	20568
861.123	20484
861.256	20484
861.388	20632
861.521	21089
861.653	20537
861.786	20355
861.918	20339
862.05	20438
862.183	20385
862.315	20568
862.447	20533
862.58	20423
862.712	20263
862.844	20240
862.976	20446
863.108	20393
863.24	20781
863.372	20271
863.504	20237
863.636	20309
863.768	20313
863.9	20358
864.032	20191
864.164	20252
864.296	20286
864.428	20362
864.559	20305
864.691	20446
864.823	20415
864.954	20275
865.086	20248
865.217	20225
865.349	20214
865.48	20172
865.612	20164
865.743	20290
865.875	20244
866.006	20100
866.137	20229
866.269	20168
866.4	20199
866.531	20206
866.662	19925
866.793	20088
866.924	20153
867.055	20240
867.186	20157
867.317	20164
867.448	20005
867.579	20180
867.71	20027
867.841	20088
867.972	20149
868.103	20130
868.233	20161
868.364	20202
868.495	20271
868.625	20362
868.756	20450
868.886	20427
869.017	20408
869.147	20454
869.278	20503
869.408	20381
869.539	20298
869.669	20355
869.799	20370
869.929	20461
870.06	20389
870.19	20727
870.32	20617
870.45	20731
870.58	20670
870.71	20895
870.84	20880
870.97	20792
871.1	20819
871.23	20941
871.36	20967
871.489	20868
871.619	20933
871.749	20929
871.879	20952
872.008	21127
872.138	21039
872.267	20937
872.397	20754
872.526	20845
872.656	20644
872.785	20921
872.915	20925
873.044	21051
873.173	20864
873.303	20979
873.432	21074
873.561	21104
873.69	21047
873.819	20895
873.948	21085
874.077	20963
874.206	20910
874.335	21005
874.464	21180
874.593	21135
874.722	21165
874.851	21332
874.979	21207
875.108	21329
875.237	21195
875.365	21127
875.494	21077
875.623	21317
875.751	21157
875.88	21214
876.008	21393
876.136	21424
876.265	21686
876.393	21819
876.521	21629
876.65	21633
876.778	21755
876.906	21572
877.034	21599
877.162	21599
877.29	21534
877.418	21648
877.546	21568
877.674	21587
877.802	21671
877.93	21720
878.058	21496
878.185	21542
878.313	21477
878.441	21545
878.568	21340
878.696	21431
878.824	21583
878.951	21614
879.079	21762
879.206	21934
879.333	21831
879.461	21667
879.588	21583
879.715	21675
879.842	21854
879.97	21637
880.097	21405
880.224	21302
880.351	21443
880.478	21374
880.605	21355
880.732	21564
880.859	21789
880.986	21481
881.112	21386
881.239	21291
881.366	21085
881.493	21070
881.619	21043
881.746	20933
881.872	21001
881.999	20849
882.125	20948
882.252	20925
882.378	20933
882.505	21127
882.631	20868
882.757	20724
882.883	20769
883.01	20686
883.136	20632
883.262	20530
883.388	20598
883.514	20804
883.64	20629
883.766	20556
883.892	20522
884.018	20473
884.143	20716
884.269	20552
884.395	20415
884.52	20351
884.646	20389
884.772	20374
884.897	20305
885.023	20358
885.148	20499
885.274	20480
885.399	20381
885.524	20339
885.65	20400
885.775	20488
885.9	20389
886.025	20438
886.15	20396
886.275	20290
886.4	20221
886.525	20320
886.65	20267
886.775	20275
886.9	20423
887.025	20541
887.149	20347
887.274	20202
887.399	20126
887.523	20191
887.648	20138
887.773	20130
887.897	20145
888.021	20199
888.146	20122
888.27	20282
888.395	20191
888.519	20073
888.643	20161
888.767	20103
888.891	20100
889.015	19883
889.139	19928
889.263	19890
889.387	20092
889.511	20054
889.635	20043
889.759	19963
889.883	19860
890.006	20046
890.13	20119
890.254	19887
890.377	19833
890.501	19696
890.624	19658
890.748	19696
890.871	19582
890.995	19468
891.118	19464
891.241	19571
891.364	19540
891.488	19674
891.611	19460
891.734	19514
891.857	19510
891.98	19426
892.103	19563
892.226	19582
892.349	19422
892.471	19324
892.594	19537
892.717	19453
892.839	19369
892.962	19419
893.085	19453
893.207	19434
893.33	19270
893.452	19308
893.575	19514
893.697	19445
893.819	19582
893.941	19620
894.064	19559
894.186	19449
894.308	19304
894.43	19605
894.552	19578
894.674	19559
894.796	19320
894.918	19304
895.04	19521
895.161	19552
895.283	19487
895.405	19403
895.526	19343
895.648	19483
895.769	19403
895.891	19472
896.012	19487
896.134	19415
896.255	19415
896.376	19373
896.498	19487
896.619	19594
896.74	19464
896.861	19422
896.982	19734
897.103	19909
897.224	19712
897.345	19666
897.466	19480
897.587	19719
897.708	19807
897.828	19723
897.949	19670
898.07	19559
898.19	19635
898.311	19742
898.431	19620
898.552	19582
898.672	19734
898.792	19742
898.913	19727
899.033	19681
899.153	19487
899.273	19388
899.393	19457
899.513	19521
899.633	19358
899.753	19495
899.873	19487
899.993	19529
900.113	19407
900.232	19422
900.352	19373
900.472	19263
900.591	19133
900.711	19297
900.83	19160
900.95	19282
901.069	19168
901.189	19076
901.308	18939
901.427	18757
901.546	18802
901.665	18913
901.784	18798
901.904	18639
902.023	18582
902.141	18399
902.26	18376
902.379	18391
902.498	18330
902.617	18338
902.735	18239
902.854	18304
902.973	18270
903.091	18053
903.21	18053
903.328	17999
903.446	18003
903.565	17889
903.683	17882
903.801	17885
903.919	17741
904.038	17748
904.156	17558
904.274	17623
904.392	17554
904.51	17516
904.627	17493
904.745	17695
904.863	17630
904.981	17467
905.098	17288
905.216	17322
905.334	17178
905.451	17242
905.569	17273
905.686	17311
905.803	17242
905.921	17204
906.038	17094
906.155	17064
906.272	16885
906.389	17025
906.506	16858
906.623	16869
906.74	16953
906.857	16702
906.974	16759
907.091	16763
907.208	16930
907.324	16824
907.441	16691
907.557	16523
907.674	16512
907.79	16500
907.907	16527
908.023	16569
908.139	16523
908.256	16489
908.372	16512
908.488	16337
908.604	16371
908.72	16257
908.836	16284
908.952	16166
909.068	16238
909.184	16390
909.3	16276
909.415	16234
909.531	16272
909.647	16025
909.762	15994
909.878	16093
909.993	15987
910.108	15998
910.224	16002
910.339	16002
910.454	15918
910.57	15747
910.685	15694
910.8	16032
910.915	15918
911.03	15850
911.145	15671
911.259	15580
911.374	15618
911.489	15534
911.604	15431
911.718	15469
911.833	15332
911.947	15294
912.062	15138
912.176	15313
912.291	15355
912.405	15294
912.519	15572
912.633	15412
912.748	15264
912.862	15348
912.976	15199
913.09	15127
913.204	15097
913.318	15112
913.431	15348
913.545	15310
913.659	15188
913.772	15089
913.886	15055
914	14990
914.113	15039
914.226	14975
914.34	15039
914.453	14845
914.566	15070
914.68	14906
914.793	14807
914.906	14606
915.019	14682
915.132	14537
915.245	14651
915.358	14636
915.47	14613
915.583	14488
915.696	14610
915.809	14689
915.921	14629
916.034	14457
916.146	14446
916.259	14427
916.371	14549
916.483	14514
916.595	14530
916.708	14530
916.82	14423
916.932	14324
917.044	14370
917.156	14355
917.268	14267
917.38	14286
917.491	14210
917.603	14286
917.715	14298
917.826	14324
917.938	14149
918.049	14153
918.161	14187
918.272	14358
918.384	14404
918.495	14183
918.606	14088
918.717	13883
918.828	14058
918.939	13978
919.05	13894
919.161	13898
919.272	13776
919.383	13898
919.494	14035
919.604	14259
919.715	13978
919.826	13997
919.936	13944
920.047	14043
920.157	13917
920.267	14191
920.378	14081
920.488	13849
920.598	14130
920.708	14286
920.818	14107
920.928	14187
921.038	14351
921.148	14294
921.258	14043
921.368	13738
921.477	13753
921.587	13715
921.697	13540
921.806	13731
921.916	13594
922.025	13502
922.134	13441
922.244	13350
922.353	13445
922.462	13240
922.571	13251
922.68	13091
922.789	12905
922.898	13061
923.007	12973
923.116	13122
923.224	12954
923.333	13042
923.442	12985
923.55	12833
923.659	12951
923.767	12958
923.876	12833
923.984	12935
924.092	12825
924.201	12791
924.309	12821
924.417	12802
924.525	12734
924.633	12673
924.741	13605
924.849	12566
924.956	12547
925.064	12540
925.172	12319
925.279	12456
925.387	12498
925.494	12460
925.602	12677
925.709	12525
925.816	12361
925.924	12433
926.031	12479
926.138	12414
926.245	12445
926.352	12330
926.459	12437
926.566	12502
926.673	12372
926.779	12285
926.886	12175
926.993	12064
927.099	12079
927.206	12053
927.312	12083
927.419	12129
927.525	12117
927.631	12098
927.737	11980
927.843	11916
927.95	11832
928.056	11863
928.162	11946
928.267	11980
928.373	12540
928.479	11923
928.585	11764
928.69	11794
928.796	11935
928.901	11821
929.007	11600
929.112	11707
929.218	11691
929.323	11741
929.428	11634
929.533	11802
929.638	11516
929.743	11585
929.848	11638
929.953	11562
930.058	11524
930.163	11337
930.267	11345
930.372	11455
930.477	11299
930.581	11509
930.685	11486
930.79	11311
930.894	11296
930.998	11284
931.103	11292
931.207	10953
931.311	10927
931.415	10847
931.519	10656
931.623	10622
