Data from test_V78500241_2643.txt Node
Date: Fri Mar 25 15:28:15 CST 2022
User: usil
Spectrometer: V785-0024
Trigger mode: 0
Integration Time (sec): 4.000000E-1
Scans to average: 1
Nonlinearity correction enabled: false
Boxcar width: 0
Storing dark spectrum: false
XAxis mode: Wavelengths
Number of Pixels in Spectrum: 1024
>>>>>Begin Spectral Data<<<<<
801.071	27298
801.214	27154
801.356	26933
801.499	26773
801.641	26754
801.783	26765
801.926	26853
802.068	26689
802.211	26781
802.353	26636
802.496	26541
802.638	26381
802.78	26423
802.923	26339
803.065	26408
803.208	26324
803.35	26377
803.492	26404
803.635	26568
803.777	26400
803.919	26564
804.061	26781
804.204	26606
804.346	26556
804.488	26518
804.63	26492
804.773	26343
804.915	26495
805.057	26503
805.199	26453
805.341	26476
805.483	26587
805.626	26644
805.768	26617
805.91	26587
806.052	26708
806.194	26587
806.336	26731
806.478	26636
806.62	26636
806.762	26765
806.904	26883
807.046	27032
807.188	27062
807.33	27100
807.472	27135
807.614	27089
807.756	27119
807.898	26952
808.04	26883
808.182	26891
808.324	26826
808.465	26883
808.607	27093
808.749	27272
808.891	27275
809.033	27427
809.174	27222
809.316	27241
809.458	27260
809.6	27218
809.741	27363
809.883	27306
810.025	27576
810.166	27496
810.308	27454
810.45	27424
810.591	27370
810.733	27256
810.875	27329
811.016	27127
811.158	27104
811.299	27332
811.441	27454
811.582	27492
811.724	27397
811.865	27211
812.007	27081
812.148	27154
812.29	27310
812.431	27363
812.573	27473
812.714	27698
812.855	27713
812.997	27797
813.138	27975
813.279	27873
813.421	27652
813.562	27709
813.703	27485
813.845	27469
813.986	27233
814.127	27081
814.268	26872
814.41	26979
814.551	26940
814.692	26940
814.833	26781
814.974	26883
815.115	26902
815.256	26781
815.397	26804
815.539	26788
815.68	26678
815.821	26518
815.962	26667
816.103	26575
816.244	26568
816.385	26473
816.526	26385
816.666	26225
816.807	26119
816.948	26103
817.089	26271
817.23	26355
817.371	26081
817.512	26183
817.653	26138
817.793	25963
817.934	26191
818.075	26046
818.216	26164
818.356	26199
818.497	26073
818.638	25837
818.778	25845
818.919	25898
819.06	25928
819.2	26039
819.341	26073
819.481	26320
819.622	26259
819.762	26621
819.903	26423
820.043	26507
820.184	26267
820.324	26377
820.465	26404
820.605	26237
820.746	26157
820.886	25966
821.026	26221
821.167	26180
821.307	26317
821.447	26176
821.588	26046
821.728	25860
821.868	25674
822.008	25651
822.149	25689
822.289	25597
822.429	25297
822.569	25293
822.709	25228
822.849	25194
822.99	25088
823.13	25053
823.27	25050
823.41	24890
823.55	24837
823.69	24992
823.83	24977
823.97	24924
824.11	24783
824.25	24673
824.389	24810
824.529	24772
824.669	24677
824.809	24920
824.949	24738
825.089	24665
825.228	24776
825.368	24646
825.508	24521
825.648	24563
825.787	24532
825.927	24681
826.067	24566
826.206	24570
826.346	24665
826.485	24646
826.625	24502
826.765	24817
826.904	24601
827.044	24395
827.183	24391
827.323	24239
827.462	24369
827.601	24289
827.741	24190
827.88	24357
828.02	24300
828.159	24296
828.298	24342
828.437	24338
828.577	24209
828.716	24403
828.855	24220
828.994	24095
829.134	24034
829.273	24106
829.412	24144
829.551	23923
829.69	24015
829.829	23996
829.968	24102
830.107	24296
830.246	24106
830.385	23965
830.524	23996
830.663	23958
830.802	23722
830.941	23596
831.08	23672
831.219	23783
831.357	23638
831.496	23813
831.635	23737
831.774	23505
831.913	23608
832.051	23493
832.19	23414
832.329	23627
832.467	23296
832.606	23307
832.744	23246
832.883	23353
833.022	23349
833.16	23303
833.299	23410
833.437	23280
833.576	23482
833.714	23364
833.852	23383
833.991	23497
834.129	23398
834.267	23509
834.406	23398
834.544	23501
834.682	23356
834.821	23395
834.959	23448
835.097	23239
835.235	23395
835.373	23341
835.511	23345
835.65	23204
835.788	23337
835.926	23056
836.064	23003
836.202	22995
836.34	23197
836.478	23303
836.615	23117
836.753	23250
836.891	23379
837.029	23265
837.167	23159
837.305	23098
837.443	23200
837.58	22987
837.718	23143
837.856	23079
837.993	23098
838.131	23071
838.269	22946
838.406	23048
838.544	22911
838.681	22839
838.819	22702
838.956	22569
839.094	22618
839.231	22691
839.369	22660
839.506	23018
839.643	22831
839.781	22493
839.918	22546
840.055	22694
840.193	22462
840.33	22481
840.467	22523
840.604	22519
840.742	22672
840.879	22417
841.016	22489
841.153	22352
841.29	22538
841.427	22443
841.564	22626
841.701	22405
841.838	22554
841.975	22451
842.112	22440
842.249	22367
842.385	22303
842.522	22584
842.659	22470
842.796	22306
842.933	22284
843.069	22158
843.206	22143
843.343	22367
843.479	22169
843.616	22238
843.752	22002
843.889	22051
844.025	22303
844.162	22025
844.298	22078
844.435	22101
844.571	22006
844.708	22074
844.844	22204
844.98	22082
845.117	22036
845.253	21861
845.389	21918
845.525	21949
845.661	21850
845.798	21793
845.934	21850
846.07	21766
846.206	21842
846.342	21797
846.478	21717
846.614	21580
846.75	21504
846.886	21496
847.022	21606
847.158	21568
847.294	21603
847.429	21504
847.565	21667
847.701	21603
847.837	21256
847.972	21127
848.108	21268
848.244	21226
848.379	21093
848.515	21085
848.65	21146
848.786	21112
848.921	21062
849.057	21165
849.192	21161
849.328	21138
849.463	21043
849.598	21047
849.734	21070
849.869	21020
850.004	20918
850.14	20967
850.275	20792
850.41	20716
850.545	20765
850.68	20807
850.815	20937
850.95	20743
851.085	21017
851.22	21039
851.355	20960
851.49	20925
851.625	20826
851.76	20887
851.895	20739
852.03	20861
852.165	20826
852.299	20887
852.434	20994
852.569	20872
852.703	20891
852.838	20899
852.973	20918
853.107	20937
853.242	20826
853.376	20800
853.511	20549
853.645	20648
853.78	20769
853.914	20720
854.048	20663
854.183	20762
854.317	20758
854.451	20944
854.585	20648
854.72	20697
854.854	20731
854.988	20541
855.122	20758
855.256	20541
855.39	20617
855.524	20838
855.658	20727
855.792	20648
855.926	20788
856.06	20621
856.194	20777
856.327	20678
856.461	20579
856.595	20724
856.729	20648
856.862	20758
856.996	20727
857.13	20697
857.263	20785
857.397	20788
857.53	20602
857.664	20731
857.797	20712
857.931	20800
858.064	20716
858.197	20807
858.331	20754
858.464	20541
858.597	20556
858.731	20625
858.864	20560
858.997	20693
859.13	20705
859.263	20648
859.396	20701
859.529	20644
859.662	20549
859.795	20613
859.928	20727
860.061	20838
860.194	20937
860.327	20686
860.46	20743
860.592	20720
860.725	20758
860.858	20765
860.99	20678
861.123	20583
861.256	20598
861.388	20670
861.521	21192
861.653	20522
861.786	20438
861.918	20511
862.05	20644
862.183	20613
862.315	20632
862.447	20693
862.58	20549
862.712	20503
862.844	20473
862.976	20495
863.108	20530
863.24	20823
863.372	20358
863.504	20404
863.636	20362
863.768	20446
863.9	20423
864.032	20336
864.164	20442
864.296	20533
864.428	20473
864.559	20389
864.691	20419
864.823	20381
864.954	20336
865.086	20332
865.217	20377
865.349	20263
865.48	20309
865.612	20305
865.743	20488
865.875	20370
866.006	20309
866.137	20332
866.269	20400
866.4	20328
866.531	20225
866.662	20206
866.793	20229
866.924	20218
867.055	20244
867.186	20298
867.317	20180
867.448	20256
867.579	20237
867.71	20119
867.841	20050
867.972	20225
868.103	20271
868.233	20225
868.364	20176
868.495	20393
868.625	20434
868.756	20621
868.886	20389
869.017	20522
869.147	20632
869.278	20674
869.408	20450
869.539	20476
869.669	20632
869.799	20552
869.929	20663
870.06	20552
870.19	20902
870.32	20705
870.45	20804
870.58	20819
870.71	20956
870.84	21001
870.97	20948
871.1	20815
871.23	21051
871.36	21066
871.489	21017
871.619	21077
871.749	21085
871.879	21188
872.008	21146
872.138	21017
872.267	21074
872.397	20963
872.526	20941
872.656	20933
872.785	20895
872.915	21116
873.044	21096
873.173	21074
873.303	21165
873.432	21146
873.561	21203
873.69	20998
873.819	21077
873.948	21173
874.077	21066
874.206	21047
874.335	21199
874.464	21192
874.593	21378
874.722	21199
874.851	21348
874.979	21306
875.108	21329
875.237	21408
875.365	21226
875.494	21310
875.623	21473
875.751	21370
875.88	21363
876.008	21332
876.136	21568
876.265	21648
876.393	21838
876.521	21838
876.65	21861
876.778	21587
876.906	21720
877.034	21576
877.162	21686
877.29	21679
877.418	21751
877.546	21599
877.674	21637
877.802	21686
877.93	21679
878.058	21625
878.185	21618
878.313	21580
878.441	21755
878.568	21477
878.696	21561
878.824	21644
878.951	21679
879.079	21892
879.206	22048
879.333	21739
879.461	21686
879.588	21808
879.715	21819
879.842	21941
879.97	21793
880.097	21595
880.224	21557
880.351	21606
880.478	21416
880.605	21439
880.732	21523
880.859	21827
880.986	21568
881.112	21625
881.239	21428
881.366	21279
881.493	21256
881.619	21100
881.746	21176
881.872	21062
881.999	21096
882.125	20986
882.252	21047
882.378	21112
882.505	21138
882.631	20990
882.757	20956
882.883	20845
883.01	20857
883.136	20857
883.262	20769
883.388	20609
883.514	20853
883.64	20830
883.766	20689
883.892	20587
884.018	20583
884.143	20811
884.269	20815
884.395	20514
884.52	20332
884.646	20438
884.772	20358
884.897	20396
885.023	20412
885.148	20651
885.274	20571
885.399	20617
885.524	20450
885.65	20457
885.775	20507
885.9	20446
886.025	20556
886.15	20541
886.275	20408
886.4	20370
886.525	20556
886.65	20332
886.775	20358
886.9	20640
887.025	20530
887.149	20320
887.274	20278
887.399	20244
887.523	20130
887.648	20103
887.773	20214
887.897	20351
888.021	20142
888.146	20145
888.27	20358
888.395	20328
888.519	20259
888.643	20313
888.767	20282
888.891	20096
889.015	19909
889.139	20092
889.263	19974
889.387	20016
889.511	20183
889.635	20199
889.759	20046
889.883	20008
890.006	20065
890.13	20103
890.254	19936
890.377	20081
890.501	19818
890.624	19704
890.748	19818
890.871	19662
890.995	19556
891.118	19556
891.241	19647
891.364	19655
891.488	19731
891.611	19738
891.734	19582
891.857	19700
891.98	19674
892.103	19666
892.226	19643
892.349	19544
892.471	19480
892.594	19434
892.717	19632
892.839	19514
892.962	19514
893.085	19594
893.207	19609
893.33	19464
893.452	19426
893.575	19540
893.697	19510
893.819	19700
893.941	19719
894.064	19616
894.186	19586
894.308	19605
894.43	19590
894.552	19662
894.674	19689
894.796	19381
894.918	19571
895.04	19464
895.161	19601
895.283	19567
895.405	19472
895.526	19491
895.648	19514
895.769	19567
895.891	19582
896.012	19605
896.134	19491
896.255	19639
896.376	19590
896.498	19464
896.619	19639
896.74	19453
896.861	19655
896.982	19852
897.103	20035
897.224	19788
897.345	19765
897.466	19708
897.587	19734
897.708	19898
897.828	19807
897.949	19727
898.07	19613
898.19	19681
898.311	19712
898.431	19693
898.552	19788
898.672	19765
898.792	19826
898.913	19750
899.033	19613
899.153	19674
899.273	19483
899.393	19521
899.513	19552
899.633	19571
899.753	19563
899.873	19525
899.993	19514
900.113	19388
900.232	19540
900.352	19464
900.472	19312
900.591	19274
900.711	19308
900.83	19236
900.95	19419
901.069	19388
901.189	19114
901.308	18943
901.427	18897
901.546	18806
901.665	18977
901.784	18905
901.904	18776
902.023	18665
902.141	18513
902.26	18479
902.379	18521
902.498	18365
902.617	18399
902.735	18544
902.854	18308
902.973	18300
903.091	18079
903.21	18114
903.328	18057
903.446	17908
903.565	17999
903.683	17992
903.801	17798
903.919	17923
904.038	17840
904.156	17600
904.274	17783
904.392	17524
904.51	17638
904.627	17783
904.745	17775
904.863	17680
904.981	17512
905.098	17326
905.216	17318
905.334	17296
905.451	17296
905.569	17250
905.686	17440
905.803	17387
905.921	17151
906.038	17147
906.155	17124
906.272	17132
906.389	16965
906.506	16797
906.623	16923
906.74	16908
906.857	16771
906.974	16835
907.091	16934
907.208	16881
907.324	16881
907.441	16805
907.557	16630
907.674	16675
907.79	16516
907.907	16603
908.023	16527
908.139	16641
908.256	16455
908.372	16519
908.488	16516
908.604	16440
908.72	16333
908.836	16299
908.952	16344
909.068	16352
909.184	16421
909.3	16379
909.415	16394
909.531	16375
909.647	16086
909.762	16025
909.878	15991
909.993	16055
910.108	16010
910.224	15915
910.339	16063
910.454	15857
910.57	15907
910.685	15739
910.8	16124
910.915	16010
911.03	15876
911.145	15705
911.259	15660
911.374	15759
911.489	15622
911.604	15545
911.718	15386
911.833	15397
911.947	15359
912.062	15340
912.176	15462
912.291	15443
912.405	15564
912.519	15595
912.633	15549
912.748	15485
912.862	15420
912.976	15203
913.09	15112
913.204	15188
913.318	15161
913.431	15340
913.545	15348
913.659	15287
913.772	15272
913.886	15020
914	15039
914.113	15081
914.226	15188
914.34	15104
914.453	14948
914.566	15017
914.68	14979
914.793	14956
914.906	14632
915.019	14678
915.132	14629
915.245	14640
915.358	14640
915.47	14648
915.583	14625
915.696	14651
915.809	14743
915.921	14785
916.034	14636
916.146	14587
916.259	14541
916.371	14682
916.483	14571
916.595	14461
916.708	14488
916.82	14530
916.932	14358
917.044	14492
917.156	14343
917.268	14233
917.38	14317
917.491	14275
917.603	14263
917.715	14442
917.826	14404
917.938	14358
918.049	14138
918.161	14225
918.272	14294
918.384	14431
918.495	14301
918.606	14191
918.717	14043
918.828	14069
918.939	14107
919.05	13982
919.161	14031
919.272	13799
919.383	14005
919.494	14100
919.604	14328
919.715	14031
919.826	13955
919.936	13982
920.047	14088
920.157	14081
920.267	14240
920.378	14073
920.488	14027
920.598	14183
920.708	14404
920.818	14218
920.928	14134
921.038	14313
921.148	14278
921.258	14005
921.368	13932
921.477	13811
921.587	13734
921.697	13677
921.806	13852
921.916	13632
922.025	13601
922.134	13476
922.244	13468
922.353	13468
922.462	13411
922.571	13392
922.68	13194
922.789	13076
922.898	13183
923.007	12996
923.116	13190
923.224	13133
923.333	13050
923.442	12920
923.55	12973
923.659	12954
923.767	13065
923.876	12913
923.984	12932
924.092	12825
924.201	12875
924.309	12882
924.417	12840
924.525	12817
924.633	12810
924.741	13708
924.849	12665
924.956	12749
925.064	12623
925.172	12414
925.279	12555
925.387	12532
925.494	12536
925.602	12665
925.709	12650
925.816	12483
925.924	12441
926.031	12612
926.138	12441
926.245	12578
926.352	12429
926.459	12578
926.566	12540
926.673	12422
926.779	12315
926.886	12323
926.993	12182
927.099	12186
927.206	12121
927.312	11973
927.419	12190
927.525	12175
927.631	12201
927.737	12011
927.843	11961
927.95	11874
928.056	11961
928.162	11954
928.267	11988
928.373	12418
928.479	11961
928.585	11878
928.69	11866
928.796	11942
928.901	11783
929.007	11680
929.112	11786
929.218	11726
929.323	11722
929.428	11691
929.533	11775
929.638	11623
929.743	11638
929.848	11707
929.953	11638
930.058	11528
930.163	11299
930.267	11368
930.372	11509
930.477	11303
930.581	11539
930.685	11433
930.79	11303
930.894	11296
930.998	11273
931.103	11387
931.207	11014
931.311	10991
931.415	10892
931.519	10615
931.623	10702
