Data from test_V78500241_2965.txt Node
Date: Fri Mar 25 15:30:30 CST 2022
User: usil
Spectrometer: V785-0024
Trigger mode: 0
Integration Time (sec): 4.000000E-1
Scans to average: 1
Nonlinearity correction enabled: false
Boxcar width: 0
Storing dark spectrum: false
XAxis mode: Wavelengths
Number of Pixels in Spectrum: 1024
>>>>>Begin Spectral Data<<<<<
801.071	26861
801.214	26686
801.356	26446
801.499	26362
801.641	26347
801.783	26393
801.926	26320
802.068	26366
802.211	26324
802.353	26366
802.496	26119
802.638	26100
802.78	25944
802.923	25799
803.065	25883
803.208	25879
803.35	25940
803.492	25989
803.635	26103
803.777	25936
803.919	26180
804.061	26328
804.204	26119
804.346	26054
804.488	25898
804.63	25993
804.773	26027
804.915	26103
805.057	26046
805.199	26111
805.341	25959
805.483	26347
805.626	26210
805.768	26054
805.91	26088
806.052	26252
806.194	26138
806.336	26290
806.478	26172
806.62	26214
806.762	26229
806.904	26438
807.046	26632
807.188	26651
807.33	26594
807.472	26552
807.614	26476
807.756	26640
807.898	26450
808.04	26377
808.182	26419
808.324	26408
808.465	26480
808.607	26541
808.749	26773
808.891	26758
809.033	26819
809.174	26883
809.316	26792
809.458	26724
809.6	26545
809.741	26716
809.883	26830
810.025	27005
810.166	27142
810.308	27070
810.45	26944
810.591	26868
810.733	26758
810.875	26743
811.016	26697
811.158	26689
811.299	26845
811.441	26967
811.582	27020
811.724	26845
811.865	26743
812.007	26906
812.148	26682
812.29	26773
812.431	26731
812.573	27051
812.714	27150
812.855	27135
812.997	27310
813.138	27481
813.279	27336
813.421	27260
813.562	27028
813.703	27074
813.845	26971
813.986	26632
814.127	26560
814.268	26473
814.41	26431
814.551	26298
814.692	26328
814.833	26355
814.974	26366
815.115	26377
815.256	26332
815.397	26122
815.539	26282
815.68	26153
815.821	26122
815.962	26225
816.103	26096
816.244	25906
816.385	25871
816.526	25898
816.666	25639
816.807	25479
816.948	25704
817.089	25799
817.23	25658
817.371	25552
817.512	25430
817.653	25651
817.793	25491
817.934	25518
818.075	25556
818.216	25571
818.356	25586
818.497	25430
818.638	25339
818.778	25396
818.919	25285
819.06	25552
819.2	25533
819.341	25704
819.481	25464
819.622	25666
819.762	25852
819.903	25845
820.043	25757
820.184	25731
820.324	25681
820.465	25696
820.605	25715
820.746	25731
820.886	25616
821.026	25643
821.167	25594
821.307	25693
821.447	25685
821.588	25373
821.728	25270
821.868	25240
822.008	25038
822.149	25023
822.289	25061
822.429	24916
822.569	24783
822.709	24700
822.849	24669
822.99	24585
823.13	24441
823.27	24540
823.41	24441
823.55	24327
823.69	24311
823.83	24357
823.97	24285
824.11	24174
824.25	24136
824.389	24190
824.529	24251
824.669	24182
824.809	24315
824.949	24323
825.089	24163
825.228	24330
825.368	24022
825.508	24003
825.648	23874
825.787	23939
825.927	24079
826.067	23939
826.206	24038
826.346	24026
826.485	23942
826.625	24072
826.765	24148
826.904	24038
827.044	23798
827.183	23882
827.323	23676
827.462	23836
827.601	23718
827.741	23805
827.88	23809
828.02	23653
828.159	23745
828.298	23843
828.437	23707
828.577	23699
828.716	23813
828.855	23604
828.994	23307
829.134	23436
829.273	23471
829.412	23501
829.551	23421
829.69	23421
829.829	23592
829.968	23452
830.107	23562
830.246	23406
830.385	23478
830.524	23315
830.663	23334
830.802	23246
830.941	23037
831.08	23052
831.219	23094
831.357	23204
831.496	23242
831.635	23029
831.774	22949
831.913	22949
832.051	22839
832.19	22877
832.329	22763
832.467	22672
832.606	22626
832.744	22580
832.883	22744
833.022	22691
833.16	22763
833.299	22672
833.437	22664
833.576	22748
833.714	22710
833.852	22809
833.991	22835
834.129	22938
834.267	22797
834.406	22763
834.544	22744
834.682	22778
834.821	22786
834.959	22862
835.097	22561
835.235	22850
835.373	22679
835.511	22630
835.65	22611
835.788	22641
835.926	22561
836.064	22390
836.202	22466
836.34	22626
836.478	22790
836.615	22512
836.753	22569
836.891	22615
837.029	22535
837.167	22611
837.305	22603
837.443	22512
837.58	22554
837.718	22386
837.856	22447
837.993	22344
838.131	22432
838.269	22375
838.406	22344
838.544	22276
838.681	22082
838.819	22105
838.956	22040
839.094	21907
839.231	22010
839.369	22124
839.506	22333
839.643	22177
839.781	21876
839.918	21937
840.055	21903
840.193	21876
840.33	21808
840.467	21964
840.604	21892
840.742	22166
840.879	21846
841.016	21739
841.153	21732
841.29	22010
841.427	21888
841.564	21892
841.701	21888
841.838	21842
841.975	21755
842.112	21755
842.249	21823
842.385	21656
842.522	21770
842.659	21800
842.796	21656
842.933	21599
843.069	21553
843.206	21568
843.343	21789
843.479	21644
843.616	21595
843.752	21492
843.889	21351
844.025	21576
844.162	21401
844.298	21485
844.435	21393
844.571	21412
844.708	21454
844.844	21610
844.98	21606
845.117	21416
845.253	21302
845.389	21302
845.525	21386
845.661	21317
845.798	21203
845.934	21260
846.07	21093
846.206	21192
846.342	21165
846.478	21184
846.614	20986
846.75	20823
846.886	20990
847.022	20891
847.158	21020
847.294	20880
847.429	20944
847.565	20811
847.701	21123
847.837	20689
847.972	20571
848.108	20735
848.244	20629
848.379	20571
848.515	20507
848.65	20522
848.786	20457
848.921	20446
849.057	20640
849.192	20415
849.328	20571
849.463	20465
849.598	20461
849.734	20347
849.869	20431
850.004	20248
850.14	20294
850.275	20294
850.41	20191
850.545	20088
850.68	20225
850.815	20210
850.95	20294
851.085	20393
851.22	20465
851.355	20202
851.49	20161
851.625	20176
851.76	20301
851.895	20221
852.03	20122
852.165	20206
852.299	20404
852.434	20332
852.569	20199
852.703	20320
852.838	20427
852.973	20389
853.107	20256
853.242	20164
853.376	19963
853.511	19940
853.645	19997
853.78	20240
853.914	20081
854.048	19963
854.183	19963
854.317	20016
854.451	20202
854.585	19993
854.72	20145
854.854	20168
854.988	20031
855.122	19974
855.256	19932
855.39	20103
855.524	20024
855.658	20005
855.792	20115
855.926	20126
856.06	20187
856.194	20119
856.327	19989
856.461	20001
856.595	19947
856.729	20054
856.862	20233
856.996	20062
857.13	20088
857.263	20218
857.397	20195
857.53	20126
857.664	20153
857.797	20115
857.931	20016
858.064	20126
858.197	20168
858.331	20001
858.464	19955
858.597	19955
858.731	19955
858.864	20119
858.997	20031
859.13	20031
859.263	20153
859.396	20180
859.529	20122
859.662	20134
859.795	20008
859.928	20100
860.061	20096
860.194	20317
860.327	20088
860.46	20130
860.592	20191
860.725	20157
860.858	20145
860.99	20149
861.123	20012
861.256	20065
861.388	20043
861.521	20621
861.653	19913
861.786	19894
861.918	19822
862.05	19967
862.183	19951
862.315	20062
862.447	20024
862.58	20050
862.712	19731
862.844	19788
862.976	19894
863.108	19731
863.24	20313
863.372	19799
863.504	19906
863.636	19693
863.768	19883
863.9	19761
864.032	19708
864.164	19738
864.296	19849
864.428	19837
864.559	19738
864.691	19803
864.823	19803
864.954	19852
865.086	19765
865.217	19715
865.349	19575
865.48	19765
865.612	19677
865.743	19883
865.875	19704
866.006	19647
866.137	19772
866.269	19708
866.4	19753
866.531	19757
866.662	19597
866.793	19616
866.924	19628
867.055	19784
867.186	19658
867.317	19635
867.448	19601
867.579	19590
867.71	19495
867.841	19616
867.972	19658
868.103	19647
868.233	19677
868.364	19582
868.495	19681
868.625	19731
868.756	19955
868.886	19734
869.017	19917
869.147	19993
869.278	20027
869.408	19898
869.539	19894
869.669	19963
869.799	19909
869.929	19963
870.06	20081
870.19	20271
870.32	20214
870.45	20161
870.58	20248
870.71	20366
870.84	20389
870.97	20343
871.1	20172
871.23	20476
871.36	20438
871.489	20358
871.619	20533
871.749	20476
871.879	20518
872.008	20579
872.138	20282
872.267	20518
872.397	20271
872.526	20256
872.656	20438
872.785	20309
872.915	20587
873.044	20514
873.173	20473
873.303	20613
873.432	20609
873.561	20629
873.69	20632
873.819	20476
873.948	20583
874.077	20450
874.206	20461
874.335	20564
874.464	20727
874.593	20724
874.722	20621
874.851	20819
874.979	20872
875.108	20853
875.237	20617
875.365	20663
875.494	20705
875.623	20914
875.751	20800
875.88	20785
876.008	20864
876.136	21017
876.265	21226
876.393	21306
876.521	21340
876.65	21233
876.778	21169
876.906	21062
877.034	21142
877.162	21119
877.29	21096
877.418	21203
877.546	21096
877.674	21131
877.802	21020
877.93	21074
878.058	21032
878.185	21013
878.313	21119
878.441	21077
878.568	20876
878.696	21043
878.824	21036
878.951	21165
879.079	21287
879.206	21260
879.333	21233
879.461	21093
879.588	21195
879.715	21252
879.842	21507
879.97	21093
880.097	20967
880.224	20857
880.351	20887
880.478	20876
880.605	20925
880.732	21077
880.859	21096
880.986	21043
881.112	20914
881.239	20807
881.366	20708
881.493	20648
881.619	20492
881.746	20552
881.872	20564
881.999	20549
882.125	20480
882.252	20644
882.378	20499
882.505	20674
882.631	20377
882.757	20218
882.883	20332
883.01	20286
883.136	20229
883.262	20202
883.388	20153
883.514	20210
883.64	20248
883.766	20233
883.892	20027
884.018	20065
884.143	20233
884.269	20225
884.395	19978
884.52	19940
884.646	20020
884.772	19864
884.897	19856
885.023	19921
885.148	20126
885.274	20103
885.399	20031
885.524	19967
885.65	19944
885.775	19955
885.9	19902
886.025	20065
886.15	20027
886.275	19814
886.4	19826
886.525	19894
886.65	19811
886.775	19795
886.9	20058
887.025	20172
887.149	19868
887.274	19689
887.399	19670
887.523	19643
887.648	19674
887.773	19609
887.897	19753
888.021	19765
888.146	19620
888.27	19791
888.395	19864
888.519	19662
888.643	19761
888.767	19715
888.891	19624
889.015	19533
889.139	19483
889.263	19582
889.387	19620
889.511	19620
889.635	19647
889.759	19411
889.883	19491
890.006	19514
890.13	19586
890.254	19430
890.377	19419
890.501	19308
890.624	19312
890.748	19304
890.871	19133
890.995	19027
891.118	19046
891.241	19114
891.364	19057
891.488	19148
891.611	19145
891.734	19015
891.857	19175
891.98	19114
892.103	19103
892.226	19133
892.349	19076
892.471	18852
892.594	18996
892.717	19004
892.839	19046
892.962	19107
893.085	19008
893.207	19099
893.33	18916
893.452	18924
893.575	19023
893.697	18954
893.819	19190
893.941	19225
894.064	19141
894.186	18985
894.308	18989
894.43	19213
894.552	19206
894.674	19225
894.796	18981
894.918	19042
895.04	18966
895.161	19069
895.283	19175
895.405	18993
895.526	19027
895.648	19118
895.769	19148
895.891	19057
896.012	19175
896.134	19168
896.255	19076
896.376	19012
896.498	19042
896.619	19103
896.74	19053
896.861	19152
896.982	19392
897.103	19487
897.224	19324
897.345	19225
897.466	19270
897.587	19354
897.708	19362
897.828	19297
897.949	19312
898.07	19042
898.19	19251
898.311	19354
898.431	19297
898.552	19441
898.672	19362
898.792	19438
898.913	19331
899.033	19221
899.153	19103
899.273	19023
899.393	19179
899.513	19179
899.633	19118
899.753	19145
899.873	19057
899.993	19118
900.113	19019
900.232	19137
900.352	19061
900.472	18920
900.591	18764
900.711	18935
900.83	18905
900.95	19031
901.069	18852
901.189	18776
901.308	18551
901.427	18376
901.546	18460
901.665	18547
901.784	18627
901.904	18414
902.023	18498
902.141	18083
902.26	17999
902.379	18114
902.498	18007
902.617	18003
902.735	17980
902.854	18072
902.973	17939
903.091	17642
903.21	17600
903.328	17710
903.446	17646
903.565	17589
903.683	17604
903.801	17436
903.919	17383
904.038	17444
904.156	17315
904.274	17296
904.392	17303
904.51	17220
904.627	17208
904.745	17288
904.863	17356
904.981	17079
905.098	16881
905.216	16915
905.334	17033
905.451	16942
905.569	16881
905.686	17060
905.803	16999
905.921	16755
906.038	16946
906.155	16793
906.272	16618
906.389	16691
906.506	16626
906.623	16497
906.74	16436
906.857	16299
906.974	16337
907.091	16592
907.208	16630
907.324	16527
907.441	16356
907.557	16291
907.674	16272
907.79	16246
907.907	16246
908.023	16253
908.139	16284
908.256	16093
908.372	16063
908.488	16131
908.604	15975
908.72	15888
908.836	16010
908.952	15983
909.068	16063
909.184	16032
909.3	15831
909.415	15926
909.531	15945
909.647	15713
909.762	15770
909.878	15530
909.993	15690
910.108	15644
910.224	15519
910.339	15656
910.454	15599
910.57	15507
910.685	15336
910.8	15709
910.915	15568
911.03	15466
911.145	15344
911.259	15344
911.374	15195
911.489	15176
911.604	15062
911.718	15047
911.833	14990
911.947	14902
912.062	14861
912.176	15036
912.291	15093
912.405	15036
912.519	15188
912.633	15256
912.748	15028
912.862	15024
912.976	14937
913.09	14705
913.204	14845
913.318	14864
913.431	14929
913.545	14906
913.659	15005
913.772	14864
913.886	14648
914	14632
914.113	14750
914.226	14815
914.34	14785
914.453	14594
914.566	14739
914.68	14511
914.793	14488
914.906	14389
915.019	14256
915.132	14126
915.245	14301
915.358	14332
915.47	14248
915.583	14294
915.696	14267
915.809	14381
915.921	14438
916.034	14221
916.146	14195
916.259	14111
916.371	14237
916.483	14218
916.595	14126
916.708	14096
916.82	14084
916.932	14107
917.044	14123
917.156	14069
917.268	13986
917.38	13963
917.491	13932
917.603	13989
917.715	14039
917.826	14119
917.938	13917
918.049	13833
918.161	13944
918.272	14084
918.384	14012
918.495	13868
918.606	13818
918.717	13753
918.828	13761
918.939	13791
919.05	13677
919.161	13791
919.272	13510
919.383	13693
919.494	13761
919.604	13997
919.715	13704
919.826	13708
919.936	13632
920.047	13723
920.157	13814
920.267	13940
920.378	13712
920.488	13639
920.598	13913
920.708	14062
920.818	13871
920.928	13887
921.038	14062
921.148	14024
921.258	13677
921.368	13563
921.477	13525
921.587	13552
921.697	13373
921.806	13499
921.916	13312
922.025	13209
922.134	13152
922.244	13061
922.353	13217
922.462	13008
922.571	12871
922.68	12821
922.789	12741
922.898	12798
923.007	12741
923.116	12749
923.224	12749
923.333	12779
923.442	12673
923.55	12604
923.659	12700
923.767	12715
923.876	12502
923.984	12540
924.092	12566
924.201	12604
924.309	12559
924.417	12570
924.525	12506
924.633	12483
924.741	13236
924.849	12304
924.956	12399
925.064	12315
925.172	12232
925.279	12239
925.387	12213
925.494	12243
925.602	12357
925.709	12273
925.816	12201
925.924	12163
926.031	12262
926.138	12266
926.245	12235
926.352	12133
926.459	12323
926.566	12311
926.673	12285
926.779	11996
926.886	12045
926.993	11805
927.099	11821
927.206	11752
927.312	11832
927.419	11824
927.525	11798
927.631	11882
927.737	11790
927.843	11767
927.95	11699
928.056	11668
928.162	11699
928.267	11764
928.373	12350
928.479	11783
928.585	11562
928.69	11707
928.796	11665
928.901	11539
929.007	11372
929.112	11558
929.218	11478
929.323	11524
929.428	11429
929.533	11490
929.638	11364
929.743	11353
929.848	11478
929.953	11372
930.058	11231
930.163	11143
930.267	11151
930.372	11246
930.477	11128
930.581	11303
930.685	11147
930.79	11052
930.894	10976
930.998	10995
931.103	11147
931.207	10824
931.311	10626
931.415	10668
931.519	10367
931.623	10466
