Data from test_V78500241_2711.txt Node
Date: Fri Mar 25 15:28:44 CST 2022
User: usil
Spectrometer: V785-0024
Trigger mode: 0
Integration Time (sec): 4.000000E-1
Scans to average: 1
Nonlinearity correction enabled: false
Boxcar width: 0
Storing dark spectrum: false
XAxis mode: Wavelengths
Number of Pixels in Spectrum: 1024
>>>>>Begin Spectral Data<<<<<
801.071	27272
801.214	27020
801.356	26826
801.499	26727
801.641	26678
801.783	26708
801.926	26758
802.068	26606
802.211	26724
802.353	26590
802.496	26423
802.638	26374
802.78	26339
802.923	26214
803.065	26138
803.208	26221
803.35	26263
803.492	26442
803.635	26598
803.777	26286
803.919	26495
804.061	26804
804.204	26556
804.346	26423
804.488	26396
804.63	26571
804.773	26301
804.915	26450
805.057	26625
805.199	26393
805.341	26674
805.483	26609
805.626	26552
805.768	26366
805.91	26564
806.052	26556
806.194	26488
806.336	26769
806.478	26632
806.62	26606
806.762	26644
806.904	26876
807.046	27001
807.188	26948
807.33	26994
807.472	27001
807.614	26887
807.756	26872
807.898	26887
808.04	26872
808.182	26880
808.324	26925
808.465	26864
808.607	27131
808.749	27173
808.891	27119
809.033	27329
809.174	27237
809.316	27226
809.458	27222
809.6	27104
809.741	27252
809.883	27245
810.025	27435
810.166	27427
810.308	27591
810.45	27363
810.591	27317
810.733	27218
810.875	27135
811.016	27104
811.158	27062
811.299	27348
811.441	27325
811.582	27363
811.724	27211
811.865	27211
812.007	27298
812.148	27017
812.29	27268
812.431	27306
812.573	27580
812.714	27561
812.855	27561
812.997	27755
813.138	27739
813.279	27816
813.421	27713
813.562	27644
813.703	27435
813.845	27370
813.986	26986
814.127	27005
814.268	26861
814.41	26811
814.551	26815
814.692	26796
814.833	26777
814.974	26777
815.115	26750
815.256	26773
815.397	26746
815.539	26651
815.68	26674
815.821	26564
815.962	26545
816.103	26693
816.244	26431
816.385	26408
816.526	26240
816.666	26176
816.807	26088
816.948	26176
817.089	26164
817.23	26050
817.371	25989
817.512	25955
817.653	26107
817.793	25883
817.934	26157
818.075	26221
818.216	26020
818.356	26043
818.497	25940
818.638	25719
818.778	25890
818.919	25845
819.06	25898
819.2	25974
819.341	26103
819.481	26115
819.622	26180
819.762	26324
819.903	26271
820.043	26218
820.184	26199
820.324	26172
820.465	26218
820.605	26107
820.746	26252
820.886	26001
821.026	26149
821.167	26069
821.307	26100
821.447	26092
821.588	25932
821.728	25852
821.868	25662
822.008	25540
822.149	25635
822.289	25556
822.429	25282
822.569	25240
822.709	25156
822.849	25050
822.99	25099
823.13	25217
823.27	24977
823.41	24856
823.55	24711
823.69	24916
823.83	24852
823.97	24848
824.11	24703
824.25	24585
824.389	24646
824.529	24741
824.669	24719
824.809	24749
824.949	24738
825.089	24757
825.228	24703
825.368	24372
825.508	24513
825.648	24574
825.787	24608
825.927	24658
826.067	24445
826.206	24658
826.346	24570
826.485	24658
826.625	24410
826.765	24635
826.904	24494
827.044	24254
827.183	24346
827.323	24144
827.462	24338
827.601	24262
827.741	24194
827.88	24209
828.02	24205
828.159	24266
828.298	24254
828.437	24239
828.577	24064
828.716	24289
828.855	24190
828.994	23878
829.134	23889
829.273	23908
829.412	23885
829.551	23843
829.69	23969
829.829	24057
829.968	24045
830.107	23988
830.246	23935
830.385	23912
830.524	23741
830.663	23733
830.802	23634
830.941	23585
831.08	23573
831.219	23897
831.357	23699
831.496	23855
831.635	23501
831.774	23436
831.913	23493
832.051	23349
832.19	23277
832.329	23345
832.467	23250
832.606	23014
832.744	23216
832.883	23220
833.022	23064
833.16	23193
833.299	23250
833.437	23315
833.576	23353
833.714	23353
833.852	23337
833.991	23356
834.129	23376
834.267	23345
834.406	23311
834.544	23261
834.682	23421
834.821	23159
834.959	23535
835.097	23181
835.235	23326
835.373	23277
835.511	23364
835.65	23113
835.788	23235
835.926	22782
836.064	23056
836.202	22987
836.34	23151
836.478	23037
836.615	23098
836.753	23014
836.891	23174
837.029	23105
837.167	23109
837.305	23098
837.443	22812
837.58	22957
837.718	23143
837.856	23029
837.993	23033
838.131	22972
838.269	22896
838.406	22984
838.544	22774
838.681	22664
838.819	22603
838.956	22542
839.094	22413
839.231	22580
839.369	22733
839.506	22755
839.643	22702
839.781	22531
839.918	22516
840.055	22421
840.193	22493
840.33	22421
840.467	22428
840.604	22478
840.742	22641
840.879	22413
841.016	22356
841.153	22466
841.29	22470
841.427	22325
841.564	22390
841.701	22341
841.838	22360
841.975	22196
842.112	22428
842.249	22367
842.385	22253
842.522	22394
842.659	22329
842.796	22162
842.933	22177
843.069	22063
843.206	22086
843.343	22337
843.479	22169
843.616	22078
843.752	21934
843.889	22048
844.025	22105
844.162	21880
844.298	21972
844.435	21907
844.571	21926
844.708	22002
844.844	22063
844.98	22063
845.117	22124
845.253	21838
845.389	21816
845.525	21808
845.661	21876
845.798	21679
845.934	21838
846.07	21686
846.206	21660
846.342	21762
846.478	21641
846.614	21561
846.75	21260
846.886	21351
847.022	21359
847.158	21500
847.294	21401
847.429	21473
847.565	21488
847.701	21667
847.837	21112
847.972	21116
848.108	21146
848.244	21199
848.379	21017
848.515	20982
848.65	20963
848.786	21081
848.921	21032
849.057	21131
849.192	21017
849.328	21039
849.463	20857
849.598	20998
849.734	20925
849.869	20902
850.004	20762
850.14	20811
850.275	20769
850.41	20765
850.545	20613
850.68	20826
850.815	20629
850.95	20788
851.085	20998
851.22	20845
851.355	20804
851.49	20735
851.625	20648
851.76	20682
851.895	20739
852.03	20667
852.165	20838
852.299	20807
852.434	20807
852.569	20800
852.703	20868
852.838	20804
852.973	20883
853.107	20941
853.242	20739
853.376	20644
853.511	20499
853.645	20530
853.78	20708
853.914	20594
854.048	20590
854.183	20541
854.317	20674
854.451	20826
854.585	20522
854.72	20514
854.854	20530
854.988	20636
855.122	20667
855.256	20492
855.39	20613
855.524	20739
855.658	20560
855.792	20568
855.926	20712
856.06	20537
856.194	20716
856.327	20564
856.461	20541
856.595	20590
856.729	20590
856.862	20781
856.996	20594
857.13	20674
857.263	20571
857.397	20606
857.53	20663
857.664	20469
857.797	20590
857.931	20754
858.064	20549
858.197	20648
858.331	20651
858.464	20469
858.597	20465
858.731	20602
858.864	20492
858.997	20609
859.13	20632
859.263	20609
859.396	20735
859.529	20560
859.662	20552
859.795	20549
859.928	20617
860.061	20731
860.194	20823
860.327	20651
860.46	20727
860.592	20773
860.725	20746
860.858	20663
860.99	20609
861.123	20492
861.256	20476
861.388	20625
861.521	21188
861.653	20461
861.786	20320
861.918	20400
862.05	20446
862.183	20488
862.315	20602
862.447	20545
862.58	20568
862.712	20317
862.844	20313
862.976	20351
863.108	20499
863.24	20777
863.372	20275
863.504	20377
863.636	20336
863.768	20263
863.9	20263
864.032	20267
864.164	20180
864.296	20294
864.428	20324
864.559	20362
864.691	20385
864.823	20461
864.954	20301
865.086	20301
865.217	20263
865.349	20100
865.48	20271
865.612	20191
865.743	20446
865.875	20282
866.006	20324
866.137	20119
866.269	20305
866.4	20259
866.531	20301
866.662	20035
866.793	20199
866.924	20210
867.055	20351
867.186	20214
867.317	20073
867.448	20164
867.579	20153
867.71	20134
867.841	20069
867.972	20100
868.103	20100
868.233	20130
868.364	20161
868.495	20347
868.625	20381
868.756	20473
868.886	20324
869.017	20370
869.147	20461
869.278	20514
869.408	20408
869.539	20427
869.669	20408
869.799	20461
869.929	20541
870.06	20480
870.19	20762
870.32	20731
870.45	20765
870.58	20880
870.71	20906
870.84	20826
870.97	20800
871.1	20792
871.23	20952
871.36	20967
871.489	20781
871.619	21028
871.749	21032
871.879	21058
872.008	21119
872.138	21077
872.267	20986
872.397	20906
872.526	20826
872.656	20853
872.785	20929
872.915	21096
873.044	21131
873.173	21043
873.303	21066
873.432	21123
873.561	21062
873.69	21013
873.819	20986
873.948	21100
874.077	21150
874.206	20944
874.335	20998
874.464	21176
874.593	21310
874.722	21195
874.851	21279
874.979	21218
875.108	21245
875.237	21279
875.365	21154
875.494	21218
875.623	21298
875.751	21272
875.88	21306
876.008	21367
876.136	21424
876.265	21633
876.393	21941
876.521	21724
876.65	21705
876.778	21610
876.906	21603
877.034	21606
877.162	21641
877.29	21538
877.418	21610
877.546	21705
877.674	21663
877.802	21599
877.93	21652
878.058	21519
878.185	21614
878.313	21534
878.441	21603
878.568	21363
878.696	21568
878.824	21603
878.951	21713
879.079	21778
879.206	21869
879.333	21854
879.461	21671
879.588	21789
879.715	21728
879.842	21888
879.97	21724
880.097	21530
880.224	21424
880.351	21363
880.478	21416
880.605	21511
880.732	21511
880.859	21720
880.986	21492
881.112	21469
881.239	21313
881.366	21089
881.493	21119
881.619	21066
881.746	21116
881.872	20982
881.999	21085
882.125	21005
882.252	20986
882.378	20994
882.505	21055
882.631	20842
882.757	20796
882.883	20887
883.01	20667
883.136	20686
883.262	20495
883.388	20594
883.514	20716
883.64	20765
883.766	20674
883.892	20473
884.018	20541
884.143	20629
884.269	20857
884.395	20400
884.52	20412
884.646	20533
884.772	20259
884.897	20210
885.023	20465
885.148	20484
885.274	20484
885.399	20408
885.524	20434
885.65	20492
885.775	20366
885.9	20313
886.025	20579
886.15	20434
886.275	20214
886.4	20320
886.525	20309
886.65	20374
886.775	20252
886.9	20476
887.025	20434
887.149	20328
887.274	20233
887.399	20176
887.523	20126
887.648	20046
887.773	20115
887.897	20210
888.021	20225
888.146	20122
888.27	20221
888.395	20320
888.519	20176
888.643	20267
888.767	20259
888.891	20096
889.015	20024
889.139	20039
889.263	19955
889.387	20081
889.511	20092
889.635	20043
889.759	19909
889.883	20016
890.006	19894
890.13	19986
890.254	19845
890.377	19978
890.501	19772
890.624	19685
890.748	19803
890.871	19635
890.995	19540
891.118	19445
891.241	19514
891.364	19457
891.488	19635
891.611	19632
891.734	19499
891.857	19491
891.98	19495
892.103	19639
892.226	19586
892.349	19480
892.471	19266
892.594	19499
892.717	19529
892.839	19441
892.962	19521
893.085	19552
893.207	19346
893.33	19358
893.452	19419
893.575	19499
893.697	19521
893.819	19533
893.941	19674
894.064	19704
894.186	19354
894.308	19472
894.43	19563
894.552	19647
894.674	19495
894.796	19449
894.918	19430
895.04	19308
895.161	19422
895.283	19491
895.405	19468
895.526	19441
895.648	19491
895.769	19632
895.891	19540
896.012	19605
896.134	19476
896.255	19419
896.376	19468
896.498	19407
896.619	19594
896.74	19514
896.861	19548
896.982	19784
897.103	19947
897.224	19864
897.345	19780
897.466	19731
897.587	19708
897.708	19803
897.828	19746
897.949	19635
898.07	19662
898.19	19734
898.311	19811
898.431	19563
898.552	19651
898.672	19826
898.792	19795
898.913	19666
899.033	19639
899.153	19544
899.273	19384
899.393	19548
899.513	19502
899.633	19430
899.753	19381
899.873	19460
899.993	19556
900.113	19457
900.232	19400
900.352	19499
900.472	19285
900.591	19289
900.711	19343
900.83	19198
900.95	19365
901.069	19358
901.189	19244
901.308	18985
901.427	18681
901.546	18894
901.665	18954
901.784	18966
901.904	18764
902.023	18681
902.141	18441
902.26	18361
902.379	18418
902.498	18357
902.617	18296
902.735	18380
902.854	18285
902.973	18308
903.091	18022
903.21	18053
903.328	18041
903.446	18053
903.565	17882
903.683	17912
903.801	17813
903.919	17893
904.038	17775
904.156	17737
904.274	17710
904.392	17592
904.51	17611
904.627	17577
904.745	17630
904.863	17642
904.981	17520
905.098	17220
905.216	17326
905.334	17356
905.451	17330
905.569	17277
905.686	17364
905.803	17269
905.921	17124
906.038	17208
906.155	17181
906.272	17022
906.389	16968
906.506	16763
906.623	16835
906.74	16790
906.857	16675
906.974	16797
907.091	16965
907.208	16930
907.324	16847
907.441	16778
907.557	16573
907.674	16607
907.79	16478
907.907	16622
908.023	16630
908.139	16656
908.256	16508
908.372	16474
908.488	16447
908.604	16253
908.72	16261
908.836	16306
908.952	16291
909.068	16268
909.184	16379
909.3	16303
909.415	16268
909.531	16287
909.647	16032
909.762	16036
909.878	15994
909.993	16010
910.108	15994
910.224	15922
910.339	15899
910.454	15789
910.57	15861
910.685	15724
910.8	16044
910.915	15895
911.03	15816
911.145	15717
911.259	15553
911.374	15652
911.489	15538
911.604	15473
911.718	15359
911.833	15367
911.947	15306
912.062	15230
912.176	15351
912.291	15291
912.405	15329
912.519	15538
912.633	15496
912.748	15389
912.862	15431
912.976	15199
913.09	15047
913.204	15180
913.318	15173
913.431	15355
913.545	15207
913.659	15317
913.772	15222
913.886	15089
914	14899
914.113	15093
914.226	15157
914.34	15077
914.453	14929
914.566	14975
914.68	14838
914.793	14971
914.906	14663
915.019	14648
915.132	14682
915.245	14545
915.358	14701
915.47	14530
915.583	14621
915.696	14499
915.809	14735
915.921	14663
916.034	14526
916.146	14552
916.259	14507
916.371	14648
916.483	14560
916.595	14438
916.708	14393
916.82	14408
916.932	14370
917.044	14412
917.156	14427
917.268	14336
917.38	14336
917.491	14271
917.603	14282
917.715	14267
917.826	14294
917.938	14294
918.049	14119
918.161	14240
918.272	14301
918.384	14328
918.495	14176
918.606	14081
918.717	13997
918.828	14077
918.939	14161
919.05	13955
919.161	14024
919.272	13803
919.383	13879
919.494	13997
919.604	14248
919.715	14050
919.826	13936
919.936	14020
920.047	13997
920.157	14012
920.267	14248
920.378	14073
920.488	14027
920.598	14187
920.708	14377
920.818	14130
920.928	14161
921.038	14225
921.148	14298
921.258	13947
921.368	13928
921.477	13780
921.587	13788
921.697	13632
921.806	13791
921.916	13658
922.025	13426
922.134	13381
922.244	13396
922.353	13495
922.462	13316
922.571	13255
922.68	13149
922.789	13099
922.898	13080
923.007	13080
923.116	13107
923.224	13088
923.333	13103
923.442	12905
923.55	12947
923.659	12837
923.767	12928
923.876	12848
923.984	13008
924.092	12741
924.201	12802
924.309	12814
924.417	12791
924.525	12749
924.633	12719
924.741	13662
924.849	12563
924.956	12635
925.064	12525
925.172	12441
925.279	12483
925.387	12559
925.494	12597
925.602	12620
925.709	12525
925.816	12441
925.924	12391
926.031	12521
926.138	12437
926.245	12448
926.352	12403
926.459	12445
926.566	12486
926.673	12414
926.779	12281
926.886	12327
926.993	12095
927.099	12057
927.206	12049
927.312	12003
927.419	12148
927.525	11999
927.631	12114
927.737	12057
927.843	11973
927.95	11901
928.056	11897
928.162	11969
928.267	11977
928.373	12532
928.479	12026
928.585	11764
928.69	11897
928.796	11878
928.901	11786
929.007	11630
929.112	11805
929.218	11741
929.323	11657
929.428	11642
929.533	11813
929.638	11608
929.743	11642
929.848	11676
929.953	11619
930.058	11497
930.163	11376
930.267	11376
930.372	11440
930.477	11292
930.581	11520
930.685	11395
930.79	11299
930.894	11303
930.998	11204
931.103	11261
931.207	11003
931.311	10881
931.415	10892
931.519	10668
931.623	10634
