Data from test_V78500241_2641.txt Node
Date: Fri Mar 25 15:28:15 CST 2022
User: usil
Spectrometer: V785-0024
Trigger mode: 0
Integration Time (sec): 4.000000E-1
Scans to average: 1
Nonlinearity correction enabled: false
Boxcar width: 0
Storing dark spectrum: false
XAxis mode: Wavelengths
Number of Pixels in Spectrum: 1024
>>>>>Begin Spectral Data<<<<<
801.071	27252
801.214	27176
801.356	26914
801.499	26914
801.641	26872
801.783	26758
801.926	26948
802.068	26632
802.211	26724
802.353	26670
802.496	26530
802.638	26453
802.78	26313
802.923	26187
803.065	26278
803.208	26328
803.35	26355
803.492	26503
803.635	26564
803.777	26473
803.919	26530
804.061	26956
804.204	26621
804.346	26305
804.488	26507
804.63	26583
804.773	26389
804.915	26526
805.057	26636
805.199	26408
805.341	26606
805.483	26701
805.626	26731
805.768	26518
805.91	26689
806.052	26549
806.194	26568
806.336	26804
806.478	26575
806.62	26568
806.762	26735
806.904	26849
807.046	27207
807.188	26971
807.33	26948
807.472	26982
807.614	27096
807.756	27085
807.898	26906
808.04	26731
808.182	26823
808.324	26891
808.465	27009
808.607	27123
808.749	27317
808.891	27256
809.033	27412
809.174	27188
809.316	27211
809.458	27306
809.6	27230
809.741	27329
809.883	27389
810.025	27477
810.166	27481
810.308	27553
810.45	27435
810.591	27393
810.733	27211
810.875	27260
811.016	27218
811.158	27062
811.299	27211
811.441	27450
811.582	27306
811.724	27237
811.865	27180
812.007	27195
812.148	27218
812.29	27241
812.431	27431
812.573	27450
812.714	27523
812.855	27774
812.997	27728
813.138	27880
813.279	27926
813.421	27663
813.562	27652
813.703	27496
813.845	27317
813.986	27131
814.127	27036
814.268	26990
814.41	26861
814.551	27066
814.692	26940
814.833	26940
814.974	26823
815.115	26800
815.256	26792
815.397	26811
815.539	26807
815.68	26579
815.821	26598
815.962	26678
816.103	26686
816.244	26579
816.385	26518
816.526	26469
816.666	26298
816.807	26046
816.948	26183
817.089	26210
817.23	26286
817.371	26153
817.512	26115
817.653	26134
817.793	26176
817.934	26229
818.075	26130
818.216	26240
818.356	26149
818.497	26157
818.638	25860
818.778	25864
818.919	25951
819.06	25989
819.2	26153
819.341	26199
819.481	26122
819.622	26195
819.762	26518
819.903	26393
820.043	26469
820.184	26244
820.324	26339
820.465	26343
820.605	26191
820.746	26138
820.886	26081
821.026	26103
821.167	26210
821.307	26199
821.447	26157
821.588	26005
821.728	25966
821.868	25761
822.008	25693
822.149	25586
822.289	25628
822.429	25392
822.569	25419
822.709	25384
822.849	25004
822.99	25164
823.13	25095
823.27	25164
823.41	25004
823.55	24798
823.69	24947
823.83	24909
823.97	24977
824.11	24730
824.25	24703
824.389	24810
824.529	24886
824.669	24825
824.809	24787
824.949	24890
825.089	24829
825.228	24753
825.368	24703
825.508	24635
825.648	24490
825.787	24696
825.927	24654
826.067	24669
826.206	24574
826.346	24597
826.485	24612
826.625	24608
826.765	24658
826.904	24711
827.044	24452
827.183	24372
827.323	24460
827.462	24414
827.601	24505
827.741	24311
827.88	24327
828.02	24216
828.159	24190
828.298	24357
828.437	24414
828.577	24224
828.716	24376
828.855	24243
828.994	24102
829.134	24140
829.273	24011
829.412	23939
829.551	23916
829.69	23939
829.829	24106
829.968	24038
830.107	24057
830.246	24129
830.385	23939
830.524	23935
830.663	23958
830.802	23779
830.941	23596
831.08	23672
831.219	23710
831.357	23653
831.496	23965
831.635	23577
831.774	23691
831.913	23592
832.051	23356
832.19	23444
832.329	23630
832.467	23387
832.606	23318
832.744	23277
832.883	23334
833.022	23162
833.16	23296
833.299	23341
833.437	23315
833.576	23387
833.714	23482
833.852	23444
833.991	23417
834.129	23425
834.267	23482
834.406	23493
834.544	23372
834.682	23417
834.821	23436
834.959	23638
835.097	23402
835.235	23501
835.373	23372
835.511	23280
835.65	23235
835.788	23231
835.926	23090
836.064	23014
836.202	23132
836.34	23246
836.478	23250
836.615	23326
836.753	23299
836.891	23391
837.029	23349
837.167	23193
837.305	23170
837.443	23086
837.58	23014
837.718	23166
837.856	23105
837.993	23033
838.131	23075
838.269	22946
838.406	23006
838.544	22877
838.681	22740
838.819	22812
838.956	22489
839.094	22607
839.231	22637
839.369	22847
839.506	22968
839.643	22892
839.781	22706
839.918	22523
840.055	22603
840.193	22550
840.33	22512
840.467	22580
840.604	22523
840.742	22786
840.879	22421
841.016	22440
841.153	22504
841.29	22580
841.427	22489
841.564	22607
841.701	22550
841.838	22523
841.975	22481
842.112	22405
842.249	22504
842.385	22291
842.522	22577
842.659	22424
842.796	22337
842.933	22318
843.069	22226
843.206	22215
843.343	22367
843.479	22188
843.616	22253
843.752	22013
843.889	22059
844.025	22192
844.162	22070
844.298	22063
844.435	22120
844.571	21956
844.708	22158
844.844	22253
844.98	22394
845.117	22196
845.253	21949
845.389	21854
845.525	21960
845.661	21964
845.798	21728
845.934	21781
846.07	21656
846.206	21732
846.342	21926
846.478	21701
846.614	21686
846.75	21428
846.886	21568
847.022	21663
847.158	21553
847.294	21583
847.429	21538
847.565	21500
847.701	21785
847.837	21226
847.972	21112
848.108	21416
848.244	21310
848.379	21142
848.515	21093
848.65	21123
848.786	21066
848.921	21188
849.057	21184
849.192	21157
849.328	21081
849.463	21066
849.598	21169
849.734	20906
849.869	20849
850.004	20937
850.14	20906
850.275	20899
850.41	20777
850.545	20861
850.68	20902
850.815	20872
850.95	20891
851.085	21024
851.22	21093
851.355	20868
851.49	20765
851.625	20899
851.76	20830
851.895	20876
852.03	20815
852.165	20899
852.299	20891
852.434	21013
852.569	20712
852.703	20868
852.838	20849
852.973	21028
853.107	20963
853.242	20750
853.376	20727
853.511	20625
853.645	20731
853.78	20823
853.914	20701
854.048	20583
854.183	20689
854.317	20697
854.451	20853
854.585	20708
854.72	20769
854.854	20708
854.988	20594
855.122	20693
855.256	20617
855.39	20739
855.524	20765
855.658	20731
855.792	20686
855.926	20735
856.06	20769
856.194	20750
856.327	20708
856.461	20731
856.595	20697
856.729	20667
856.862	20807
856.996	20765
857.13	20853
857.263	20716
857.397	20883
857.53	20571
857.664	20617
857.797	20689
857.931	20792
858.064	20731
858.197	20842
858.331	20777
858.464	20663
858.597	20598
858.731	20773
858.864	20648
858.997	20648
859.13	20712
859.263	20682
859.396	20849
859.529	20629
859.662	20644
859.795	20670
859.928	20674
860.061	20883
860.194	20925
860.327	20788
860.46	20693
860.592	20838
860.725	20864
860.858	20857
860.99	20754
861.123	20602
861.256	20598
861.388	20788
861.521	21431
861.653	20670
861.786	20480
861.918	20598
862.05	20613
862.183	20621
862.315	20686
862.447	20727
862.58	20594
862.712	20396
862.844	20404
862.976	20431
863.108	20446
863.24	20902
863.372	20385
863.504	20488
863.636	20374
863.768	20446
863.9	20465
864.032	20358
864.164	20377
864.296	20568
864.428	20552
864.559	20518
864.691	20495
864.823	20385
864.954	20396
865.086	20434
865.217	20305
865.349	20282
865.48	20286
865.612	20343
865.743	20461
865.875	20221
866.006	20294
866.137	20115
866.269	20278
866.4	20446
866.531	20237
866.662	20191
866.793	20320
866.924	20343
867.055	20294
867.186	20275
867.317	20233
867.448	20065
867.579	20278
867.71	20282
867.841	20225
867.972	20176
868.103	20187
868.233	20214
868.364	20267
868.495	20336
868.625	20533
868.756	20743
868.886	20362
869.017	20431
869.147	20575
869.278	20682
869.408	20632
869.539	20423
869.669	20659
869.799	20461
869.929	20693
870.06	20655
870.19	20743
870.32	20811
870.45	20785
870.58	20880
870.71	20956
870.84	20960
870.97	20899
871.1	20857
871.23	21218
871.36	21081
871.489	20967
871.619	21024
871.749	20986
871.879	21112
872.008	21230
872.138	21043
872.267	21184
872.397	21096
872.526	20971
872.656	21024
872.785	20982
872.915	21195
873.044	21203
873.173	21214
873.303	21226
873.432	21108
873.561	21154
873.69	21157
873.819	21070
873.948	21165
874.077	21203
874.206	21009
874.335	21123
874.464	21317
874.593	21351
874.722	21287
874.851	21462
874.979	21363
875.108	21500
875.237	21325
875.365	21321
875.494	21363
875.623	21317
875.751	21370
875.88	21363
876.008	21595
876.136	21595
876.265	21804
876.393	21884
876.521	21823
876.65	21857
876.778	21831
876.906	21690
877.034	21709
877.162	21774
877.29	21694
877.418	21694
877.546	21732
877.674	21686
877.802	21686
877.93	21739
878.058	21694
878.185	21606
878.313	21682
878.441	21755
878.568	21576
878.696	21679
878.824	21682
878.951	21739
879.079	22006
879.206	22090
879.333	21835
879.461	21690
879.588	21747
879.715	21930
879.842	21998
879.97	21667
880.097	21393
880.224	21580
880.351	21530
880.478	21549
880.605	21481
880.732	21519
880.859	21705
880.986	21644
881.112	21591
881.239	21462
881.366	21279
881.493	21222
881.619	21085
881.746	21165
881.872	21188
881.999	21047
882.125	21043
882.252	21154
882.378	21024
882.505	21169
882.631	20994
882.757	20952
882.883	20853
883.01	20823
883.136	20880
883.262	20769
883.388	20823
883.514	20872
883.64	20758
883.766	20891
883.892	20663
884.018	20712
884.143	20735
884.269	21024
884.395	20655
884.52	20522
884.646	20541
884.772	20556
884.897	20450
885.023	20579
885.148	20541
885.274	20667
885.399	20518
885.524	20503
885.65	20457
885.775	20545
885.9	20370
886.025	20606
886.15	20545
886.275	20343
886.4	20404
886.525	20355
886.65	20442
886.775	20317
886.9	20613
887.025	20651
887.149	20461
887.274	20343
887.399	20225
887.523	20290
887.648	20153
887.773	20153
887.897	20210
888.021	20366
888.146	20157
888.27	20301
888.395	20381
888.519	20358
888.643	20275
888.767	20393
888.891	20100
889.015	19986
889.139	20115
889.263	20046
889.387	20111
889.511	20248
889.635	20126
889.759	20149
889.883	20081
890.006	20024
890.13	20259
890.254	20092
890.377	20035
890.501	19864
890.624	19662
890.748	19932
890.871	19689
890.995	19677
891.118	19597
891.241	19719
891.364	19632
891.488	19643
891.611	19662
891.734	19666
891.857	19753
891.98	19658
892.103	19719
892.226	19700
892.349	19590
892.471	19415
892.594	19544
892.717	19616
892.839	19464
892.962	19430
893.085	19491
893.207	19506
893.33	19476
893.452	19537
893.575	19510
893.697	19491
893.819	19639
893.941	19772
894.064	19689
894.186	19529
894.308	19476
894.43	19693
894.552	19689
894.674	19693
894.796	19415
894.918	19681
895.04	19495
895.161	19586
895.283	19666
895.405	19396
895.526	19575
895.648	19476
895.769	19674
895.891	19559
896.012	19685
896.134	19624
896.255	19525
896.376	19548
896.498	19647
896.619	19643
896.74	19578
896.861	19601
896.982	19818
897.103	20081
897.224	19906
897.345	19715
897.466	19677
897.587	19731
897.708	19791
897.828	19883
897.949	19780
898.07	19674
898.19	19685
898.311	19879
898.431	19845
898.552	19811
898.672	19906
898.792	19883
898.913	19803
899.033	19658
899.153	19518
899.273	19476
899.393	19567
899.513	19643
899.633	19613
899.753	19567
899.873	19628
899.993	19582
900.113	19529
900.232	19685
900.352	19464
900.472	19377
900.591	19369
900.711	19426
900.83	19308
900.95	19362
901.069	19480
901.189	19331
901.308	19046
901.427	18913
901.546	18897
901.665	18939
901.784	18996
901.904	18783
902.023	18711
902.141	18551
902.26	18528
902.379	18585
902.498	18483
902.617	18475
902.735	18509
902.854	18437
902.973	18380
903.091	18106
903.21	18140
903.328	18114
903.446	18011
903.565	17965
903.683	18011
903.801	17836
903.919	17958
904.038	17897
904.156	17836
904.274	17760
904.392	17665
904.51	17630
904.627	17634
904.745	17699
904.863	17733
904.981	17585
905.098	17417
905.216	17395
905.334	17452
905.451	17463
905.569	17360
905.686	17292
905.803	17383
905.921	17261
906.038	17235
906.155	17128
906.272	17151
906.389	17014
906.506	16881
906.623	16927
906.74	16915
906.857	16911
906.974	16839
907.091	16911
907.208	16972
907.324	16915
907.441	16786
907.557	16672
907.674	16645
907.79	16679
907.907	16592
908.023	16637
908.139	16634
908.256	16493
908.372	16504
908.488	16466
908.604	16409
908.72	16356
908.836	16333
908.952	16341
909.068	16379
909.184	16371
909.3	16322
909.415	16455
909.531	16398
909.647	16135
909.762	16025
909.878	15975
909.993	16093
910.108	16139
910.224	16010
910.339	16086
910.454	15956
910.57	15941
910.685	15823
910.8	16185
910.915	16082
911.03	15907
911.145	15698
911.259	15816
911.374	15641
911.489	15610
911.604	15492
911.718	15443
911.833	15477
911.947	15336
912.062	15374
912.176	15572
912.291	15534
912.405	15458
912.519	15584
912.633	15637
912.748	15477
912.862	15363
912.976	15249
913.09	15131
913.204	15241
913.318	15298
913.431	15332
913.545	15233
913.659	15313
913.772	15173
913.886	15017
914	15043
914.113	15089
914.226	15192
914.34	15104
914.453	14956
914.566	15001
914.68	14971
914.793	14944
914.906	14769
915.019	14625
915.132	14735
915.245	14651
915.358	14610
915.47	14686
915.583	14686
915.696	14655
915.809	14777
915.921	14754
916.034	14644
916.146	14552
916.259	14518
916.371	14606
916.483	14659
916.595	14526
916.708	14571
916.82	14522
916.932	14480
917.044	14457
917.156	14431
917.268	14427
917.38	14332
917.491	14305
917.603	14328
917.715	14396
917.826	14450
917.938	14339
918.049	14153
918.161	14244
918.272	14343
918.384	14511
918.495	14332
918.606	14103
918.717	14039
918.828	14145
918.939	14073
919.05	14005
919.161	14084
919.272	13967
919.383	13997
919.494	14138
919.604	14221
919.715	14088
919.826	13944
919.936	14103
920.047	14138
920.157	14153
920.267	14374
920.378	14111
920.488	14050
920.598	14343
920.708	14400
920.818	14313
920.928	14183
921.038	14457
921.148	14351
921.258	14031
921.368	13967
921.477	13818
921.587	13723
921.697	13719
921.806	13784
921.916	13658
922.025	13480
922.134	13548
922.244	13514
922.353	13483
922.462	13388
922.571	13362
922.68	13213
922.789	13270
922.898	13137
923.007	12973
923.116	13206
923.224	13221
923.333	13057
923.442	12932
923.55	12894
923.659	12970
923.767	13015
923.876	12859
923.984	13004
924.092	12859
924.201	12973
924.309	12905
924.417	12856
924.525	12730
924.633	12791
924.741	13712
924.849	12654
924.956	12787
925.064	12627
925.172	12532
925.279	12551
925.387	12494
925.494	12563
925.602	12749
925.709	12662
925.816	12414
925.924	12445
926.031	12578
926.138	12502
926.245	12437
926.352	12448
926.459	12574
926.566	12547
926.673	12494
926.779	12285
926.886	12281
926.993	12266
927.099	12171
927.206	12064
927.312	12133
927.419	12209
927.525	12220
927.631	12106
927.737	12026
927.843	11980
927.95	11923
928.056	11980
928.162	12038
928.267	12041
928.373	12547
928.479	12064
928.585	11813
928.69	11897
928.796	11977
928.901	11843
929.007	11680
929.112	11859
929.218	11794
929.323	11756
929.428	11665
929.533	11832
929.638	11619
929.743	11649
929.848	11748
929.953	11646
930.058	11551
930.163	11436
930.267	11410
930.372	11547
930.477	11311
930.581	11592
930.685	11497
930.79	11273
930.894	11322
930.998	11292
931.103	11376
931.207	11041
931.311	11006
931.415	10885
931.519	10725
931.623	10660
