Data from test_V78500241_2336.txt Node
Date: Fri Mar 25 15:26:07 CST 2022
User: usil
Spectrometer: V785-0024
Trigger mode: 0
Integration Time (sec): 4.000000E-1
Scans to average: 1
Nonlinearity correction enabled: false
Boxcar width: 0
Storing dark spectrum: false
XAxis mode: Wavelengths
Number of Pixels in Spectrum: 1024
>>>>>Begin Spectral Data<<<<<
801.071	27447
801.214	27294
801.356	27100
801.499	26940
801.641	26902
801.783	26815
801.926	26967
802.068	26956
802.211	26727
802.353	26716
802.496	26571
802.638	26442
802.78	26450
802.923	26431
803.065	26381
803.208	26423
803.35	26701
803.492	26731
803.635	26686
803.777	26507
803.919	26773
804.061	27127
804.204	26609
804.346	26845
804.488	26579
804.63	26716
804.773	26659
804.915	26621
805.057	26902
805.199	26758
805.341	26701
805.483	26849
805.626	26796
805.768	26727
805.91	26750
806.052	26887
806.194	26762
806.336	26956
806.478	26743
806.62	26750
806.762	26902
806.904	27020
807.046	27272
807.188	27203
807.33	27256
807.472	27370
807.614	27127
807.756	27203
807.898	27001
808.04	27104
808.182	26971
808.324	27039
808.465	27062
808.607	27340
808.749	27359
808.891	27424
809.033	27561
809.174	27424
809.316	27382
809.458	27454
809.6	27370
809.741	27405
809.883	27564
810.025	27625
810.166	27652
810.308	27739
810.45	27587
810.591	27580
810.733	27336
810.875	27427
811.016	27256
811.158	27180
811.299	27526
811.441	27443
811.582	27420
811.724	27367
811.865	27230
812.007	27336
812.148	27306
812.29	27306
812.431	27591
812.573	27728
812.714	27880
812.855	27842
812.997	27968
813.138	28143
813.279	27983
813.421	28010
813.562	27637
813.703	27633
813.845	27595
813.986	27370
814.127	27146
814.268	27005
814.41	27142
814.551	27051
814.692	27142
814.833	26910
814.974	26982
815.115	26994
815.256	26868
815.397	27077
815.539	26849
815.68	26902
815.821	26754
815.962	26857
816.103	26838
816.244	26762
816.385	26663
816.526	26560
816.666	26450
816.807	26301
816.948	26431
817.089	26492
817.23	26396
817.371	26294
817.512	26229
817.653	26404
817.793	26195
817.934	26240
818.075	26336
818.216	26339
818.356	26115
818.497	26206
818.638	26069
818.778	26046
818.919	26073
819.06	26183
819.2	26195
819.341	26358
819.481	26195
819.622	26389
819.762	26651
819.903	26374
820.043	26453
820.184	26396
820.324	26298
820.465	26400
820.605	26492
820.746	26343
820.886	26134
821.026	26332
821.167	26294
821.307	26473
821.447	26248
821.588	26199
821.728	26187
821.868	25970
822.008	25883
822.149	25693
822.289	25670
822.429	25491
822.569	25403
822.709	25472
822.849	25293
822.99	25285
823.13	25301
823.27	25137
823.41	25076
823.55	25118
823.69	25065
823.83	25076
823.97	25015
824.11	24886
824.25	24951
824.389	24954
824.529	24928
824.669	24779
824.809	25069
824.949	25008
825.089	25072
825.228	24920
825.368	24719
825.508	24779
825.648	24779
825.787	24817
825.927	24821
826.067	24661
826.206	24711
826.346	24795
826.485	24719
826.625	24741
826.765	24833
826.904	24772
827.044	24608
827.183	24517
827.323	24570
827.462	24597
827.601	24517
827.741	24490
827.88	24403
828.02	24452
828.159	24407
828.298	24639
828.437	24452
828.577	24410
828.716	24631
828.855	24384
828.994	24205
829.134	24155
829.273	24167
829.412	24266
829.551	24186
829.69	24353
829.829	24152
829.968	24228
830.107	24262
830.246	24171
830.385	24133
830.524	24068
830.663	24030
830.802	23805
830.941	23786
831.08	23691
831.219	23942
831.357	23764
831.496	24018
831.635	23817
831.774	23661
831.913	23687
832.051	23646
832.19	23646
832.329	23531
832.467	23459
832.606	23379
832.744	23421
832.883	23440
833.022	23414
833.16	23436
833.299	23524
833.437	23490
833.576	23630
833.714	23531
833.852	23562
833.991	23577
834.129	23642
834.267	23649
834.406	23520
834.544	23547
834.682	23524
834.821	23535
834.959	23703
835.097	23493
835.235	23524
835.373	23520
835.511	23474
835.65	23433
835.788	23322
835.926	23239
836.064	23212
836.202	23208
836.34	23368
836.478	23376
836.615	23254
836.753	23277
836.891	23520
837.029	23315
837.167	23311
837.305	23246
837.443	23341
837.58	23208
837.718	23258
837.856	23307
837.993	23208
838.131	23250
838.269	22991
838.406	23006
838.544	23037
838.681	22919
838.819	22824
838.956	22618
839.094	22702
839.231	22862
839.369	22839
839.506	23003
839.643	22976
839.781	22645
839.918	22630
840.055	22535
840.193	22740
840.33	22599
840.467	22771
840.604	22611
840.742	22835
840.879	22421
841.016	22561
841.153	22535
841.29	22710
841.427	22500
841.564	22675
841.701	22637
841.838	22493
841.975	22481
842.112	22504
842.249	22561
842.385	22344
842.522	22653
842.659	22455
842.796	22344
842.933	22375
843.069	22272
843.206	22303
843.343	22424
843.479	22303
843.616	22333
843.752	22188
843.889	22154
844.025	22291
844.162	22048
844.298	22188
844.435	22135
844.571	22070
844.708	22059
844.844	22261
844.98	22386
845.117	22238
845.253	22070
845.389	22017
845.525	22051
845.661	21915
845.798	21831
845.934	21838
846.07	21941
846.206	21888
846.342	21964
846.478	21724
846.614	21747
846.75	21587
846.886	21576
847.022	21724
847.158	21629
847.294	21766
847.429	21717
847.565	21622
847.701	21892
847.837	21408
847.972	21359
848.108	21431
848.244	21534
848.379	21294
848.515	21211
848.65	21272
848.786	21241
848.921	21085
849.057	21287
849.192	21256
849.328	21226
849.463	21233
849.598	21096
849.734	21173
849.869	21123
850.004	21017
850.14	20811
850.275	20990
850.41	20864
850.545	20876
850.68	20895
850.815	21043
850.95	20819
851.085	21024
851.22	21116
851.355	20994
851.49	21077
851.625	20883
851.76	20986
851.895	20861
852.03	20933
852.165	20838
852.299	20952
852.434	21104
852.569	21024
852.703	21024
852.838	21001
852.973	21070
853.107	21020
853.242	20929
853.376	20918
853.511	20735
853.645	20765
853.78	20762
853.914	20792
854.048	20823
854.183	20792
854.317	20655
854.451	21055
854.585	20853
854.72	20838
854.854	20891
854.988	20823
855.122	20682
855.256	20746
855.39	20845
855.524	20845
855.658	20910
855.792	20727
855.926	20872
856.06	20796
856.194	20967
856.327	20773
856.461	20712
856.595	20712
856.729	20739
856.862	20845
856.996	20708
857.13	20849
857.263	20925
857.397	20823
857.53	20842
857.664	20800
857.797	20857
857.931	21013
858.064	20807
858.197	20861
858.331	20815
858.464	20788
858.597	20754
858.731	20735
858.864	20682
858.997	20773
859.13	20792
859.263	20758
859.396	20777
859.529	20667
859.662	20785
859.795	20765
859.928	20872
860.061	21009
860.194	21005
860.327	20845
860.46	20777
860.592	20918
860.725	20902
860.858	20872
860.99	20819
861.123	20739
861.256	20716
861.388	20834
861.521	21260
861.653	20697
861.786	20583
861.918	20594
862.05	20678
862.183	20731
862.315	20697
862.447	20716
862.58	20648
862.712	20556
862.844	20480
862.976	20621
863.108	20518
863.24	21009
863.372	20415
863.504	20434
863.636	20480
863.768	20598
863.9	20522
864.032	20301
864.164	20393
864.296	20518
864.428	20606
864.559	20583
864.691	20564
864.823	20488
864.954	20579
865.086	20412
865.217	20412
865.349	20206
865.48	20385
865.612	20393
865.743	20533
865.875	20358
866.006	20366
866.137	20526
866.269	20336
866.4	20396
866.531	20305
866.662	20271
866.793	20446
866.924	20317
867.055	20446
867.186	20248
867.317	20267
867.448	20278
867.579	20358
867.71	20275
867.841	20305
867.972	20282
868.103	20244
868.233	20423
868.364	20362
868.495	20370
868.625	20556
868.756	20632
868.886	20526
869.017	20583
869.147	20575
869.278	20670
869.408	20533
869.539	20560
869.669	20629
869.799	20674
869.929	20682
870.06	20773
870.19	20788
870.32	20861
870.45	20861
870.58	21062
870.71	21009
870.84	21024
870.97	20990
871.1	20948
871.23	21195
871.36	21192
871.489	21112
871.619	21127
871.749	21131
871.879	21135
872.008	21233
872.138	21188
872.267	21218
872.397	21039
872.526	21024
872.656	21051
872.785	20906
872.915	21169
873.044	21397
873.173	21184
873.303	21310
873.432	21298
873.561	21287
873.69	21176
873.819	21142
873.948	21249
874.077	21344
874.206	21184
874.335	21203
874.464	21378
874.593	21439
874.722	21439
874.851	21473
874.979	21439
875.108	21488
875.237	21435
875.365	21298
875.494	21397
875.623	21473
875.751	21363
875.88	21469
876.008	21504
876.136	21599
876.265	21759
876.393	22006
876.521	21911
876.65	21945
876.778	21827
876.906	21728
877.034	21751
877.162	21732
877.29	21728
877.418	21823
877.546	21800
877.674	21789
877.802	21835
877.93	21838
878.058	21728
878.185	21652
878.313	21759
878.441	21755
878.568	21595
878.696	21698
878.824	21781
878.951	21960
879.079	21911
879.206	22086
879.333	21857
879.461	21785
879.588	21880
879.715	22090
879.842	21983
879.97	21838
880.097	21603
880.224	21637
880.351	21644
880.478	21759
880.605	21564
880.732	21648
880.859	21873
880.986	21614
881.112	21743
881.239	21500
881.366	21386
881.493	21279
881.619	21226
881.746	21294
881.872	21184
881.999	21245
882.125	21055
882.252	21199
882.378	21272
882.505	21237
882.631	20982
882.757	20891
882.883	20982
883.01	20845
883.136	20952
883.262	20853
883.388	20682
883.514	20857
883.64	20864
883.766	20663
883.892	20720
884.018	20655
884.143	20781
884.269	20960
884.395	20640
884.52	20454
884.646	20530
884.772	20400
884.897	20370
885.023	20590
885.148	20587
885.274	20678
885.399	20667
885.524	20636
885.65	20613
885.775	20564
885.9	20530
886.025	20609
886.15	20609
886.275	20469
886.4	20412
886.525	20511
886.65	20434
886.775	20579
886.9	20575
887.025	20697
887.149	20552
887.274	20317
887.399	20358
887.523	20172
887.648	20355
887.773	20370
887.897	20358
888.021	20358
888.146	20252
888.27	20324
888.395	20457
888.519	20358
888.643	20355
888.767	20370
888.891	20256
889.015	20180
889.139	20183
889.263	20221
889.387	20145
889.511	20427
889.635	20126
889.759	20043
889.883	20130
890.006	20111
890.13	20313
890.254	20043
890.377	20054
890.501	19936
890.624	19837
890.748	19932
890.871	19727
890.995	19746
891.118	19635
891.241	19811
891.364	19689
891.488	19761
891.611	19628
891.734	19681
891.857	19746
891.98	19750
892.103	19704
892.226	19632
892.349	19525
892.471	19567
892.594	19563
892.717	19586
892.839	19639
892.962	19632
893.085	19677
893.207	19590
893.33	19537
893.452	19605
893.575	19563
893.697	19559
893.819	19662
893.941	19784
894.064	19700
894.186	19571
894.308	19575
894.43	19639
894.552	19776
894.674	19643
894.796	19670
894.918	19616
895.04	19578
895.161	19723
895.283	19734
895.405	19537
895.526	19662
895.648	19700
895.769	19746
895.891	19613
896.012	19643
896.134	19635
896.255	19597
896.376	19639
896.498	19647
896.619	19620
896.74	19377
896.861	19674
896.982	19841
897.103	20088
897.224	19921
897.345	19906
897.466	19769
897.587	19852
897.708	19947
897.828	19868
897.949	19776
898.07	19776
898.19	19879
898.311	19879
898.431	19799
898.552	19856
898.672	19921
898.792	19871
898.913	19871
899.033	19753
899.153	19635
899.273	19609
899.393	19578
899.513	19681
899.633	19575
899.753	19521
899.873	19639
899.993	19677
900.113	19575
900.232	19613
900.352	19544
900.472	19476
900.591	19251
900.711	19441
900.83	19327
900.95	19480
901.069	19521
901.189	19327
901.308	19099
901.427	18875
901.546	19088
901.665	18875
901.784	18973
901.904	18806
902.023	18764
902.141	18627
902.26	18547
902.379	18540
902.498	18585
902.617	18498
902.735	18460
902.854	18536
902.973	18559
903.091	18308
903.21	18209
903.328	18194
903.446	18228
903.565	18057
903.683	17942
903.801	17855
903.919	17893
904.038	17965
904.156	17752
904.274	17824
904.392	17775
904.51	17722
904.627	17752
904.745	17783
904.863	17847
904.981	17516
905.098	17455
905.216	17452
905.334	17516
905.451	17509
905.569	17448
905.686	17337
905.803	17311
905.921	17231
906.038	17326
906.155	17307
906.272	17181
906.389	17079
906.506	16915
906.623	16968
906.74	16930
906.857	16828
906.974	16923
907.091	17143
907.208	17010
907.324	17018
907.441	16824
907.557	16607
907.674	16679
907.79	16687
907.907	16653
908.023	16710
908.139	16630
908.256	16653
908.372	16538
908.488	16538
908.604	16459
908.72	16424
908.836	16398
908.952	16447
909.068	16504
909.184	16421
909.3	16379
909.415	16379
909.531	16405
909.647	16097
909.762	16032
909.878	16124
909.993	16097
910.108	16109
910.224	16109
910.339	16048
910.454	16029
910.57	15956
910.685	15899
910.8	16211
910.915	16086
911.03	15979
911.145	15705
911.259	15701
911.374	15625
911.489	15694
911.604	15523
911.718	15542
911.833	15507
911.947	15294
912.062	15279
912.176	15462
912.291	15370
912.405	15420
912.519	15633
912.633	15641
912.748	15507
912.862	15435
912.976	15336
913.09	15188
913.204	15264
913.318	15306
913.431	15344
913.545	15382
913.659	15416
913.772	15233
913.886	15184
914	15116
914.113	15150
914.226	15252
914.34	15169
914.453	15036
914.566	15135
914.68	14925
914.793	14990
914.906	14773
915.019	14781
915.132	14587
915.245	14697
915.358	14712
915.47	14750
915.583	14750
915.696	14644
915.809	14785
915.921	14849
916.034	14701
916.146	14686
916.259	14602
916.371	14735
916.483	14697
916.595	14625
916.708	14575
916.82	14571
916.932	14503
917.044	14473
917.156	14377
917.268	14446
917.38	14427
917.491	14351
917.603	14419
917.715	14442
917.826	14450
917.938	14347
918.049	14294
918.161	14351
918.272	14408
918.384	14492
918.495	14336
918.606	14115
918.717	14138
918.828	14191
918.939	14180
919.05	14050
919.161	14073
919.272	13955
919.383	14020
919.494	14187
919.604	14343
919.715	14092
919.826	13986
919.936	14145
920.047	14225
920.157	14069
920.267	14351
920.378	14126
920.488	14050
920.598	14229
920.708	14339
920.818	14275
920.928	14225
921.038	14332
921.148	14362
921.258	14062
921.368	13989
921.477	13890
921.587	13852
921.697	13708
921.806	13940
921.916	13727
922.025	13601
922.134	13525
922.244	13457
922.353	13438
922.462	13343
922.571	13308
922.68	13156
922.789	13156
922.898	13183
923.007	13137
923.116	13175
923.224	13202
923.333	13213
923.442	12951
923.55	12859
923.659	13046
923.767	13012
923.876	12993
923.984	13015
924.092	12924
924.201	12897
924.309	13000
924.417	12897
924.525	12787
924.633	12844
924.741	13868
924.849	12669
924.956	12757
925.064	12604
925.172	12604
925.279	12620
925.387	12608
925.494	12597
925.602	12642
925.709	12585
925.816	12471
925.924	12509
926.031	12696
926.138	12578
926.245	12525
926.352	12471
926.459	12574
926.566	12696
926.673	12502
926.779	12369
926.886	12323
926.993	12201
927.099	12228
927.206	12079
927.312	12129
927.419	12140
927.525	12175
927.631	12163
927.737	12041
927.843	12022
927.95	11927
928.056	11973
928.162	12087
928.267	12068
928.373	12589
928.479	12087
928.585	11828
928.69	12015
928.796	12003
928.901	11874
929.007	11741
929.112	11840
929.218	11863
929.323	11752
929.428	11794
929.533	11885
929.638	11566
929.743	11676
929.848	11737
929.953	11710
930.058	11524
930.163	11436
930.267	11512
930.372	11543
930.477	11452
930.581	11642
930.685	11471
930.79	11311
930.894	11296
930.998	11284
931.103	11452
931.207	11079
931.311	11071
931.415	10911
931.519	10767
931.623	10725
