Data from test_V78500241_427.txt Node
Date: Fri Mar 25 15:12:49 CST 2022
User: usil
Spectrometer: V785-0024
Trigger mode: 0
Integration Time (sec): 4.000000E-1
Scans to average: 1
Nonlinearity correction enabled: false
Boxcar width: 0
Storing dark spectrum: false
XAxis mode: Wavelengths
Number of Pixels in Spectrum: 1024
>>>>>Begin Spectral Data<<<<<
801.071	27074
801.214	27150
801.356	26845
801.499	26735
801.641	26800
801.783	26587
801.926	26678
802.068	26571
802.211	26625
802.353	26590
802.496	26404
802.638	26473
802.78	26324
802.923	26278
803.065	26233
803.208	26107
803.35	26317
803.492	26374
803.635	26473
803.777	26355
803.919	26366
804.061	26838
804.204	26511
804.346	26419
804.488	26427
804.63	26488
804.773	26469
804.915	26438
805.057	26507
805.199	26571
805.341	26446
805.483	26609
805.626	26617
805.768	26389
805.91	26636
806.052	26682
806.194	26533
806.336	26792
806.478	26587
806.62	26640
806.762	26754
806.904	26838
807.046	27146
807.188	26921
807.33	26811
807.472	27077
807.614	26918
807.756	26891
807.898	26773
808.04	26842
808.182	26838
808.324	26811
808.465	26796
808.607	27074
808.749	27062
808.891	27336
809.033	27272
809.174	27184
809.316	27214
809.458	27230
809.6	27070
809.741	27184
809.883	27313
810.025	27374
810.166	27367
810.308	27412
810.45	27454
810.591	27435
810.733	27233
810.875	27176
811.016	27131
811.158	27047
811.299	27207
811.441	27313
811.582	27313
811.724	27249
811.865	27093
812.007	27180
812.148	27047
812.29	27169
812.431	27245
812.573	27435
812.714	27519
812.855	27690
812.997	27861
813.138	28059
813.279	27766
813.421	27686
813.562	27614
813.703	27564
813.845	27283
813.986	27131
814.127	26990
814.268	26762
814.41	26914
814.551	26800
814.692	26830
814.833	26853
814.974	26636
815.115	26811
815.256	26720
815.397	26629
815.539	26807
815.68	26705
815.821	26530
815.962	26640
816.103	26511
816.244	26552
816.385	26530
816.526	26305
816.666	26271
816.807	26210
816.948	26225
817.089	26282
817.23	26115
817.371	26073
817.512	26210
817.653	26229
817.793	26183
817.934	26157
818.075	26130
818.216	26214
818.356	26016
818.497	26039
818.638	25750
818.778	25940
818.919	25928
819.06	25909
819.2	26012
819.341	26050
819.481	25993
819.622	26210
819.762	26514
819.903	26377
820.043	26240
820.184	26142
820.324	26161
820.465	26347
820.605	26282
820.746	26229
820.886	25963
821.026	26286
821.167	26103
821.307	26126
821.447	26164
821.588	26161
821.728	25879
821.868	25582
822.008	25533
822.149	25620
822.289	25571
822.429	25358
822.569	25179
822.709	25312
822.849	25209
822.99	25034
823.13	25069
823.27	25118
823.41	24905
823.55	24719
823.69	24867
823.83	24871
823.97	24840
824.11	24753
824.25	24639
824.389	24658
824.529	24722
824.669	24745
824.809	24901
824.949	24798
825.089	24825
825.228	24760
825.368	24513
825.508	24551
825.648	24593
825.787	24703
825.927	24631
826.067	24475
826.206	24642
826.346	24505
826.485	24593
826.625	24585
826.765	24639
826.904	24654
827.044	24475
827.183	24357
827.323	24224
827.462	24243
827.601	24334
827.741	24350
827.88	24308
828.02	24213
828.159	24353
828.298	24342
828.437	24433
828.577	24174
828.716	24380
828.855	24216
828.994	24007
829.134	24007
829.273	24182
829.412	23996
829.551	24015
829.69	23984
829.829	24045
829.968	24106
830.107	24041
830.246	23912
830.385	23843
830.524	23866
830.663	23718
830.802	23756
830.941	23531
831.08	23573
831.219	23646
831.357	23722
831.496	23927
831.635	23554
831.774	23589
831.913	23493
832.051	23539
832.19	23414
832.329	23539
832.467	23296
832.606	23349
832.744	23311
832.883	23448
833.022	23349
833.16	23334
833.299	23379
833.437	23398
833.576	23364
833.714	23376
833.852	23417
833.991	23334
834.129	23440
834.267	23417
834.406	23387
834.544	23490
834.682	23421
834.821	23322
834.959	23528
835.097	23326
835.235	23410
835.373	23429
835.511	23288
835.65	23178
835.788	23277
835.926	23151
836.064	22965
836.202	23094
836.34	23360
836.478	23288
836.615	23220
836.753	23197
836.891	23395
837.029	23261
837.167	23227
837.305	23159
837.443	23136
837.58	23155
837.718	23121
837.856	23071
837.993	22984
838.131	23075
838.269	22980
838.406	22946
838.544	22820
838.681	22793
838.819	22809
838.956	22554
839.094	22527
839.231	22599
839.369	22759
839.506	22953
839.643	22850
839.781	22485
839.918	22493
840.055	22588
840.193	22565
840.33	22550
840.467	22466
840.604	22462
840.742	22660
840.879	22284
841.016	22417
841.153	22421
841.29	22531
841.427	22588
841.564	22577
841.701	22493
841.838	22497
841.975	22394
842.112	22523
842.249	22329
842.385	22204
842.522	22478
842.659	22352
842.796	22234
842.933	22272
843.069	22147
843.206	22257
843.343	22329
843.479	22382
843.616	22211
843.752	22097
843.889	22074
844.025	22150
844.162	22074
844.298	22109
844.435	22055
844.571	22067
844.708	21983
844.844	22154
844.98	22204
845.117	22124
845.253	21975
845.389	21842
845.525	21835
845.661	21880
845.798	21846
845.934	21724
846.07	21823
846.206	21850
846.342	21789
846.478	21701
846.614	21591
846.75	21603
846.886	21416
847.022	21686
847.158	21557
847.294	21576
847.429	21580
847.565	21561
847.701	21739
847.837	21321
847.972	21226
848.108	21336
848.244	21336
848.379	21184
848.515	21123
848.65	21066
848.786	21066
848.921	21131
849.057	21184
849.192	21214
849.328	21203
849.463	21195
849.598	20937
849.734	21039
849.869	20963
850.004	20948
850.14	20967
850.275	20750
850.41	20765
850.545	20883
850.68	20777
850.815	20853
850.95	20876
851.085	21058
851.22	20998
851.355	20876
851.49	20914
851.625	20811
851.76	20769
851.895	20731
852.03	20731
852.165	20876
852.299	20918
852.434	20895
852.569	20921
852.703	20872
852.838	20902
852.973	20952
853.107	20918
853.242	20788
853.376	20731
853.511	20648
853.645	20598
853.78	20826
853.914	20720
854.048	20632
854.183	20655
854.317	20773
854.451	20720
854.585	20785
854.72	20663
854.854	20758
854.988	20602
855.122	20724
855.256	20549
855.39	20655
855.524	20651
855.658	20674
855.792	20781
855.926	20659
856.06	20693
856.194	20792
856.327	20724
856.461	20705
856.595	20629
856.729	20708
856.862	20727
856.996	20746
857.13	20686
857.263	20746
857.397	20826
857.53	20743
857.664	20659
857.797	20743
857.931	20796
858.064	20648
858.197	20746
858.331	20682
858.464	20625
858.597	20583
858.731	20758
858.864	20648
858.997	20602
859.13	20686
859.263	20724
859.396	20842
859.529	20659
859.662	20720
859.795	20727
859.928	20689
860.061	20868
860.194	20876
860.327	20830
860.46	20663
860.592	20815
860.725	20887
860.858	20868
860.99	20788
861.123	20670
861.256	20625
861.388	20678
861.521	21428
861.653	20613
861.786	20457
861.918	20686
862.05	20492
862.183	20655
862.315	20663
862.447	20648
862.58	20750
862.712	20412
862.844	20309
862.976	20575
863.108	20503
863.24	20781
863.372	20351
863.504	20419
863.636	20366
863.768	20427
863.9	20492
864.032	20263
864.164	20442
864.296	20579
864.428	20484
864.559	20450
864.691	20476
864.823	20450
864.954	20309
865.086	20351
865.217	20256
865.349	20275
865.48	20328
865.612	20256
865.743	20469
865.875	20450
866.006	20252
866.137	20233
866.269	20328
866.4	20332
866.531	20370
866.662	20305
866.793	20351
866.924	20271
867.055	20252
867.186	20267
867.317	20237
867.448	20111
867.579	20252
867.71	20039
867.841	20206
867.972	20290
868.103	20275
868.233	20267
868.364	20294
868.495	20271
868.625	20461
868.756	20727
868.886	20332
869.017	20431
869.147	20461
869.278	20640
869.408	20503
869.539	20457
869.669	20442
869.799	20545
869.929	20579
870.06	20564
870.19	20762
870.32	20724
870.45	20868
870.58	20823
870.71	21032
870.84	21100
870.97	20861
871.1	20956
871.23	21047
871.36	21165
871.489	20979
871.619	21062
871.749	21089
871.879	21169
872.008	21188
872.138	21081
872.267	20986
872.397	20971
872.526	20899
872.656	20899
872.785	20857
872.915	21146
873.044	21268
873.173	21157
873.303	21157
873.432	21192
873.561	21264
873.69	21184
873.819	21237
873.948	21100
874.077	21135
874.206	21104
874.335	21165
874.464	21199
874.593	21298
874.722	21321
874.851	21351
874.979	21408
875.108	21428
875.237	21370
875.365	21233
875.494	21237
875.623	21355
875.751	21370
875.88	21424
876.008	21542
876.136	21633
876.265	21934
876.393	21873
876.521	21922
876.65	21922
876.778	21736
876.906	21728
877.034	21724
877.162	21732
877.29	21736
877.418	21774
877.546	21793
877.674	21759
877.802	21766
877.93	21739
878.058	21603
878.185	21622
878.313	21728
878.441	21694
878.568	21576
878.696	21743
878.824	21713
878.951	21880
879.079	21918
879.206	21945
879.333	22010
879.461	21656
879.588	21880
879.715	21873
879.842	21941
879.97	21713
880.097	21633
880.224	21473
880.351	21675
880.478	21466
880.605	21629
880.732	21534
880.859	21781
880.986	21713
881.112	21561
881.239	21469
881.366	21294
881.493	21195
881.619	21199
881.746	21157
881.872	21146
881.999	20952
882.125	21062
882.252	21093
882.378	21077
882.505	21131
882.631	20925
882.757	20861
882.883	20861
883.01	20830
883.136	20823
883.262	20724
883.388	20842
883.514	20842
883.64	20807
883.766	20739
883.892	20625
884.018	20674
884.143	20746
884.269	20845
884.395	20571
884.52	20598
884.646	20606
884.772	20419
884.897	20320
885.023	20492
885.148	20549
885.274	20651
885.399	20716
885.524	20408
885.65	20526
885.775	20564
885.9	20362
886.025	20670
886.15	20514
886.275	20427
886.4	20336
886.525	20381
886.65	20412
886.775	20480
886.9	20670
887.025	20670
887.149	20457
887.274	20183
887.399	20244
887.523	20248
887.648	20191
887.773	20168
887.897	20313
888.021	20339
888.146	20252
888.27	20393
888.395	20244
888.519	20431
888.643	20320
888.767	20225
888.891	20214
889.015	19993
889.139	20225
889.263	20115
889.387	20195
889.511	20252
889.635	20221
889.759	19955
889.883	20027
890.006	20122
890.13	20191
890.254	20008
890.377	20046
890.501	19841
890.624	19712
890.748	19902
890.871	19674
890.995	19689
891.118	19575
891.241	19731
891.364	19635
891.488	19750
891.611	19685
891.734	19712
891.857	19731
891.98	19605
892.103	19651
892.226	19750
892.349	19651
892.471	19369
892.594	19597
892.717	19571
892.839	19567
892.962	19529
893.085	19715
893.207	19712
893.33	19373
893.452	19480
893.575	19601
893.697	19567
893.819	19670
893.941	19750
894.064	19597
894.186	19407
894.308	19491
894.43	19662
894.552	19632
894.674	19540
894.796	19464
894.918	19544
895.04	19445
895.161	19674
895.283	19601
895.405	19521
895.526	19544
895.648	19453
895.769	19670
895.891	19628
896.012	19597
896.134	19556
896.255	19613
896.376	19510
896.498	19548
896.619	19586
896.74	19556
896.861	19518
896.982	19852
897.103	20039
897.224	19875
897.345	19753
897.466	19826
897.587	19837
897.708	19833
897.828	19852
897.949	19833
898.07	19647
898.19	19674
898.311	19803
898.431	19776
898.552	19685
898.672	19879
898.792	19864
898.913	19719
899.033	19742
899.153	19586
899.273	19548
899.393	19609
899.513	19499
899.633	19597
899.753	19662
899.873	19540
899.993	19597
900.113	19483
900.232	19510
900.352	19438
900.472	19304
900.591	19369
900.711	19343
900.83	19419
900.95	19365
901.069	19457
901.189	19270
901.308	19148
901.427	18989
901.546	18943
901.665	18954
901.784	18867
901.904	18757
902.023	18646
902.141	18479
902.26	18521
902.379	18525
902.498	18464
902.617	18395
902.735	18456
902.854	18483
902.973	18422
903.091	18060
903.21	18038
903.328	18079
903.446	18057
903.565	17931
903.683	17961
903.801	17828
903.919	17817
904.038	17939
904.156	17821
904.274	17832
904.392	17726
904.51	17665
904.627	17718
904.745	17661
904.863	17680
904.981	17543
905.098	17395
905.216	17376
905.334	17341
905.451	17436
905.569	17364
905.686	17471
905.803	17436
905.921	17064
906.038	17303
906.155	17254
906.272	17025
906.389	17159
906.506	17018
906.623	16991
906.74	16919
906.857	16771
906.974	16831
907.091	16961
907.208	17090
907.324	16869
907.441	16873
907.557	16763
907.674	16630
907.79	16596
907.907	16618
908.023	16713
908.139	16584
908.256	16565
908.372	16508
908.488	16615
908.604	16325
908.72	16299
908.836	16367
908.952	16462
909.068	16455
909.184	16470
909.3	16352
909.415	16402
909.531	16310
909.647	16147
909.762	16090
909.878	16082
909.993	16097
910.108	15960
910.224	16040
910.339	16101
910.454	15918
910.57	15873
910.685	15876
910.8	16109
910.915	16010
911.03	15888
911.145	15789
911.259	15675
911.374	15747
911.489	15663
911.604	15545
911.718	15526
911.833	15439
911.947	15294
912.062	15146
912.176	15447
912.291	15462
912.405	15496
912.519	15576
912.633	15622
912.748	15435
912.862	15412
912.976	15287
913.09	15135
913.204	15245
913.318	15245
913.431	15382
913.545	15317
913.659	15252
913.772	15233
913.886	15154
914	15070
914.113	15157
914.226	15184
914.34	15127
914.453	14990
914.566	15100
914.68	15020
914.793	14918
914.906	14602
915.019	14640
915.132	14727
915.245	14640
915.358	14731
915.47	14659
915.583	14743
915.696	14693
915.809	14815
915.921	14689
916.034	14750
916.146	14590
916.259	14549
916.371	14674
916.483	14610
916.595	14446
916.708	14488
916.82	14484
916.932	14450
917.044	14511
917.156	14450
917.268	14389
917.38	14434
917.491	14339
917.603	14358
917.715	14473
917.826	14476
917.938	14233
918.049	14210
918.161	14294
918.272	14446
918.384	14374
918.495	14267
918.606	14142
918.717	14020
918.828	14161
918.939	14081
919.05	14008
919.161	14195
919.272	13875
919.383	13974
919.494	14123
919.604	14393
919.715	14046
919.826	14031
919.936	14088
920.047	14183
920.157	14081
920.267	14244
920.378	14035
920.488	14172
920.598	14225
920.708	14427
920.818	14221
920.928	14313
921.038	14469
921.148	14324
921.258	14176
921.368	13970
921.477	13894
921.587	13852
921.697	13746
921.806	13753
921.916	13715
922.025	13529
922.134	13445
922.244	13453
922.353	13480
922.462	13369
922.571	13285
922.68	13160
922.789	13141
922.898	13110
923.007	13088
923.116	13232
923.224	13179
923.333	13118
923.442	12989
923.55	12985
923.659	12932
923.767	13137
923.876	12859
923.984	12886
924.092	12817
924.201	12856
924.309	12905
924.417	12825
924.525	12814
924.633	12795
924.741	13677
924.849	12681
924.956	12810
925.064	12623
925.172	12509
925.279	12517
925.387	12646
925.494	12631
925.602	12616
925.709	12631
925.816	12574
925.924	12593
926.031	12517
926.138	12525
926.245	12551
926.352	12388
926.459	12536
926.566	12532
926.673	12452
926.779	12395
926.886	12323
926.993	12232
927.099	12159
927.206	12098
927.312	12102
927.419	12201
927.525	12121
927.631	12098
927.737	12068
927.843	12057
927.95	11866
928.056	11939
928.162	11935
928.267	12011
928.373	12631
928.479	12083
928.585	11901
928.69	11946
928.796	11859
928.901	11939
929.007	11748
929.112	11824
929.218	11836
929.323	11756
929.428	11672
929.533	11821
929.638	11627
929.743	11707
929.848	11676
929.953	11623
930.058	11551
930.163	11406
930.267	11398
930.372	11535
930.477	11330
930.581	11703
930.685	11497
930.79	11311
930.894	11395
930.998	11299
931.103	11459
931.207	11067
931.311	10995
931.415	10835
931.519	10729
931.623	10577
