Data from test_V78500241_1085.txt Node
Date: Fri Mar 25 15:17:24 CST 2022
User: usil
Spectrometer: V785-0024
Trigger mode: 0
Integration Time (sec): 4.000000E-1
Scans to average: 1
Nonlinearity correction enabled: false
Boxcar width: 0
Storing dark spectrum: false
XAxis mode: Wavelengths
Number of Pixels in Spectrum: 1024
>>>>>Begin Spectral Data<<<<<
801.071	28185
801.214	28223
801.356	27911
801.499	27690
801.641	27857
801.783	27694
801.926	27724
802.068	27709
802.211	27667
802.353	27637
802.496	27351
802.638	27431
802.78	27431
802.923	27169
803.065	27310
803.208	27344
803.35	27401
803.492	27515
803.635	27542
803.777	27648
803.919	27633
804.061	27804
804.204	27553
804.346	27599
804.488	27515
804.63	27709
804.773	27679
804.915	27717
805.057	27686
805.199	27675
805.341	27747
805.483	27762
805.626	27709
805.768	27728
805.91	27694
806.052	27660
806.194	27648
806.336	27892
806.478	27857
806.62	27743
806.762	27934
806.904	28097
807.046	28253
807.188	28128
807.33	28158
807.472	28173
807.614	28013
807.756	28128
807.898	27934
808.04	28010
808.182	28021
808.324	28112
808.465	28143
808.607	28375
808.749	28257
808.891	28478
809.033	28497
809.174	28527
809.316	28299
809.458	28440
809.6	28318
809.741	28584
809.883	28527
810.025	28721
810.166	28793
810.308	28618
810.45	28580
810.591	28637
810.733	28421
810.875	28413
811.016	28523
811.158	28322
811.299	28421
811.441	28542
811.582	28626
811.724	28295
811.865	28394
812.007	28322
812.148	28466
812.29	28497
812.431	28500
812.573	28801
812.714	28927
812.855	28946
812.997	29044
813.138	29421
813.279	28961
813.421	28972
813.562	28881
813.703	28942
813.845	28694
813.986	28360
814.127	28246
814.268	28150
814.41	28154
814.551	28082
814.692	28230
814.833	28082
814.974	28192
815.115	28070
815.256	27968
815.397	27983
815.539	27975
815.68	27953
815.821	27800
815.962	27964
816.103	27937
816.244	27831
816.385	27838
816.526	27686
816.666	27435
816.807	27351
816.948	27580
817.089	27473
817.23	27389
817.371	27302
817.512	27374
817.653	27378
817.793	27447
817.934	27511
818.075	27420
818.216	27424
818.356	27374
818.497	27306
818.638	27100
818.778	27241
818.919	27230
819.06	27241
819.2	27241
819.341	27469
819.481	27416
819.622	27561
819.762	27892
819.903	27679
820.043	27686
820.184	27561
820.324	27686
820.465	27576
820.605	27545
820.746	27667
820.886	27306
821.026	27648
821.167	27458
821.307	27568
821.447	27268
821.588	27237
821.728	27237
821.868	27150
822.008	27058
822.149	27074
822.289	26895
822.429	26632
822.569	26720
822.709	26655
822.849	26541
822.99	26533
823.13	26381
823.27	26336
823.41	26298
823.55	26301
823.69	26393
823.83	26233
823.97	26218
824.11	26107
824.25	26065
824.389	26142
824.529	26065
824.669	26119
824.809	26339
824.949	26218
825.089	26218
825.228	26191
825.368	25875
825.508	26100
825.648	26008
825.787	26005
825.927	26073
826.067	25940
826.206	25982
826.346	26039
826.485	25982
826.625	25871
826.765	26096
826.904	25993
827.044	25753
827.183	25715
827.323	25655
827.462	25769
827.601	25753
827.741	25674
827.88	25639
828.02	25552
828.159	25575
828.298	25708
828.437	25795
828.577	25540
828.716	25765
828.855	25559
828.994	25407
829.134	25392
829.273	25521
829.412	25350
829.551	25346
829.69	25400
829.829	25403
829.968	25479
830.107	25468
830.246	25365
830.385	25282
830.524	25278
830.663	25202
830.802	25137
830.941	25095
831.08	25000
831.219	25042
831.357	25061
831.496	25209
831.635	24996
831.774	24913
831.913	24878
832.051	24768
832.19	24745
832.329	24852
832.467	24795
832.606	24795
832.744	24661
832.883	24719
833.022	24623
833.16	24753
833.299	24673
833.437	24661
833.576	24806
833.714	24848
833.852	24840
833.991	24772
834.129	24905
834.267	24791
834.406	24700
834.544	24806
834.682	24897
834.821	24646
834.959	25019
835.097	24692
835.235	24924
835.373	24719
835.511	24783
835.65	24677
835.788	24677
835.926	24536
836.064	24395
836.202	24509
836.34	24665
836.478	24711
836.615	24517
836.753	24635
836.891	24703
837.029	24665
837.167	24639
837.305	24513
837.443	24627
837.58	24353
837.718	24441
837.856	24433
837.993	24372
838.131	24403
838.269	24338
838.406	24369
838.544	24197
838.681	24232
838.819	24155
838.956	23878
839.094	23885
839.231	23851
839.369	24117
839.506	24399
839.643	24144
839.781	23908
839.918	23901
840.055	23882
840.193	23939
840.33	23866
840.467	23885
840.604	23783
840.742	24041
840.879	23729
841.016	23710
841.153	23733
841.29	23840
841.427	23836
841.564	23901
841.701	23923
841.838	23783
841.975	23718
842.112	23767
842.249	23615
842.385	23478
842.522	23760
842.659	23676
842.796	23474
842.933	23600
843.069	23528
843.206	23463
843.343	23573
843.479	23665
843.616	23497
843.752	23398
843.889	23410
844.025	23471
844.162	23315
844.298	23554
844.435	23402
844.571	23280
844.708	23429
844.844	23573
844.98	23512
845.117	23433
845.253	23280
845.389	23261
845.525	23326
845.661	23109
845.798	23098
845.934	23109
846.07	23033
846.206	23098
846.342	23132
846.478	23056
846.614	22946
846.75	22778
846.886	22809
847.022	22984
847.158	23056
847.294	22828
847.429	22850
847.565	22778
847.701	23044
847.837	22603
847.972	22474
848.108	22660
848.244	22675
848.379	22428
848.515	22386
848.65	22310
848.786	22367
848.921	22360
849.057	22561
849.192	22440
849.328	22417
849.463	22356
849.598	22535
849.734	22299
849.869	22341
850.004	22223
850.14	22223
850.275	22200
850.41	22162
850.545	22048
850.68	22173
850.815	22284
850.95	22207
851.085	22394
851.22	22344
851.355	22246
851.49	22238
851.625	22204
851.76	22204
851.895	22158
852.03	22048
852.165	22082
852.299	22325
852.434	22272
852.569	22082
852.703	22226
852.838	22261
852.973	22246
853.107	22360
853.242	22059
853.376	22013
853.511	21994
853.645	22032
853.78	22169
853.914	21918
854.048	22040
854.183	21953
854.317	21956
854.451	22207
854.585	22055
854.72	21869
854.854	22109
854.988	21869
855.122	21972
855.256	21819
855.39	21975
855.524	21987
855.658	22059
855.792	22097
855.926	21934
856.06	22013
856.194	22082
856.327	22029
856.461	21956
856.595	21930
856.729	21945
856.862	22074
856.996	22040
857.13	22097
857.263	21949
857.397	22109
857.53	22002
857.664	22109
857.797	22021
857.931	22086
858.064	22063
858.197	22006
858.331	21998
858.464	21994
858.597	21953
858.731	21911
858.864	21888
858.997	22040
859.13	22097
859.263	21960
859.396	22135
859.529	21956
859.662	22006
859.795	21915
859.928	22044
860.061	22143
860.194	22219
860.327	22070
860.46	22059
860.592	22059
860.725	22093
860.858	22055
860.99	21968
861.123	21888
861.256	21964
861.388	21983
861.521	22782
861.653	21816
861.786	21861
861.918	21850
862.05	21899
862.183	21926
862.315	21968
862.447	21903
862.58	21907
862.712	21835
862.844	21759
862.976	21808
863.108	21774
863.24	22177
863.372	21515
863.504	21675
863.636	21622
863.768	21690
863.9	21667
864.032	21682
864.164	21637
864.296	21637
864.428	21709
864.559	21732
864.691	21720
864.823	21671
864.954	21720
865.086	21610
865.217	21606
865.349	21386
865.48	21557
865.612	21747
865.743	21671
865.875	21663
866.006	21580
866.137	21622
866.269	21500
866.4	21690
866.531	21572
866.662	21469
866.793	21545
866.924	21561
867.055	21519
867.186	21660
867.317	21447
867.448	21287
867.579	21462
867.71	21496
867.841	21507
867.972	21568
868.103	21519
868.233	21622
868.364	21466
868.495	21671
868.625	21618
868.756	21793
868.886	21633
869.017	21698
869.147	21846
869.278	21903
869.408	21717
869.539	21736
869.669	21808
869.799	21831
869.929	21838
870.06	21899
870.19	21941
870.32	22078
870.45	22143
870.58	22150
870.71	22303
870.84	22185
870.97	22185
871.1	22204
871.23	22291
871.36	22230
871.489	22318
871.619	22246
871.749	22382
871.879	22398
872.008	22436
872.138	22356
872.267	22455
872.397	22150
872.526	22188
872.656	22249
872.785	22192
872.915	22413
873.044	22390
873.173	22451
873.303	22447
873.432	22409
873.561	22421
873.69	22276
873.819	22432
873.948	22493
874.077	22500
874.206	22360
874.335	22344
874.464	22516
874.593	22592
874.722	22424
874.851	22679
874.979	22645
875.108	22622
875.237	22512
875.365	22485
875.494	22478
875.623	22611
875.751	22459
875.88	22664
876.008	22660
876.136	22835
876.265	22995
876.393	23064
876.521	23113
876.65	23041
876.778	22995
876.906	22984
877.034	22885
877.162	22889
877.29	22831
877.418	22995
877.546	22987
877.674	22984
877.802	22946
877.93	22953
878.058	22911
878.185	22797
878.313	22885
878.441	22889
878.568	22706
878.696	22839
878.824	22892
878.951	22946
879.079	23132
879.206	23197
879.333	23094
879.461	22828
879.588	22961
879.715	22999
879.842	23208
879.97	22995
880.097	22786
880.224	22660
880.351	22797
880.478	22767
880.605	22641
880.732	22771
880.859	23025
880.986	22733
881.112	22790
881.239	22706
881.366	22535
881.493	22459
881.619	22280
881.746	22489
881.872	22455
881.999	22402
882.125	22257
882.252	22325
882.378	22200
882.505	22459
882.631	22158
882.757	22090
882.883	22025
883.01	22029
883.136	21991
883.262	21873
883.388	21884
883.514	22036
883.64	22013
883.766	21808
883.892	21778
884.018	21869
884.143	21949
884.269	22025
884.395	21671
884.52	21595
884.646	21614
884.772	21549
884.897	21553
885.023	21686
885.148	21732
885.274	21789
885.399	21743
885.524	21671
885.65	21504
885.775	21641
885.9	21538
886.025	21667
886.15	21724
886.275	21690
886.4	21534
886.525	21633
886.65	21606
886.775	21568
886.9	21618
887.025	21865
887.149	21652
887.274	21435
887.399	21477
887.523	21363
887.648	21447
887.773	21260
887.897	21447
888.021	21492
888.146	21370
888.27	21606
888.395	21538
888.519	21443
888.643	21420
888.767	21595
888.891	21199
889.015	21321
889.139	21218
889.263	21165
889.387	21249
889.511	21344
889.635	21367
889.759	21214
889.883	21104
890.006	21222
890.13	21359
890.254	21070
890.377	21116
890.501	21017
890.624	20899
890.748	21009
890.871	20910
890.995	20746
891.118	20648
891.241	20857
891.364	20731
891.488	20880
891.611	20701
891.734	20739
891.857	20777
891.98	20838
892.103	20876
892.226	20788
892.349	20697
892.471	20651
892.594	20667
892.717	20708
892.839	20571
892.962	20655
893.085	20750
893.207	20739
893.33	20613
893.452	20644
893.575	20777
893.697	20545
893.819	20864
893.941	20857
894.064	20785
894.186	20629
894.308	20537
894.43	20739
894.552	20769
894.674	20788
894.796	20598
894.918	20606
895.04	20454
895.161	20629
895.283	20632
895.405	20587
895.526	20583
895.648	20579
895.769	20571
895.891	20651
896.012	20754
896.134	20712
896.255	20674
896.376	20507
896.498	20651
896.619	20670
896.74	20632
896.861	20644
896.982	20994
897.103	21051
897.224	20842
897.345	20807
897.466	20758
897.587	20914
897.708	21039
897.828	20914
897.949	20743
898.07	20686
898.19	20659
898.311	20895
898.431	20773
898.552	20830
898.672	20838
898.792	20902
898.913	20887
899.033	20636
899.153	20583
899.273	20415
899.393	20575
899.513	20598
899.633	20518
899.753	20583
899.873	20473
899.993	20526
900.113	20514
900.232	20454
900.352	20492
900.472	20282
900.591	20305
900.711	20305
900.83	20355
900.95	20412
901.069	20526
901.189	20233
901.308	19845
901.427	19932
901.546	19955
901.665	19807
901.784	19894
901.904	19875
902.023	19708
902.141	19411
902.26	19468
902.379	19506
902.498	19392
902.617	19445
902.735	19449
902.854	19445
902.973	19324
903.091	19099
903.21	19088
903.328	19122
903.446	18989
903.565	18882
903.683	18821
903.801	18825
903.919	18867
904.038	18802
904.156	18707
904.274	18658
904.392	18623
904.51	18525
904.627	18650
904.745	18753
904.863	18582
904.981	18391
905.098	18410
905.216	18334
905.334	18330
905.451	18334
905.569	18292
905.686	18467
905.803	18270
905.921	18129
906.038	18228
906.155	18064
906.272	18041
906.389	18079
906.506	17923
906.623	17923
906.74	17817
906.857	17760
906.974	17733
907.091	17897
907.208	17961
907.324	17851
907.441	17699
907.557	17589
907.674	17535
907.79	17585
907.907	17532
908.023	17623
908.139	17532
908.256	17501
908.372	17543
908.488	17577
908.604	17349
908.72	17208
908.836	17322
908.952	17345
909.068	17277
909.184	17391
909.3	17376
909.415	17269
909.531	17322
909.647	17041
909.762	17121
909.878	16946
909.993	17060
910.108	16854
910.224	16900
910.339	16866
910.454	16927
910.57	16797
910.685	16782
910.8	17060
910.915	16881
911.03	16733
911.145	16546
911.259	16577
911.374	16656
911.489	16599
911.604	16436
911.718	16356
911.833	16329
911.947	16139
912.062	16234
912.176	16337
912.291	16360
912.405	16223
912.519	16440
912.633	16508
912.748	16325
912.862	16257
912.976	16090
913.09	15964
913.204	16074
913.318	16173
913.431	16219
913.545	16147
913.659	16211
913.772	16040
913.886	15987
914	15876
914.113	15994
914.226	16036
914.34	15983
914.453	15857
914.566	15880
914.68	15793
914.793	15812
914.906	15618
915.019	15511
915.132	15523
915.245	15477
915.358	15534
915.47	15523
915.583	15568
915.696	15625
915.809	15701
915.921	15511
916.034	15477
916.146	15420
916.259	15302
916.371	15462
916.483	15340
916.595	15272
916.708	15405
916.82	15222
916.932	15306
917.044	15336
917.156	15241
917.268	15112
917.38	15180
917.491	15032
917.603	15169
917.715	15272
917.826	15260
917.938	15051
918.049	15039
918.161	15039
918.272	15214
918.384	15306
918.495	15112
918.606	14948
918.717	14781
918.828	15013
918.939	14887
919.05	14785
919.161	14834
919.272	14697
919.383	14746
919.494	14899
919.604	15131
919.715	14800
919.826	14830
919.936	14826
920.047	14895
920.157	14857
920.267	14998
920.378	14792
920.488	14807
920.598	15005
920.708	15218
920.818	15039
920.928	14971
921.038	15074
921.148	14967
921.258	14857
921.368	14670
921.477	14629
921.587	14492
921.697	14476
921.806	14556
921.916	14358
922.025	14183
922.134	14248
922.244	14096
922.353	14282
922.462	14123
922.571	14008
922.68	13944
922.789	13811
922.898	13860
923.007	13837
923.116	13871
923.224	13906
923.333	13757
923.442	13712
923.55	13696
923.659	13788
923.767	13655
923.876	13662
923.984	13704
924.092	13537
924.201	13559
924.309	13575
924.417	13552
924.525	13499
924.633	13537
924.741	14465
924.849	13312
924.956	13365
925.064	13301
925.172	13270
925.279	13266
925.387	13236
925.494	13270
925.602	13415
925.709	13282
925.816	13221
925.924	13156
926.031	13228
926.138	13209
926.245	13225
926.352	13057
926.459	13259
926.566	13362
926.673	13076
926.779	12954
926.886	12943
926.993	12962
927.099	12894
927.206	12806
927.312	12700
927.419	12875
927.525	12791
927.631	12825
927.737	12745
927.843	12646
927.95	12547
928.056	12589
928.162	12642
928.267	12684
928.373	13259
928.479	12677
928.585	12483
928.69	12563
928.796	12574
928.901	12506
929.007	12289
929.112	12490
929.218	12460
929.323	12407
929.428	12376
929.533	12471
929.638	12304
929.743	12300
929.848	12395
929.953	12235
930.058	12178
930.163	12087
930.267	12076
930.372	12171
930.477	11950
930.581	12254
930.685	12072
930.79	11973
930.894	11927
930.998	11874
931.103	12026
931.207	11642
931.311	11585
931.415	11524
931.519	11277
931.623	11273
