Data from test_V78500241_256.txt Node
Date: Fri Mar 25 15:11:38 CST 2022
User: usil
Spectrometer: V785-0024
Trigger mode: 0
Integration Time (sec): 4.000000E-1
Scans to average: 1
Nonlinearity correction enabled: false
Boxcar width: 0
Storing dark spectrum: false
XAxis mode: Wavelengths
Number of Pixels in Spectrum: 1024
>>>>>Begin Spectral Data<<<<<
801.071	28230
801.214	28249
801.356	28051
801.499	27968
801.641	27842
801.783	27808
801.926	27907
802.068	27835
802.211	27842
802.353	27781
802.496	27553
802.638	27580
802.78	27545
802.923	27431
803.065	27450
803.208	27412
803.35	27599
803.492	27614
803.635	27759
803.777	27610
803.919	27728
804.061	27903
804.204	27603
804.346	27671
804.488	27462
804.63	27732
804.773	27408
804.915	27633
805.057	27732
805.199	27728
805.341	27625
805.483	27686
805.626	27873
805.768	27663
805.91	27797
806.052	27690
806.194	27595
806.336	27884
806.478	27793
806.62	27599
806.762	27816
806.904	27964
807.046	28341
807.188	28147
807.33	28166
807.472	28257
807.614	28097
807.756	28078
807.898	28048
808.04	28074
808.182	27998
808.324	27918
808.465	28074
808.607	28226
808.749	28287
808.891	28432
809.033	28626
809.174	28451
809.316	28318
809.458	28234
809.6	28440
809.741	28436
809.883	28394
810.025	28535
810.166	28649
810.308	28554
810.45	28489
810.591	28481
810.733	28303
810.875	28322
811.016	28261
811.158	28188
811.299	28394
811.441	28512
811.582	28398
811.724	28215
811.865	28238
812.007	28234
812.148	28287
812.29	28379
812.431	28360
812.573	28557
812.714	28698
812.855	28744
812.997	28782
813.138	28968
813.279	28927
813.421	28923
813.562	28873
813.703	28698
813.845	28550
813.986	28337
814.127	28078
814.268	27937
814.41	28040
814.551	27918
814.692	27964
814.833	27850
814.974	27869
815.115	27983
815.256	27827
815.397	27930
815.539	27914
815.68	27804
815.821	27663
815.962	27808
816.103	27800
816.244	27732
816.385	27675
816.526	27485
816.666	27427
816.807	27131
816.948	27291
817.089	27233
817.23	27150
817.371	27207
817.512	27237
817.653	27108
817.793	27043
817.934	27112
818.075	27203
818.216	27241
818.356	27218
818.497	27009
818.638	26853
818.778	26876
818.919	26883
819.06	26982
819.2	27051
819.341	27112
819.481	27146
819.622	27100
819.762	27355
819.903	27405
820.043	27211
820.184	27135
820.324	27218
820.465	27275
820.605	27294
820.746	27161
820.886	27093
821.026	27135
821.167	27135
821.307	27374
821.447	27188
821.588	27138
821.728	26853
821.868	26838
822.008	26590
822.149	26682
822.289	26549
822.429	26252
822.569	26248
822.709	26202
822.849	26111
822.99	26016
823.13	26092
823.27	25951
823.41	25932
823.55	25803
823.69	25837
823.83	25913
823.97	25757
824.11	25563
824.25	25651
824.389	25582
824.529	25681
824.669	25742
824.809	25814
824.949	25723
825.089	25689
825.228	25681
825.368	25567
825.508	25514
825.648	25491
825.787	25590
825.927	25613
826.067	25449
826.206	25464
826.346	25525
826.485	25655
826.625	25540
826.765	25609
826.904	25457
827.044	25259
827.183	25320
827.323	25137
827.462	25171
827.601	25270
827.741	25289
827.88	25327
828.02	25099
828.159	25190
828.298	25202
828.437	25183
828.577	25095
828.716	25339
828.855	25164
828.994	24905
829.134	24833
829.273	24848
829.412	24875
829.551	24859
829.69	24821
829.829	24981
829.968	24935
830.107	24951
830.246	24886
830.385	24867
830.524	24776
830.663	24779
830.802	24505
830.941	24376
831.08	24407
831.219	24547
831.357	24505
831.496	24764
831.635	24582
831.774	24471
831.913	24395
832.051	24403
832.19	24239
832.329	24292
832.467	24213
832.606	24205
832.744	24087
832.883	24209
833.022	24102
833.16	24209
833.299	24224
833.437	24167
833.576	24357
833.714	24228
833.852	24201
833.991	24262
834.129	24334
834.267	24239
834.406	24216
834.544	24159
834.682	24239
834.821	24201
834.959	24395
835.097	24209
835.235	24129
835.373	24247
835.511	24083
835.65	23958
835.788	24053
835.926	23817
836.064	23817
836.202	23790
836.34	23931
836.478	24068
836.615	23939
836.753	23961
836.891	24178
837.029	23973
837.167	23965
837.305	23908
837.443	23923
837.58	23889
837.718	23954
837.856	23855
837.993	23748
838.131	23821
838.269	23722
838.406	23821
838.544	23623
838.681	23551
838.819	23531
838.956	23315
839.094	23379
839.231	23315
839.369	23528
839.506	23707
839.643	23577
839.781	23197
839.918	23178
840.055	23334
840.193	23273
840.33	23200
840.467	23303
840.604	23250
840.742	23467
840.879	23071
841.016	23109
841.153	23083
841.29	23341
841.427	23223
841.564	23044
841.701	23159
841.838	23185
841.975	23025
842.112	23037
842.249	22938
842.385	22991
842.522	23143
842.659	22976
842.796	22904
842.933	22999
843.069	22911
843.206	22828
843.343	22934
843.479	22881
843.616	22896
843.752	22683
843.889	22774
844.025	22934
844.162	22668
844.298	22683
844.435	22710
844.571	22713
844.708	22740
844.844	22820
844.98	22831
845.117	22782
845.253	22767
845.389	22649
845.525	22596
845.661	22554
845.798	22333
845.934	22516
846.07	22405
846.206	22398
846.342	22550
846.478	22268
846.614	22196
846.75	22086
846.886	22059
847.022	22226
847.158	22215
847.294	22173
847.429	22078
847.565	22055
847.701	22470
847.837	21827
847.972	21797
848.108	21842
848.244	21991
848.379	21854
848.515	21766
848.65	21698
848.786	21774
848.921	21747
849.057	21861
849.192	21728
849.328	21854
849.463	21743
849.598	21576
849.734	21629
849.869	21587
850.004	21564
850.14	21492
850.275	21450
850.41	21393
850.545	21428
850.68	21447
850.815	21469
850.95	21454
851.085	21656
851.22	21492
851.355	21447
851.49	21488
851.625	21431
851.76	21416
851.895	21321
852.03	21344
852.165	21473
852.299	21526
852.434	21443
852.569	21519
852.703	21374
852.838	21530
852.973	21549
853.107	21644
853.242	21382
853.376	21393
853.511	21047
853.645	21272
853.78	21435
853.914	21249
854.048	21264
854.183	21279
854.317	21329
854.451	21511
854.585	21260
854.72	21233
854.854	21325
854.988	21169
855.122	21302
855.256	21039
855.39	21279
855.524	21275
855.658	21226
855.792	21306
855.926	21317
856.06	21230
856.194	21306
856.327	21397
856.461	21211
856.595	21230
856.729	21233
856.862	21405
856.996	21340
857.13	21332
857.263	21389
857.397	21325
857.53	21222
857.664	21218
857.797	21302
857.931	21325
858.064	21260
858.197	21450
858.331	21249
858.464	21199
858.597	21070
858.731	21169
858.864	21195
858.997	21089
859.13	21397
859.263	21336
859.396	21256
859.529	21367
859.662	21184
859.795	21222
859.928	21222
860.061	21348
860.194	21477
860.327	21275
860.46	21302
860.592	21382
860.725	21348
860.858	21329
860.99	21317
861.123	21066
861.256	21150
861.388	21287
861.521	21892
861.653	21077
861.786	21036
861.918	21074
862.05	21203
862.183	21104
862.315	21180
862.447	21351
862.58	21176
862.712	21085
862.844	20880
862.976	21001
863.108	21058
863.24	21363
863.372	20811
863.504	21001
863.636	20906
863.768	21009
863.9	20933
864.032	20899
864.164	20853
864.296	20982
864.428	20975
864.559	20918
864.691	21032
864.823	20994
864.954	20876
865.086	21028
865.217	20975
865.349	20705
865.48	20788
865.612	20902
865.743	20979
865.875	20887
866.006	20823
866.137	20773
866.269	20868
866.4	20891
866.531	20826
866.662	20750
866.793	20731
866.924	20705
867.055	20895
867.186	20750
867.317	20705
867.448	20617
867.579	20735
867.71	20705
867.841	20625
867.972	20804
868.103	20883
868.233	20819
868.364	20701
868.495	20971
868.625	20971
868.756	21070
868.886	20971
869.017	20925
869.147	21085
869.278	21039
869.408	21127
869.539	21024
869.669	21123
869.799	21043
869.929	21127
870.06	21085
870.19	21321
870.32	21146
870.45	21367
870.58	21378
870.71	21561
870.84	21481
870.97	21370
871.1	21401
871.23	21488
871.36	21572
871.489	21481
871.619	21511
871.749	21523
871.879	21671
872.008	21751
872.138	21435
872.267	21618
872.397	21431
872.526	21439
872.656	21351
872.785	21504
872.915	21545
873.044	21709
873.173	21614
873.303	21667
873.432	21599
873.561	21675
873.69	21576
873.819	21595
873.948	21736
874.077	21572
874.206	21637
874.335	21671
874.464	21671
874.593	21865
874.722	21827
874.851	21960
874.979	21835
875.108	21941
875.237	21751
875.365	21823
875.494	21816
875.623	21884
875.751	21766
875.88	21907
876.008	21892
876.136	22097
876.265	22207
876.393	22421
876.521	22211
876.65	22303
876.778	22287
876.906	22261
877.034	22147
877.162	22341
877.29	22078
877.418	22074
877.546	22124
877.674	22192
877.802	22295
877.93	22185
878.058	22139
878.185	22207
878.313	22112
878.441	22230
878.568	22177
878.696	22147
878.824	22207
878.951	22337
879.079	22405
879.206	22493
879.333	22413
879.461	22249
879.588	22242
879.715	22421
879.842	22413
879.97	22211
880.097	22002
880.224	22036
880.351	22124
880.478	22086
880.605	22040
880.732	21972
880.859	22242
880.986	22051
881.112	22017
881.239	21865
881.366	21724
881.493	21698
881.619	21701
881.746	21553
881.872	21549
881.999	21686
882.125	21454
882.252	21568
882.378	21523
882.505	21709
882.631	21545
882.757	21310
882.883	21500
883.01	21306
883.136	21313
883.262	21150
883.388	21127
883.514	21188
883.64	21447
883.766	21283
883.892	21154
884.018	21058
884.143	21329
884.269	21329
884.395	21055
884.52	21009
884.646	20921
884.772	20853
884.897	20864
885.023	20933
885.148	21127
885.274	21055
885.399	20982
885.524	20956
885.65	20941
885.775	21017
885.9	21013
886.025	21024
886.15	20887
886.275	20815
886.4	20872
886.525	20906
886.65	20880
886.775	20830
886.9	21009
887.025	21127
887.149	20963
887.274	20689
887.399	20667
887.523	20678
887.648	20819
887.773	20632
887.897	20735
888.021	20746
888.146	20705
888.27	20750
888.395	20823
888.519	20743
888.643	20651
888.767	20708
888.891	20560
889.015	20484
889.139	20530
889.263	20514
889.387	20579
889.511	20750
889.635	20564
889.759	20507
889.883	20408
890.006	20465
890.13	20522
890.254	20495
890.377	20473
890.501	20221
890.624	20225
890.748	20259
890.871	20115
890.995	20088
891.118	20081
891.241	20084
891.364	20084
891.488	20187
891.611	20081
891.734	20191
891.857	20191
891.98	20111
892.103	20115
892.226	20024
892.349	19982
892.471	19879
892.594	20001
892.717	20005
892.839	20050
892.962	20020
893.085	20195
893.207	20008
893.33	19909
893.452	19883
893.575	20054
893.697	19970
893.819	20164
893.941	20180
894.064	20073
894.186	19871
894.308	19951
894.43	20062
894.552	20180
894.674	20100
894.796	19799
894.918	19864
895.04	19970
895.161	20073
895.283	19974
895.405	19909
895.526	19947
895.648	19989
895.769	19959
895.891	20016
896.012	20077
896.134	19989
896.255	20001
896.376	19959
896.498	20005
896.619	19986
896.74	19936
896.861	20062
896.982	20313
897.103	20450
897.224	20355
897.345	20111
897.466	20065
897.587	20111
897.708	20374
897.828	20301
897.949	20214
898.07	20046
898.19	20100
898.311	20282
898.431	20111
898.552	20275
898.672	20305
898.792	20267
898.913	20187
899.033	20062
899.153	20031
899.273	19860
899.393	19921
899.513	19925
899.633	19902
899.753	19841
899.873	19871
899.993	19909
900.113	19845
900.232	19852
900.352	19887
900.472	19655
900.591	19696
900.711	19662
900.83	19677
900.95	19883
901.069	19742
901.189	19655
901.308	19358
901.427	19289
901.546	19297
901.665	19266
901.784	19343
901.904	19133
902.023	19072
902.141	18882
902.26	18867
902.379	18916
902.498	18810
902.617	18707
902.735	18856
902.854	18707
902.973	18757
903.091	18544
903.21	18517
903.328	18429
903.446	18258
903.565	18228
903.683	18171
903.801	18194
903.919	18232
904.038	18194
904.156	18045
904.274	18087
904.392	18007
904.51	17904
904.627	17980
904.745	17973
904.863	18068
904.981	17863
905.098	17710
905.216	17779
905.334	17699
905.451	17687
905.569	17634
905.686	17737
905.803	17638
905.921	17448
906.038	17573
906.155	17604
906.272	17459
906.389	17436
906.506	17189
906.623	17185
906.74	17269
906.857	17079
906.974	17151
907.091	17433
907.208	17410
907.324	17307
907.441	17212
907.557	17006
907.674	16980
907.79	16869
907.907	16927
908.023	16816
908.139	16900
908.256	16900
908.372	16881
908.488	16847
908.604	16702
908.72	16561
908.836	16687
908.952	16607
909.068	16687
909.184	16786
909.3	16694
909.415	16706
909.531	16596
909.647	16382
909.762	16207
909.878	16356
909.993	16303
910.108	16306
910.224	16344
910.339	16371
910.454	16211
910.57	16150
910.685	16135
910.8	16295
910.915	16253
911.03	16097
911.145	16055
911.259	15915
911.374	15823
911.489	15926
911.604	15720
911.718	15709
911.833	15587
911.947	15542
912.062	15477
912.176	15568
912.291	15686
912.405	15698
912.519	15888
912.633	15857
912.748	15694
912.862	15576
912.976	15477
913.09	15397
913.204	15428
913.318	15542
913.431	15637
913.545	15606
913.659	15580
913.772	15389
913.886	15325
914	15294
914.113	15279
914.226	15370
914.34	15351
914.453	15230
914.566	15348
914.68	15252
914.793	15252
914.906	14990
915.019	14910
915.132	14929
915.245	14941
915.358	14937
915.47	14960
915.583	14914
915.696	14975
915.809	14994
915.921	15081
916.034	14887
916.146	14777
916.259	14845
916.371	14861
916.483	14830
916.595	14724
916.708	14773
916.82	14857
916.932	14727
917.044	14648
917.156	14705
917.268	14590
917.38	14575
917.491	14507
917.603	14659
917.715	14575
917.826	14697
917.938	14556
918.049	14423
918.161	14461
918.272	14769
918.384	14579
918.495	14545
918.606	14370
918.717	14187
918.828	14370
918.939	14305
919.05	14191
919.161	14332
919.272	14138
919.383	14100
919.494	14427
919.604	14590
919.715	14362
919.826	14199
919.936	14256
920.047	14362
920.157	14278
920.267	14511
920.378	14377
920.488	14164
920.598	14427
920.708	14579
920.818	14381
920.928	14370
921.038	14636
921.148	14533
921.258	14301
921.368	14119
921.477	14081
921.587	14039
921.697	13955
921.806	13967
921.916	13856
922.025	13784
922.134	13601
922.244	13632
922.353	13662
922.462	13559
922.571	13411
922.68	13327
922.789	13384
922.898	13282
923.007	13228
923.116	13278
923.224	13331
923.333	13232
923.442	13110
923.55	13107
923.659	13129
923.767	13225
923.876	13084
923.984	13179
924.092	13004
924.201	13065
924.309	13023
924.417	13042
924.525	12970
924.633	12939
924.741	13871
924.849	12817
924.956	12901
925.064	12772
925.172	12681
925.279	12677
925.387	12760
925.494	12764
925.602	12791
925.709	12700
925.816	12677
925.924	12612
926.031	12692
926.138	12700
926.245	12662
926.352	12585
926.459	12707
926.566	12772
926.673	12677
926.779	12418
926.886	12437
926.993	12262
927.099	12334
927.206	12270
927.312	12289
927.419	12395
927.525	12289
927.631	12319
927.737	12232
927.843	12110
927.95	12083
928.056	12155
928.162	12159
928.267	12175
928.373	12642
928.479	12175
928.585	11992
928.69	12117
928.796	12129
928.901	11992
929.007	11923
929.112	11931
929.218	11961
929.323	11885
929.428	11920
929.533	12022
929.638	11760
929.743	11847
929.848	11840
929.953	11756
930.058	11714
930.163	11490
930.267	11524
930.372	11661
930.477	11524
930.581	11760
930.685	11554
930.79	11395
930.894	11493
930.998	11402
931.103	11493
931.207	11147
931.311	11079
931.415	11022
931.519	10828
931.623	10797
