Data from test_V78500241_2015.txt Node
Date: Fri Mar 25 15:23:53 CST 2022
User: usil
Spectrometer: V785-0024
Trigger mode: 0
Integration Time (sec): 4.000000E-1
Scans to average: 1
Nonlinearity correction enabled: false
Boxcar width: 0
Storing dark spectrum: false
XAxis mode: Wavelengths
Number of Pixels in Spectrum: 1024
>>>>>Begin Spectral Data<<<<<
801.071	27720
801.214	27709
801.356	27435
801.499	27424
801.641	27469
801.783	27336
801.926	27336
802.068	27275
802.211	27207
802.353	27173
802.496	27108
802.638	26952
802.78	26960
802.923	26948
803.065	26868
803.208	26754
803.35	26948
803.492	26952
803.635	27066
803.777	27123
803.919	27275
804.061	27572
804.204	27245
804.346	27043
804.488	27074
804.63	27199
804.773	27150
804.915	27245
805.057	27245
805.199	27207
805.341	27393
805.483	27340
805.626	27233
805.768	27207
805.91	27291
806.052	27401
806.194	27150
806.336	27374
806.478	27283
806.62	27195
806.762	27538
806.904	27583
807.046	27816
807.188	27648
807.33	27625
807.472	27736
807.614	27583
807.756	27599
807.898	27469
808.04	27523
808.182	27526
808.324	27625
808.465	27545
808.607	27728
808.749	27914
808.891	27918
809.033	27937
809.174	27892
809.316	27964
809.458	27800
809.6	27888
809.741	27964
809.883	27949
810.025	28211
810.166	28268
810.308	28318
810.45	28124
810.591	28078
810.733	27903
810.875	27831
811.016	27709
811.158	27736
811.299	27914
811.441	27876
811.582	28048
811.724	27892
811.865	28006
812.007	27804
812.148	27800
812.29	27781
812.431	28116
812.573	28101
812.714	28329
812.855	28398
812.997	28466
813.138	28637
813.279	28508
813.421	28363
813.562	28291
813.703	28360
813.845	28169
813.986	27914
814.127	27709
814.268	27660
814.41	27701
814.551	27603
814.692	27606
814.833	27450
814.974	27637
815.115	27572
815.256	27485
815.397	27370
815.539	27466
815.68	27344
815.821	27302
815.962	27355
816.103	27291
816.244	27294
816.385	27104
816.526	27047
816.666	27066
816.807	26788
816.948	26990
817.089	26994
817.23	26933
817.371	26895
817.512	26891
817.653	26937
817.793	26872
817.934	26872
818.075	26982
818.216	26804
818.356	26826
818.497	26788
818.638	26560
818.778	26568
818.919	26488
819.06	26526
819.2	26705
819.341	26826
819.481	26743
819.622	26910
819.762	27150
819.903	27123
820.043	27085
820.184	26883
820.324	26956
820.465	27013
820.605	26918
820.746	26948
820.886	26800
821.026	26830
821.167	26906
821.307	27005
821.447	26773
821.588	26838
821.728	26640
821.868	26541
822.008	26324
822.149	26309
822.289	26301
822.429	26096
822.569	26100
822.709	26088
822.849	25719
822.99	25803
823.13	25795
823.27	25723
823.41	25666
823.55	25556
823.69	25693
823.83	25594
823.97	25590
824.11	25460
824.25	25495
824.389	25518
824.529	25658
824.669	25483
824.809	25544
824.949	25651
825.089	25537
825.228	25594
825.368	25312
825.508	25369
825.648	25362
825.787	25381
825.927	25350
826.067	25308
826.206	25304
826.346	25282
826.485	25430
826.625	25320
826.765	25419
826.904	25282
827.044	25050
827.183	25175
827.323	25118
827.462	25065
827.601	25088
827.741	25031
827.88	25103
828.02	24806
828.159	24992
828.298	24989
828.437	25126
828.577	24973
828.716	25217
828.855	24947
828.994	24783
829.134	24825
829.273	24711
829.412	24711
829.551	24673
829.69	24795
829.829	24905
829.968	24817
830.107	24825
830.246	24707
830.385	24589
830.524	24684
830.663	24540
830.802	24555
830.941	24296
831.08	24361
831.219	24414
831.357	24418
831.496	24490
831.635	24369
831.774	24361
831.913	24330
832.051	24133
832.19	24136
832.329	24022
832.467	23942
832.606	24072
832.744	23988
832.883	24072
833.022	24087
833.16	24003
833.299	24003
833.437	24068
833.576	24155
833.714	24129
833.852	24163
833.991	24285
834.129	24190
834.267	24064
834.406	24106
834.544	24194
834.682	24163
834.821	24136
834.959	24277
835.097	24003
835.235	24133
835.373	24079
835.511	24045
835.65	23889
835.788	23984
835.926	23824
836.064	23748
836.202	23821
836.34	23901
836.478	24136
836.615	23927
836.753	24007
836.891	23977
837.029	23923
837.167	23901
837.305	23889
837.443	23847
837.58	23786
837.718	23802
837.856	23703
837.993	23642
838.131	23729
838.269	23680
838.406	23661
838.544	23657
838.681	23505
838.819	23463
838.956	23246
839.094	23311
839.231	23353
839.369	23379
839.506	23543
839.643	23539
839.781	23178
839.918	23178
840.055	23231
840.193	23330
840.33	23197
840.467	23181
840.604	23079
840.742	23455
840.879	23022
841.016	23105
841.153	23003
841.29	23280
841.427	23083
841.564	23197
841.701	23181
841.838	22957
841.975	22972
842.112	23025
842.249	23041
842.385	22831
842.522	23113
842.659	22877
842.796	22923
842.933	22923
843.069	22930
843.206	22877
843.343	23025
843.479	22877
843.616	22927
843.752	22755
843.889	22885
844.025	22805
844.162	22653
844.298	22771
844.435	22740
844.571	22740
844.708	22771
844.844	22869
844.98	22793
845.117	22782
845.253	22733
845.389	22584
845.525	22683
845.661	22493
845.798	22382
845.934	22500
846.07	22440
846.206	22462
846.342	22485
846.478	22531
846.614	22166
846.75	22177
846.886	22200
847.022	22238
847.158	22219
847.294	22158
847.429	22253
847.565	22139
847.701	22440
847.837	21865
847.972	21800
848.108	22021
848.244	21956
848.379	21800
848.515	21781
848.65	21694
848.786	21724
848.921	21808
849.057	21873
849.192	21846
849.328	21751
849.463	21739
849.598	21610
849.734	21568
849.869	21576
850.004	21633
850.14	21488
850.275	21378
850.41	21523
850.545	21591
850.68	21545
850.815	21553
850.95	21542
851.085	21622
851.22	21576
851.355	21412
851.49	21477
851.625	21477
851.76	21466
851.895	21500
852.03	21504
852.165	21458
852.299	21500
852.434	21583
852.569	21572
852.703	21515
852.838	21511
852.973	21583
853.107	21496
853.242	21386
853.376	21256
853.511	21211
853.645	21325
853.78	21477
853.914	21268
854.048	21298
854.183	21302
854.317	21363
854.451	21401
854.585	21306
854.72	21351
854.854	21370
854.988	21214
855.122	21298
855.256	21203
855.39	21188
855.524	21466
855.658	21306
855.792	21393
855.926	21363
856.06	21382
856.194	21469
856.327	21237
856.461	21256
856.595	21218
856.729	21332
856.862	21549
856.996	21340
857.13	21355
857.263	21454
857.397	21450
857.53	21382
857.664	21302
857.797	21348
857.931	21401
858.064	21332
858.197	21454
858.331	21283
858.464	21245
858.597	21249
858.731	21291
858.864	21195
858.997	21344
859.13	21393
859.263	21416
859.396	21523
859.529	21382
859.662	21329
859.795	21233
859.928	21412
860.061	21496
860.194	21500
860.327	21405
860.46	21344
860.592	21443
860.725	21511
860.858	21511
860.99	21294
861.123	21275
861.256	21298
861.388	21374
861.521	21842
861.653	21222
861.786	21123
861.918	21127
862.05	21131
862.183	21222
862.315	21237
862.447	21363
862.58	21310
862.712	21062
862.844	20914
862.976	21104
863.108	21047
863.24	21386
863.372	21051
863.504	20994
863.636	21001
863.768	21154
863.9	21096
864.032	21077
864.164	21089
864.296	20982
864.428	21184
864.559	21104
864.691	21154
864.823	20975
864.954	20975
865.086	21009
865.217	20883
865.349	20895
865.48	20948
865.612	20883
865.743	21108
865.875	20842
866.006	20883
866.137	21005
866.269	20895
866.4	20899
866.531	21036
866.662	20777
866.793	20861
866.924	20830
867.055	20883
867.186	20830
867.317	20899
867.448	20762
867.579	20857
867.71	20674
867.841	20838
867.972	20864
868.103	20891
868.233	20876
868.364	20853
868.495	20998
868.625	21089
868.756	21089
868.886	21066
869.017	21173
869.147	21237
869.278	21176
869.408	21256
869.539	21230
869.669	21116
869.799	21070
869.929	21161
870.06	21214
870.19	21378
870.32	21363
870.45	21462
870.58	21496
870.71	21496
870.84	21648
870.97	21435
871.1	21481
871.23	21705
871.36	21713
871.489	21549
871.619	21648
871.749	21679
871.879	21781
872.008	21911
872.138	21789
872.267	21701
872.397	21595
872.526	21576
872.656	21572
872.785	21663
872.915	21644
873.044	21774
873.173	21724
873.303	21778
873.432	21774
873.561	21831
873.69	21789
873.819	21660
873.948	21755
874.077	21823
874.206	21736
874.335	21774
874.464	21766
874.593	21998
874.722	21972
874.851	22010
874.979	21930
875.108	22078
875.237	21937
875.365	21759
875.494	21793
875.623	22040
875.751	21899
875.88	22025
876.008	22124
876.136	22192
876.265	22314
876.393	22538
876.521	22428
876.65	22371
876.778	22424
876.906	22242
877.034	22177
877.162	22360
877.29	22215
877.418	22424
877.546	22390
877.674	22291
877.802	22226
877.93	22367
878.058	22181
878.185	22124
878.313	22257
878.441	22261
878.568	22204
878.696	22211
878.824	22360
878.951	22367
879.079	22542
879.206	22649
879.333	22363
879.461	22284
879.588	22356
879.715	22405
879.842	22630
879.97	22318
880.097	22143
880.224	22154
880.351	22162
880.478	22150
880.605	22051
880.732	22086
880.859	22390
880.986	22048
881.112	22109
881.239	22059
881.366	21884
881.493	21892
881.619	21675
881.746	21679
881.872	21641
881.999	21717
882.125	21625
882.252	21804
882.378	21701
882.505	21618
882.631	21526
882.757	21374
882.883	21405
883.01	21374
883.136	21252
883.262	21321
883.388	21291
883.514	21401
883.64	21321
883.766	21389
883.892	21108
884.018	21142
884.143	21313
884.269	21408
884.395	21058
884.52	20986
884.646	21142
884.772	21051
884.897	20990
885.023	20952
885.148	21150
885.274	21302
885.399	21188
885.524	20994
885.65	21127
885.775	21032
885.9	20994
886.025	21332
886.15	21116
886.275	20861
886.4	20948
886.525	21001
886.65	21001
886.775	20956
886.9	21047
887.025	21150
887.149	21039
887.274	20758
887.399	20815
887.523	20750
887.648	20712
887.773	20758
887.897	20853
888.021	20815
888.146	20693
888.27	20941
888.395	20830
888.519	20834
888.643	20796
888.767	20861
888.891	20762
889.015	20667
889.139	20583
889.263	20575
889.387	20720
889.511	20777
889.635	20826
889.759	20674
889.883	20617
890.006	20598
890.13	20807
890.254	20362
890.377	20454
890.501	20381
890.624	20336
890.748	20366
890.871	20355
890.995	20164
891.118	20065
891.241	20225
891.364	20313
891.488	20366
891.611	20176
891.734	20191
891.857	20305
891.98	20221
892.103	20191
892.226	20157
892.349	19955
892.471	19917
892.594	20145
892.717	20005
892.839	20073
892.962	20153
893.085	20195
893.207	20088
893.33	19932
893.452	20062
893.575	20103
893.697	20103
893.819	20111
893.941	20229
894.064	20237
894.186	19955
894.308	20092
894.43	20176
894.552	20275
894.674	20073
894.796	19947
894.918	19967
895.04	19970
895.161	20134
895.283	20103
895.405	19967
895.526	20130
895.648	20027
895.769	20088
895.891	20012
896.012	20142
896.134	20233
896.255	20031
896.376	20058
896.498	20081
896.619	20077
896.74	20077
896.861	20187
896.982	20377
897.103	20526
897.224	20336
897.345	20313
897.466	20153
897.587	20233
897.708	20423
897.828	20301
897.949	20309
898.07	20195
898.19	20233
898.311	20419
898.431	20126
898.552	20233
898.672	20301
898.792	20328
898.913	20358
899.033	20119
899.153	20145
899.273	20073
899.393	20100
899.513	20164
899.633	20084
899.753	20065
899.873	20058
899.993	19947
900.113	20027
900.232	20001
900.352	19898
900.472	19944
900.591	19696
900.711	19788
900.83	19830
900.95	19917
901.069	19803
901.189	19639
901.308	19453
901.427	19381
901.546	19434
901.665	19274
901.784	19430
901.904	19190
902.023	19164
902.141	19019
902.26	18939
902.379	19027
902.498	18935
902.617	18924
902.735	18928
902.854	18913
902.973	18730
903.091	18623
903.21	18696
903.328	18521
903.446	18540
903.565	18452
903.683	18422
903.801	18228
903.919	18369
904.038	18304
904.156	18243
904.274	18258
904.392	18171
904.51	18155
904.627	18167
904.745	18228
904.863	18220
904.981	17950
905.098	17786
905.216	17969
905.334	17836
905.451	17942
905.569	17828
905.686	17908
905.803	17794
905.921	17653
906.038	17722
906.155	17665
906.272	17570
906.389	17528
906.506	17364
906.623	17383
906.74	17299
906.857	17284
906.974	17315
907.091	17455
907.208	17414
907.324	17436
907.441	17258
907.557	17094
907.674	17090
907.79	17029
907.907	16995
908.023	17155
908.139	17094
908.256	17102
908.372	16980
908.488	16911
908.604	16850
908.72	16774
908.836	16885
908.952	16850
909.068	16900
909.184	16938
909.3	16835
909.415	16938
909.531	16828
909.647	16740
909.762	16527
909.878	16542
909.993	16596
910.108	16588
910.224	16436
910.339	16424
910.454	16531
910.57	16356
910.685	16303
910.8	16413
910.915	16455
911.03	16375
911.145	16211
911.259	16131
911.374	16116
911.489	16017
911.604	16071
911.718	15949
911.833	15915
911.947	15774
912.062	15732
912.176	15895
912.291	15945
912.405	15903
912.519	16063
912.633	16013
912.748	15899
912.862	15892
912.976	15823
913.09	15644
913.204	15736
913.318	15701
913.431	15781
913.545	15755
913.659	15785
913.772	15679
913.886	15458
914	15519
914.113	15526
914.226	15637
914.34	15584
914.453	15428
914.566	15629
914.68	15393
914.793	15370
914.906	15226
915.019	15108
915.132	15131
915.245	15138
915.358	15100
915.47	15097
915.583	15176
915.696	15146
915.809	15195
915.921	15260
916.034	15085
916.146	14971
916.259	14895
916.371	15100
916.483	15070
916.595	14925
916.708	14986
916.82	14880
916.932	14895
917.044	14883
917.156	14906
917.268	14735
917.38	14777
917.491	14807
917.603	14819
917.715	14769
917.826	14842
917.938	14758
918.049	14549
918.161	14746
918.272	14834
918.384	14842
918.495	14716
918.606	14503
918.717	14488
918.828	14499
918.939	14568
919.05	14480
919.161	14492
919.272	14195
919.383	14434
919.494	14461
919.604	14777
919.715	14549
919.826	14446
919.936	14454
920.047	14507
920.157	14625
920.267	14667
920.378	14507
920.488	14454
920.598	14686
920.708	14750
920.818	14708
920.928	14617
921.038	14777
921.148	14785
921.258	14396
921.368	14385
921.477	14210
921.587	14195
921.697	14134
921.806	14138
921.916	14046
922.025	13940
922.134	13963
922.244	13830
922.353	13875
922.462	13753
922.571	13620
922.68	13578
922.789	13487
922.898	13529
923.007	13533
923.116	13453
923.224	13525
923.333	13586
923.442	13312
923.55	13324
923.659	13304
923.767	13445
923.876	13183
923.984	13362
924.092	13187
924.201	13308
924.309	13232
924.417	13266
924.525	13202
924.633	13232
924.741	13913
924.849	12993
924.956	13122
925.064	12947
925.172	12772
925.279	12890
925.387	13046
925.494	12905
925.602	13042
925.709	12943
925.816	12810
925.924	12840
926.031	13034
926.138	12814
926.245	12935
926.352	12825
926.459	12996
926.566	12932
926.673	12783
926.779	12677
926.886	12738
926.993	12521
927.099	12494
927.206	12498
927.312	12464
927.419	12570
927.525	12486
927.631	12483
927.737	12407
927.843	12350
927.95	12262
928.056	12281
928.162	12399
928.267	12395
928.373	13031
928.479	12445
928.585	12098
928.69	12213
928.796	12273
928.901	12121
929.007	11977
929.112	12194
929.218	12136
929.323	12034
929.428	12072
929.533	12216
929.638	11992
929.743	11961
929.848	12068
929.953	12003
930.058	11950
930.163	11748
930.267	11695
930.372	11901
930.477	11729
930.581	11984
930.685	11821
930.79	11623
930.894	11729
930.998	11577
931.103	11718
931.207	11379
931.311	11326
931.415	11178
931.519	11018
931.623	11060
