Data from test_V78500241_2113.txt Node
Date: Fri Mar 25 15:24:34 CST 2022
User: usil
Spectrometer: V785-0024
Trigger mode: 0
Integration Time (sec): 4.000000E-1
Scans to average: 1
Nonlinearity correction enabled: false
Boxcar width: 0
Storing dark spectrum: false
XAxis mode: Wavelengths
Number of Pixels in Spectrum: 1024
>>>>>Begin Spectral Data<<<<<
801.071	27812
801.214	27914
801.356	27682
801.499	27561
801.641	27401
801.783	27367
801.926	27553
802.068	27469
802.211	27389
802.353	27321
802.496	27203
802.638	27207
802.78	27077
802.923	27013
803.065	27009
803.208	26986
803.35	27058
803.492	27252
803.635	27374
803.777	27138
803.919	27313
804.061	27500
804.204	27291
804.346	27287
804.488	27188
804.63	27188
804.773	27211
804.915	27431
805.057	27336
805.199	27283
805.341	27329
805.483	27469
805.626	27401
805.768	27355
805.91	27458
806.052	27443
806.194	27416
806.336	27644
806.478	27302
806.62	27427
806.762	27519
806.904	27739
807.046	27842
807.188	27831
807.33	27876
807.472	27945
807.614	27808
807.756	27785
807.898	27816
808.04	27599
808.182	27614
808.324	27713
808.465	27827
808.607	27941
808.749	28082
808.891	28143
809.033	28295
809.174	28059
809.316	28044
809.458	27949
809.6	28040
809.741	28219
809.883	28166
810.025	28299
810.166	28303
810.308	28291
810.45	28219
810.591	28181
810.733	28010
810.875	28017
811.016	27899
811.158	27998
811.299	28215
811.441	28219
811.582	28234
811.724	28082
811.865	28013
812.007	27975
812.148	27983
812.29	27956
812.431	28219
812.573	28287
812.714	28325
812.855	28538
812.997	28649
813.138	28812
813.279	28668
813.421	28535
813.562	28405
813.703	28497
813.845	28223
813.986	28105
814.127	27778
814.268	27751
814.41	27835
814.551	27679
814.692	27812
814.833	27641
814.974	27644
815.115	27797
815.256	27572
815.397	27591
815.539	27694
815.68	27435
815.821	27386
815.962	27545
816.103	27306
816.244	27370
816.385	27310
816.526	27256
816.666	27001
816.807	27028
816.948	26998
817.089	27218
817.23	26998
817.371	27024
817.512	27112
817.653	27089
817.793	26918
817.934	27051
818.075	27100
818.216	27036
818.356	27070
818.497	26731
818.638	26777
818.778	26739
818.919	26769
819.06	26857
819.2	27051
819.341	27074
819.481	27024
819.622	27112
819.762	27416
819.903	27298
820.043	27245
820.184	27138
820.324	27142
820.465	27207
820.605	27119
820.746	27074
820.886	27070
821.026	27116
821.167	27043
821.307	27112
821.447	27085
821.588	26826
821.728	26940
821.868	26667
822.008	26499
822.149	26511
822.289	26457
822.429	26229
822.569	26180
822.709	26225
822.849	26065
822.99	25982
823.13	25947
823.27	25951
823.41	25814
823.55	25791
823.69	25822
823.83	25925
823.97	25788
824.11	25578
824.25	25506
824.389	25632
824.529	25685
824.669	25624
824.809	25750
824.949	25712
825.089	25731
825.228	25689
825.368	25578
825.508	25392
825.648	25270
825.787	25502
825.927	25605
826.067	25415
826.206	25430
826.346	25567
826.485	25563
826.625	25479
826.765	25563
826.904	25502
827.044	25346
827.183	25221
827.323	25304
827.462	25259
827.601	25209
827.741	25244
827.88	25206
828.02	25091
828.159	25297
828.298	25148
828.437	25301
828.577	25118
828.716	25365
828.855	25141
828.994	24951
829.134	24882
829.273	24867
829.412	24935
829.551	24791
829.69	24935
829.829	24844
829.968	24962
830.107	24989
830.246	24897
830.385	24798
830.524	24833
830.663	24715
830.802	24585
830.941	24566
831.08	24437
831.219	24582
831.357	24532
831.496	24684
831.635	24521
831.774	24380
831.913	24410
832.051	24243
832.19	24300
832.329	24254
832.467	24182
832.606	24060
832.744	24083
832.883	23992
833.022	23999
833.16	24216
833.299	24228
833.437	24353
833.576	24251
833.714	24171
833.852	24311
833.991	24235
834.129	24315
834.267	24315
834.406	24171
834.544	24300
834.682	24342
834.821	24129
834.959	24395
835.097	24133
835.235	24327
835.373	24136
835.511	24384
835.65	24064
835.788	24106
835.926	23999
836.064	24015
836.202	23863
836.34	23969
836.478	24129
836.615	24026
836.753	23969
836.891	24144
837.029	24076
837.167	24041
837.305	24117
837.443	23965
837.58	23893
837.718	24064
837.856	23870
837.993	23897
838.131	23863
838.269	23737
838.406	23798
838.544	23764
838.681	23657
838.819	23516
838.956	23349
839.094	23436
839.231	23486
839.369	23531
839.506	23855
839.643	23646
839.781	23417
839.918	23372
840.055	23467
840.193	23353
840.33	23280
840.467	23356
840.604	23296
840.742	23486
840.879	23151
841.016	23227
841.153	23075
841.29	23368
841.427	23311
841.564	23239
841.701	23223
841.838	23280
841.975	23166
842.112	23223
842.249	23254
842.385	23181
842.522	23288
842.659	23056
842.796	22938
842.933	22968
843.069	23025
843.206	22942
843.343	23159
843.479	23064
843.616	23006
843.752	22752
843.889	22900
844.025	22965
844.162	22850
844.298	22869
844.435	22793
844.571	22786
844.708	22877
844.844	22904
844.98	22892
845.117	22824
845.253	22767
845.389	22656
845.525	22668
845.661	22702
845.798	22656
845.934	22519
846.07	22459
846.206	22561
846.342	22573
846.478	22474
846.614	22470
846.75	22246
846.886	22276
847.022	22337
847.158	22318
847.294	22303
847.429	22360
847.565	22150
847.701	22451
847.837	22109
847.972	21983
848.108	22090
848.244	22040
848.379	21831
848.515	21926
848.65	21743
848.786	21861
848.921	21869
849.057	21968
849.192	21873
849.328	21899
849.463	21888
849.598	21876
849.734	21797
849.869	21618
850.004	21583
850.14	21732
850.275	21618
850.41	21538
850.545	21625
850.68	21637
850.815	21519
850.95	21538
851.085	21785
851.22	21785
851.355	21572
851.49	21690
851.625	21675
851.76	21633
851.895	21553
852.03	21507
852.165	21561
852.299	21755
852.434	21679
852.569	21603
852.703	21618
852.838	21785
852.973	21690
853.107	21838
853.242	21599
853.376	21469
853.511	21287
853.645	21557
853.78	21523
853.914	21515
854.048	21443
854.183	21477
854.317	21500
854.451	21675
854.585	21378
854.72	21439
854.854	21591
854.988	21359
855.122	21348
855.256	21275
855.39	21443
855.524	21519
855.658	21500
855.792	21496
855.926	21435
856.06	21496
856.194	21568
856.327	21530
856.461	21519
856.595	21367
856.729	21462
856.862	21595
856.996	21458
857.13	21485
857.263	21599
857.397	21488
857.53	21435
857.664	21447
857.797	21618
857.931	21530
858.064	21473
858.197	21538
858.331	21416
858.464	21481
858.597	21447
858.731	21557
858.864	21496
858.997	21424
859.13	21412
859.263	21519
859.396	21568
859.529	21504
859.662	21443
859.795	21420
859.928	21359
860.061	21671
860.194	21644
860.327	21504
860.46	21420
860.592	21530
860.725	21641
860.858	21572
860.99	21428
861.123	21454
861.256	21401
861.388	21557
861.521	22044
861.653	21310
861.786	21329
861.918	21313
862.05	21310
862.183	21386
862.315	21332
862.447	21481
862.58	21397
862.712	21169
862.844	21218
862.976	21302
863.108	21252
863.24	21599
863.372	21119
863.504	21214
863.636	21222
863.768	21332
863.9	21131
864.032	21089
864.164	21112
864.296	21127
864.428	21230
864.559	21241
864.691	21222
864.823	21233
864.954	21237
865.086	21112
865.217	21058
865.349	20967
865.48	21089
865.612	21123
865.743	21348
865.875	21100
866.006	21100
866.137	21005
866.269	21154
866.4	21036
866.531	21051
866.662	21028
866.793	20876
866.924	21009
867.055	21001
867.186	21013
867.317	21085
867.448	21024
867.579	21066
867.71	21001
867.841	20849
867.972	20990
868.103	20933
868.233	20967
868.364	21005
868.495	21112
868.625	21313
868.756	21272
868.886	21096
869.017	21336
869.147	21294
869.278	21477
869.408	21317
869.539	21233
869.669	21218
869.799	21317
869.929	21382
870.06	21401
870.19	21530
870.32	21488
870.45	21515
870.58	21637
870.71	21637
870.84	21778
870.97	21542
871.1	21652
871.23	21827
871.36	21835
871.489	21679
871.619	21774
871.749	21819
871.879	21812
872.008	21899
872.138	21759
872.267	21831
872.397	21705
872.526	21667
872.656	21587
872.785	21660
872.915	21785
873.044	21983
873.173	21899
873.303	21846
873.432	21934
873.561	21991
873.69	21804
873.819	21903
873.948	21922
874.077	21907
874.206	21747
874.335	21793
874.464	22002
874.593	22135
874.722	21987
874.851	22177
874.979	22185
875.108	22044
875.237	21998
875.365	21979
875.494	21937
875.623	22139
875.751	22040
875.88	22135
876.008	22116
876.136	22261
876.265	22466
876.393	22504
876.521	22618
876.65	22569
876.778	22474
876.906	22470
877.034	22367
877.162	22337
877.29	22440
877.418	22318
877.546	22497
877.674	22504
877.802	22489
877.93	22504
878.058	22261
878.185	22325
878.313	22386
878.441	22409
878.568	22226
878.696	22344
878.824	22508
878.951	22462
879.079	22675
879.206	22706
879.333	22538
879.461	22436
879.588	22580
879.715	22607
879.842	22664
879.97	22493
880.097	22314
880.224	22204
880.351	22337
880.478	22299
880.605	22177
880.732	22181
880.859	22516
880.986	22131
881.112	22306
881.239	22128
881.366	21964
881.493	21876
881.619	21846
881.746	21880
881.872	21857
881.999	21831
882.125	21732
882.252	21823
882.378	21698
882.505	21903
882.631	21720
882.757	21553
882.883	21641
883.01	21576
883.136	21580
883.262	21382
883.388	21332
883.514	21542
883.64	21504
883.766	21435
883.892	21279
884.018	21230
884.143	21469
884.269	21511
884.395	21294
884.52	21055
884.646	21218
884.772	20998
884.897	21100
885.023	21214
885.148	21150
885.274	21294
885.399	21321
885.524	21024
885.65	21066
885.775	21135
885.9	21081
886.025	21237
886.15	21192
886.275	21070
886.4	21100
886.525	21142
886.65	21028
886.775	21062
886.9	21154
887.025	21275
887.149	21176
887.274	20876
887.399	20971
887.523	20941
887.648	20777
887.773	20754
887.897	20960
888.021	21036
888.146	20785
888.27	21043
888.395	20906
888.519	21001
888.643	20941
888.767	20994
888.891	20773
889.015	20705
889.139	20708
889.263	20674
889.387	20792
889.511	20853
889.635	20727
889.759	20651
889.883	20708
890.006	20701
890.13	20746
890.254	20613
890.377	20632
890.501	20511
890.624	20476
890.748	20442
890.871	20339
890.995	20324
891.118	20153
891.241	20347
891.364	20214
891.488	20393
891.611	20298
891.734	20248
891.857	20317
891.98	20225
892.103	20221
892.226	20271
892.349	20259
892.471	20046
892.594	20199
892.717	20221
892.839	20248
892.962	20206
893.085	20256
893.207	20183
893.33	20005
893.452	20092
893.575	20282
893.697	20248
893.819	20206
893.941	20358
894.064	20237
894.186	20180
894.308	20149
894.43	20187
894.552	20278
894.674	20240
894.796	20050
894.918	20168
895.04	20172
895.161	20138
895.283	20275
895.405	20069
895.526	20142
895.648	20187
895.769	20210
895.891	20240
896.012	20172
896.134	20172
896.255	20199
896.376	20115
896.498	20134
896.619	20035
896.74	20153
896.861	20187
896.982	20602
897.103	20621
897.224	20336
897.345	20450
897.466	20339
897.587	20286
897.708	20507
897.828	20461
897.949	20271
898.07	20237
898.19	20328
898.311	20415
898.431	20248
898.552	20488
898.672	20473
898.792	20438
898.913	20347
899.033	20298
899.153	20183
899.273	20126
899.393	20107
899.513	20115
899.633	20092
899.753	20183
899.873	20096
899.993	20168
900.113	19986
900.232	20039
900.352	20027
900.472	20027
900.591	19871
900.711	19925
900.83	19860
900.95	19947
901.069	19875
901.189	19887
901.308	19643
901.427	19468
901.546	19518
901.665	19483
901.784	19495
901.904	19453
902.023	19278
902.141	19126
902.26	19065
902.379	19110
902.498	18962
902.617	19023
902.735	19057
902.854	18977
902.973	18856
903.091	18688
903.21	18703
903.328	18658
903.446	18620
903.565	18460
903.683	18414
903.801	18388
903.919	18403
904.038	18502
904.156	18254
904.274	18289
904.392	18171
904.51	18281
904.627	18216
904.745	18273
904.863	18361
904.981	18068
905.098	17977
905.216	17920
905.334	17946
905.451	17889
905.569	17824
905.686	17824
905.803	17878
905.921	17767
906.038	17859
906.155	17726
906.272	17539
906.389	17695
906.506	17478
906.623	17410
906.74	17440
906.857	17368
906.974	17345
907.091	17520
907.208	17608
907.324	17414
907.441	17280
907.557	17261
907.674	17166
907.79	17174
907.907	17178
908.023	17200
908.139	17174
908.256	17159
908.372	17155
908.488	17045
908.604	16919
908.72	16831
908.836	16949
908.952	16881
909.068	16873
909.184	16908
909.3	16843
909.415	16911
909.531	16839
909.647	16599
909.762	16577
909.878	16550
909.993	16607
910.108	16580
910.224	16516
910.339	16618
910.454	16546
910.57	16428
910.685	16348
910.8	16656
910.915	16546
911.03	16310
911.145	16238
911.259	16207
911.374	16204
911.489	16131
911.604	16147
911.718	15918
911.833	15922
911.947	15793
912.062	15743
912.176	15979
912.291	15903
912.405	15892
912.519	16097
912.633	16059
912.748	15892
912.862	15895
912.976	15873
913.09	15633
913.204	15728
913.318	15743
913.431	15842
913.545	15876
913.659	15785
913.772	15629
913.886	15667
914	15587
914.113	15572
914.226	15682
914.34	15534
914.453	15401
914.566	15644
914.68	15405
914.793	15348
914.906	15226
915.019	15157
915.132	15024
915.245	15226
915.358	15154
915.47	15287
915.583	15192
915.696	15287
915.809	15291
915.921	15302
916.034	15146
916.146	15058
916.259	15119
916.371	15070
916.483	15104
916.595	14944
916.708	14956
916.82	14994
916.932	14979
917.044	14921
917.156	14998
917.268	14807
917.38	14773
917.491	14758
917.603	14834
917.715	14830
917.826	14823
917.938	14758
918.049	14716
918.161	14735
918.272	14960
918.384	14952
918.495	14815
918.606	14552
918.717	14514
918.828	14606
918.939	14632
919.05	14492
919.161	14503
919.272	14431
919.383	14366
919.494	14629
919.604	14708
919.715	14514
919.826	14503
919.936	14514
920.047	14587
920.157	14564
920.267	14762
920.378	14625
920.488	14351
920.598	14693
920.708	14925
920.818	14655
920.928	14583
921.038	14811
921.148	14727
921.258	14385
921.368	14434
921.477	14221
921.587	14358
921.697	14134
921.806	14278
921.916	14046
922.025	14012
922.134	13944
922.244	13864
922.353	13921
922.462	13860
922.571	13700
922.68	13586
922.789	13609
922.898	13495
923.007	13422
923.116	13544
923.224	13575
923.333	13537
923.442	13487
923.55	13411
923.659	13476
923.767	13510
923.876	13377
923.984	13365
924.092	13282
924.201	13232
924.309	13236
924.417	13289
924.525	13171
924.633	13179
924.741	13951
924.849	13053
924.956	13202
925.064	13050
925.172	12947
925.279	12935
925.387	13042
925.494	12916
925.602	13091
925.709	12981
925.816	12867
925.924	12951
926.031	13004
926.138	12802
926.245	12913
926.352	12719
926.459	12913
926.566	13012
926.673	12817
926.779	12791
926.886	12646
926.993	12627
927.099	12471
927.206	12563
927.312	12513
927.419	12559
927.525	12623
927.631	12566
927.737	12403
927.843	12357
927.95	12281
928.056	12270
928.162	12308
928.267	12319
928.373	12939
928.479	12399
928.585	12186
928.69	12258
928.796	12391
928.901	12197
929.007	11969
929.112	12228
929.218	12152
929.323	12152
929.428	12015
929.533	12213
929.638	12064
929.743	11988
929.848	12098
929.953	12007
930.058	12015
930.163	11657
930.267	11802
930.372	11882
930.477	11718
930.581	11931
930.685	11767
930.79	11630
930.894	11710
930.998	11665
931.103	11783
931.207	11417
931.311	11277
931.415	11204
931.519	10995
931.623	11056
