Data from test_V78500241_1165.txt Node
Date: Fri Mar 25 15:17:58 CST 2022
User: usil
Spectrometer: V785-0024
Trigger mode: 0
Integration Time (sec): 4.000000E-1
Scans to average: 1
Nonlinearity correction enabled: false
Boxcar width: 0
Storing dark spectrum: false
XAxis mode: Wavelengths
Number of Pixels in Spectrum: 1024
>>>>>Begin Spectral Data<<<<<
801.071	28341
801.214	28459
801.356	28276
801.499	28044
801.641	27907
801.783	28135
801.926	28109
802.068	27956
802.211	27941
802.353	27785
802.496	27606
802.638	27561
802.78	27644
802.923	27625
803.065	27595
803.208	27549
803.35	27591
803.492	27736
803.635	27789
803.777	27660
803.919	27884
804.061	28162
804.204	27911
804.346	27842
804.488	27663
804.63	27774
804.773	27728
804.915	27922
805.057	28040
805.199	27816
805.341	28116
805.483	27979
805.626	28093
805.768	27819
805.91	28036
806.052	27968
806.194	27800
806.336	28112
806.478	28120
806.62	28070
806.762	28147
806.904	28265
807.046	28489
807.188	28409
807.33	28451
807.472	28394
807.614	28337
807.756	28424
807.898	28497
808.04	28295
808.182	28394
808.324	28333
808.465	28363
808.607	28474
808.749	28637
808.891	28656
809.033	28816
809.174	28687
809.316	28702
809.458	28626
809.6	28615
809.741	28759
809.883	28828
810.025	29014
810.166	29025
810.308	28820
810.45	28828
810.591	28790
810.733	28736
810.875	28694
811.016	28542
811.158	28554
811.299	28786
811.441	28904
811.582	28679
811.724	28721
811.865	28417
812.007	28683
812.148	28710
812.29	28774
812.431	28812
812.573	28881
812.714	29029
812.855	29277
812.997	29265
813.138	29554
813.279	29337
813.421	29151
813.562	29132
813.703	28976
813.845	28976
813.986	28622
814.127	28512
814.268	28363
814.41	28398
814.551	28310
814.692	28459
814.833	28405
814.974	28337
815.115	28322
815.256	28143
815.397	28196
815.539	28215
815.68	28158
815.821	28051
815.962	28223
816.103	28291
816.244	28128
816.385	27987
816.526	28067
816.666	27876
816.807	27599
816.948	27770
817.089	27747
817.23	27797
817.371	27701
817.512	27667
817.653	27770
817.793	27591
817.934	27713
818.075	27663
818.216	27808
818.356	27511
818.497	27542
818.638	27427
818.778	27435
818.919	27492
819.06	27595
819.2	27629
819.341	27603
819.481	27819
819.622	27800
819.762	28074
819.903	27987
820.043	27804
820.184	27869
820.324	27808
820.465	27979
820.605	27812
820.746	27835
820.886	27663
821.026	27793
821.167	27736
821.307	27736
821.447	27755
821.588	27713
821.728	27538
821.868	27310
822.008	27222
822.149	27176
822.289	27165
822.429	26937
822.569	26777
822.709	26929
822.849	26804
822.99	26750
823.13	26693
823.27	26663
823.41	26648
823.55	26423
823.69	26560
823.83	26549
823.97	26507
824.11	26377
824.25	26351
824.389	26396
824.529	26495
824.669	26377
824.809	26450
824.949	26419
825.089	26507
825.228	26488
825.368	26237
825.508	26343
825.648	26278
825.787	26301
825.927	26214
826.067	26195
826.206	26221
826.346	26355
826.485	26183
826.625	26282
826.765	26332
826.904	26271
827.044	26001
827.183	25966
827.323	26027
827.462	26199
827.601	26119
827.741	25982
827.88	25997
828.02	25932
828.159	26035
828.298	25925
828.437	26024
828.577	25936
828.716	25826
828.855	26001
828.994	25609
829.134	25685
829.273	25784
829.412	25605
829.551	25677
829.69	25556
829.829	25753
829.968	25795
830.107	25860
830.246	25845
830.385	25616
830.524	25696
830.663	25491
830.802	25407
830.941	25396
831.08	25228
831.219	25430
831.357	25400
831.496	25392
831.635	25194
831.774	25202
831.913	25278
832.051	25141
832.19	25126
832.329	25232
832.467	25023
832.606	24882
832.744	24848
832.883	25050
833.022	25023
833.16	25053
833.299	25031
833.437	25050
833.576	24989
833.714	24886
833.852	25091
833.991	25069
834.129	25072
834.267	25126
834.406	25110
834.544	25061
834.682	25050
834.821	25084
834.959	25270
835.097	25053
835.235	25171
835.373	25107
835.511	25118
835.65	24890
835.788	25080
835.926	24707
836.064	24779
836.202	24658
836.34	25042
836.478	24916
836.615	24905
836.753	24924
836.891	24989
837.029	24924
837.167	24749
837.305	24688
837.443	24848
837.58	24719
837.718	24837
837.856	24833
837.993	24692
838.131	24715
838.269	24551
838.406	24585
838.544	24559
838.681	24357
838.819	24350
838.956	24152
839.094	24308
839.231	24235
839.369	24304
839.506	24623
839.643	24448
839.781	24289
839.918	24102
840.055	24182
840.193	24125
840.33	24136
840.467	24125
840.604	24163
840.742	24353
840.879	23942
841.016	24060
841.153	23984
841.29	24190
841.427	24224
841.564	24174
841.701	24087
841.838	24064
841.975	23874
842.112	24087
842.249	23866
842.385	23885
842.522	24022
842.659	23927
842.796	23824
842.933	23942
843.069	23817
843.206	23863
843.343	23984
843.479	23901
843.616	23847
843.752	23786
843.889	23707
844.025	23722
844.162	23638
844.298	23687
844.435	23600
844.571	23638
844.708	23608
844.844	23729
844.98	23779
845.117	23817
845.253	23551
845.389	23547
845.525	23520
845.661	23417
845.798	23299
845.934	23478
846.07	23471
846.206	23417
846.342	23417
846.478	23353
846.614	23227
846.75	23056
846.886	23064
847.022	23200
847.158	23117
847.294	23067
847.429	23193
847.565	23014
847.701	23372
847.837	22858
847.972	22752
848.108	22820
848.244	22934
848.379	22736
848.515	22702
848.65	22630
848.786	22778
848.921	22675
849.057	22748
849.192	22748
849.328	22797
849.463	22683
849.598	22641
849.734	22649
849.869	22516
850.004	22527
850.14	22516
850.275	22459
850.41	22390
850.545	22455
850.68	22363
850.815	22512
850.95	22390
851.085	22664
851.22	22432
851.355	22386
851.49	22535
851.625	22398
851.76	22443
851.895	22344
852.03	22272
852.165	22447
852.299	22371
852.434	22554
852.569	22535
852.703	22413
852.838	22577
852.973	22546
853.107	22588
853.242	22390
853.376	22147
853.511	22158
853.645	22230
853.78	22310
853.914	22226
854.048	22131
854.183	22169
854.317	22215
854.451	22405
854.585	22325
854.72	22367
854.854	22223
854.988	22242
855.122	22333
855.256	22150
855.39	22211
855.524	22284
855.658	22500
855.792	22207
855.926	22322
856.06	22382
856.194	22295
856.327	22249
856.461	22398
856.595	22287
856.729	22192
856.862	22356
856.996	22367
857.13	22257
857.263	22413
857.397	22162
857.53	22166
857.664	22284
857.797	22356
857.931	22356
858.064	22333
858.197	22409
858.331	22128
858.464	22234
858.597	22070
858.731	22177
858.864	22154
858.997	22173
859.13	22249
859.263	22333
859.396	22375
859.529	22226
859.662	22143
859.795	22238
859.928	22306
860.061	22405
860.194	22424
860.327	22284
860.46	22310
860.592	22405
860.725	22417
860.858	22432
860.99	22276
861.123	22253
861.256	22234
861.388	22325
861.521	23014
861.653	22268
861.786	22086
861.918	22093
862.05	22211
862.183	22219
862.315	22162
862.447	22287
862.58	22162
862.712	21827
862.844	21816
862.976	22128
863.108	22029
863.24	22261
863.372	21865
863.504	21979
863.636	21918
863.768	22036
863.9	22025
864.032	21915
864.164	21854
864.296	21968
864.428	21979
864.559	22048
864.691	22105
864.823	22143
864.954	22295
865.086	22067
865.217	21838
865.349	21705
865.48	21918
865.612	21895
865.743	21907
865.875	21804
866.006	21846
866.137	21774
866.269	21838
866.4	21892
866.531	21789
866.662	21850
866.793	21747
866.924	21762
867.055	21941
867.186	21873
867.317	21800
867.448	21789
867.579	21800
867.71	21599
867.841	21660
867.972	21884
868.103	21739
868.233	21759
868.364	21755
868.495	21861
868.625	22006
868.756	22101
868.886	21968
869.017	22048
869.147	22082
869.278	22120
869.408	21994
869.539	22044
869.669	22109
869.799	22048
869.929	22162
870.06	22067
870.19	22325
870.32	22363
870.45	22443
870.58	22196
870.71	22561
870.84	22569
870.97	22360
871.1	22428
871.23	22603
871.36	22535
871.489	22599
871.619	22394
871.749	22535
871.879	22584
872.008	22603
872.138	22500
872.267	22634
872.397	22390
872.526	22398
872.656	22508
872.785	22508
872.915	22630
873.044	22831
873.173	22592
873.303	22782
873.432	22618
873.561	22691
873.69	22702
873.819	22592
873.948	22546
874.077	22744
874.206	22729
874.335	22504
874.464	22660
874.593	22786
874.722	22805
874.851	22854
874.979	22869
875.108	22858
875.237	22820
875.365	22565
875.494	22767
875.623	22938
875.751	22702
875.88	22717
876.008	22850
876.136	22908
876.265	23269
876.393	23318
876.521	23296
876.65	23349
876.778	23204
876.906	23200
877.034	23162
877.162	23151
877.29	23083
877.418	23242
877.546	23212
877.674	23204
877.802	23090
877.93	23170
878.058	23083
878.185	23044
878.313	23014
878.441	23147
878.568	23006
878.696	23140
878.824	23128
878.951	23303
879.079	23341
879.206	23410
879.333	23467
879.461	23193
879.588	23311
879.715	23246
879.842	23334
879.97	23296
880.097	23083
880.224	22991
880.351	23029
880.478	23014
880.605	22942
880.732	22946
880.859	23258
880.986	22999
881.112	22908
881.239	22847
881.366	22778
881.493	22634
881.619	22550
881.746	22580
881.872	22542
881.999	22580
882.125	22478
882.252	22599
882.378	22538
882.505	22519
882.631	22611
882.757	22215
882.883	22314
883.01	22242
883.136	22219
883.262	22162
883.388	22116
883.514	22249
883.64	22337
883.766	21922
883.892	21968
884.018	22032
884.143	22192
884.269	22268
884.395	21941
884.52	21842
884.646	21778
884.772	21732
884.897	21747
885.023	21667
885.148	22013
885.274	21991
885.399	21983
885.524	21850
885.65	21682
885.775	21911
885.9	21861
886.025	21842
886.15	21983
886.275	21759
886.4	21911
886.525	21876
886.65	21660
886.775	21778
886.9	21937
887.025	22055
887.149	21759
887.274	21701
887.399	21660
887.523	21667
887.648	21561
887.773	21466
887.897	21663
888.021	21797
888.146	21534
888.27	21755
888.395	21774
888.519	21603
888.643	21511
888.767	21736
888.891	21397
889.015	21363
889.139	21462
889.263	21454
889.387	21595
889.511	21587
889.635	21523
889.759	21382
889.883	21401
890.006	21405
890.13	21511
890.254	21313
890.377	21344
890.501	21264
890.624	21218
890.748	21264
890.871	21142
890.995	20937
891.118	20952
891.241	20944
891.364	21001
891.488	21039
891.611	20971
891.734	20963
891.857	20971
891.98	20944
892.103	20914
892.226	20941
892.349	20925
892.471	20712
892.594	20781
892.717	20941
892.839	20864
892.962	20864
893.085	20948
893.207	20811
893.33	20823
893.452	20861
893.575	20891
893.697	20872
893.819	20933
893.941	20925
894.064	21089
894.186	20804
894.308	20895
894.43	20864
894.552	21047
894.674	20902
894.796	20842
894.918	20861
895.04	20777
895.161	20948
895.283	20933
895.405	20800
895.526	20876
895.648	20815
895.769	20826
895.891	20777
896.012	20899
896.134	20872
896.255	20758
896.376	20769
896.498	20792
896.619	20838
896.74	20754
896.861	20853
896.982	21096
897.103	21184
897.224	21028
897.345	20986
897.466	20986
897.587	21074
897.708	21199
897.828	21085
897.949	20960
898.07	20925
898.19	20975
898.311	20967
898.431	20979
898.552	21017
898.672	21001
898.792	20982
898.913	20952
899.033	20872
899.153	20796
899.273	20682
899.393	20781
899.513	20773
899.633	20781
899.753	20735
899.873	20777
899.993	20716
900.113	20663
900.232	20720
900.352	20552
900.472	20552
900.591	20495
900.711	20438
900.83	20370
900.95	20667
901.069	20488
901.189	20514
901.308	20183
901.427	20237
901.546	20225
901.665	20138
901.784	20096
901.904	20027
902.023	19837
902.141	19719
902.26	19613
902.379	19681
902.498	19620
902.617	19597
902.735	19628
902.854	19597
902.973	19529
903.091	19304
903.21	19232
903.328	19213
903.446	19141
903.565	19076
903.683	19126
903.801	18916
903.919	19069
904.038	19095
904.156	18856
904.274	18886
904.392	18833
904.51	18928
904.627	18859
904.745	18924
904.863	18802
904.981	18627
905.098	18574
905.216	18559
905.334	18566
905.451	18563
905.569	18506
905.686	18467
905.803	18479
905.921	18350
906.038	18342
906.155	18239
906.272	18205
906.389	18285
906.506	18125
906.623	18053
906.74	18019
906.857	17996
906.974	18015
907.091	18106
907.208	18114
907.324	17958
907.441	17874
907.557	17786
907.674	17805
907.79	17794
907.907	17737
908.023	17771
908.139	17676
908.256	17726
908.372	17661
908.488	17630
908.604	17547
908.72	17455
908.836	17505
908.952	17459
909.068	17444
909.184	17589
909.3	17345
909.415	17410
909.531	17474
909.647	17193
909.762	17227
909.878	17067
909.993	17223
910.108	17136
910.224	17018
910.339	17174
910.454	16915
910.57	16976
910.685	16930
910.8	17155
910.915	17079
911.03	16858
911.145	16820
911.259	16812
911.374	16774
911.489	16577
911.604	16637
911.718	16455
911.833	16466
911.947	16363
912.062	16249
912.176	16497
912.291	16424
912.405	16474
912.519	16569
912.633	16584
912.748	16569
912.862	16489
912.976	16402
913.09	16192
913.204	16257
913.318	16272
913.431	16325
913.545	16497
913.659	16352
913.772	16284
913.886	16093
914	16063
914.113	16185
914.226	16116
914.34	16116
914.453	15964
914.566	16147
914.68	15975
914.793	15884
914.906	15690
915.019	15739
915.132	15610
915.245	15682
915.358	15675
915.47	15580
915.583	15739
915.696	15675
915.809	15743
915.921	15785
916.034	15660
916.146	15564
916.259	15557
916.371	15625
916.483	15587
916.595	15549
916.708	15519
916.82	15477
916.932	15389
917.044	15458
917.156	15511
917.268	15367
917.38	15336
917.491	15306
917.603	15306
917.715	15283
917.826	15382
917.938	15359
918.049	15089
918.161	15237
918.272	15386
918.384	15260
918.495	15222
918.606	15154
918.717	14975
918.828	15123
918.939	15017
919.05	14967
919.161	14990
919.272	14739
919.383	14952
919.494	15081
919.604	15256
919.715	15047
919.826	14929
919.936	14952
920.047	15051
920.157	15047
920.267	15203
920.378	14933
920.488	14986
920.598	15157
920.708	15306
920.818	15104
920.928	15135
921.038	15222
921.148	15146
921.258	14868
921.368	14864
921.477	14883
921.587	14701
921.697	14507
921.806	14849
921.916	14537
922.025	14412
922.134	14309
922.244	14362
922.353	14370
922.462	14256
922.571	14233
922.68	14062
922.789	14024
922.898	14043
923.007	13951
923.116	14046
923.224	13974
923.333	13978
923.442	13902
923.55	13791
923.659	13879
923.767	13936
923.876	13894
923.984	13757
924.092	13723
924.201	13670
924.309	13776
924.417	13761
924.525	13586
924.633	13624
924.741	14621
924.849	13369
924.956	13658
925.064	13460
925.172	13263
925.279	13316
925.387	13460
925.494	13415
925.602	13480
925.709	13316
925.816	13263
925.924	13247
926.031	13457
926.138	13255
926.245	13392
926.352	13225
926.459	13285
926.566	13411
926.673	13331
926.779	13206
926.886	13213
926.993	12977
927.099	13012
927.206	12932
927.312	12821
927.419	13042
927.525	12897
927.631	13000
927.737	12840
927.843	12787
927.95	12654
928.056	12673
928.162	12715
928.267	12764
928.373	13426
928.479	12867
928.585	12506
928.69	12779
928.796	12696
928.901	12616
929.007	12475
929.112	12589
929.218	12650
929.323	12452
929.428	12437
929.533	12566
929.638	12422
929.743	12395
929.848	12407
929.953	12532
930.058	12289
930.163	12117
930.267	12205
930.372	12315
930.477	12079
930.581	12319
930.685	12182
930.79	12034
930.894	12079
930.998	11958
931.103	12129
931.207	11756
931.311	11680
931.415	11573
931.519	11383
931.623	11433
