Data from test_V78500241_3506.txt Node
Date: Fri Mar 25 15:34:16 CST 2022
User: usil
Spectrometer: V785-0024
Trigger mode: 0
Integration Time (sec): 4.000000E-1
Scans to average: 1
Nonlinearity correction enabled: false
Boxcar width: 0
Storing dark spectrum: false
XAxis mode: Wavelengths
Number of Pixels in Spectrum: 1024
>>>>>Begin Spectral Data<<<<<
801.071	27344
801.214	27203
801.356	27001
801.499	27017
801.641	26800
801.783	26861
801.926	27024
802.068	26842
802.211	26651
802.353	26617
802.496	26568
802.638	26621
802.78	26564
802.923	26473
803.065	26358
803.208	26347
803.35	26579
803.492	26495
803.635	26670
803.777	26552
803.919	26632
804.061	26948
804.204	26743
804.346	26670
804.488	26602
804.63	26651
804.773	26651
804.915	26716
805.057	26861
805.199	26655
805.341	26667
805.483	26678
805.626	26811
805.768	26636
805.91	26693
806.052	26716
806.194	26705
806.336	27028
806.478	26651
806.62	26697
806.762	26845
806.904	26929
807.046	27264
807.188	27226
807.33	27264
807.472	27036
807.614	27173
807.756	27142
807.898	26967
808.04	26986
808.182	27085
808.324	27028
808.465	27146
808.607	27264
808.749	27439
808.891	27450
809.033	27538
809.174	27401
809.316	27382
809.458	27321
809.6	27291
809.741	27473
809.883	27424
810.025	27660
810.166	27698
810.308	27572
810.45	27519
810.591	27534
810.733	27386
810.875	27306
811.016	27256
811.158	27199
811.299	27500
811.441	27545
811.582	27492
811.724	27279
811.865	27447
812.007	27329
812.148	27306
812.29	27332
812.431	27370
812.573	27717
812.714	27747
812.855	27770
812.997	28063
813.138	28074
813.279	27953
813.421	27823
813.562	27819
813.703	27660
813.845	27644
813.986	27306
814.127	27074
814.268	26944
814.41	27131
814.551	27146
814.692	27013
814.833	27009
814.974	26921
815.115	27066
815.256	26891
815.397	26750
815.539	26830
815.68	26914
815.821	26716
815.962	26785
816.103	26876
816.244	26606
816.385	26613
816.526	26541
816.666	26503
816.807	26339
816.948	26336
817.089	26434
817.23	26351
817.371	26237
817.512	26199
817.653	26149
817.793	26149
817.934	26218
818.075	26305
818.216	26267
818.356	26206
818.497	26214
818.638	26043
818.778	26046
818.919	26012
819.06	26176
819.2	26157
819.341	26153
819.481	26111
819.622	26575
819.762	26613
819.903	26587
820.043	26389
820.184	26324
820.324	26301
820.465	26370
820.605	26396
820.746	26305
820.886	26199
821.026	26370
821.167	26374
821.307	26355
821.447	26328
821.588	26301
821.728	26107
821.868	25871
822.008	25890
822.149	25845
822.289	25871
822.429	25491
822.569	25354
822.709	25525
822.849	25293
822.99	25415
823.13	25320
823.27	25114
823.41	25095
823.55	25053
823.69	25057
823.83	25122
823.97	25034
824.11	24875
824.25	24913
824.389	24886
824.529	24935
824.669	24973
824.809	25168
824.949	25019
825.089	24981
825.228	24958
825.368	24745
825.508	24749
825.648	24730
825.787	24894
825.927	24844
826.067	24764
826.206	24764
826.346	24722
826.485	24943
826.625	24776
826.765	24909
826.904	24810
827.044	24566
827.183	24604
827.323	24509
827.462	24578
827.601	24547
827.741	24612
827.88	24490
828.02	24407
828.159	24414
828.298	24471
828.437	24563
828.577	24437
828.716	24502
828.855	24357
828.994	24129
829.134	24194
829.273	24251
829.412	24273
829.551	24140
829.69	24194
829.829	24391
829.968	24281
830.107	24247
830.246	24178
830.385	24174
830.524	24110
830.663	24098
830.802	23901
830.941	23779
831.08	23756
831.219	23988
831.357	23984
831.496	24011
831.635	23866
831.774	23756
831.913	23771
832.051	23676
832.19	23748
832.329	23589
832.467	23471
832.606	23531
832.744	23471
832.883	23589
833.022	23554
833.16	23551
833.299	23486
833.437	23547
833.576	23672
833.714	23577
833.852	23699
833.991	23767
834.129	23604
834.267	23661
834.406	23589
834.544	23585
834.682	23653
834.821	23581
834.959	23680
835.097	23474
835.235	23638
835.373	23611
835.511	23562
835.65	23493
835.788	23516
835.926	23455
836.064	23273
836.202	23261
836.34	23410
836.478	23467
836.615	23433
836.753	23398
836.891	23493
837.029	23455
837.167	23353
837.305	23292
837.443	23360
837.58	23292
837.718	23337
837.856	23254
837.993	23265
838.131	23345
838.269	23204
838.406	23258
838.544	23075
838.681	22866
838.819	22968
838.956	22900
839.094	22668
839.231	22862
839.369	22896
839.506	23140
839.643	22953
839.781	22740
839.918	22725
840.055	22675
840.193	22774
840.33	22691
840.467	22717
840.604	22710
840.742	23022
840.879	22440
841.016	22592
841.153	22660
841.29	22706
841.427	22763
841.564	22835
841.701	22694
841.838	22736
841.975	22615
842.112	22432
842.249	22508
842.385	22459
842.522	22607
842.659	22554
842.796	22375
842.933	22474
843.069	22413
843.206	22356
843.343	22497
843.479	22531
843.616	22436
843.752	22272
843.889	22192
844.025	22318
844.162	22188
844.298	22276
844.435	22246
844.571	22230
844.708	22253
844.844	22382
844.98	22447
845.117	22360
845.253	22158
845.389	22185
845.525	22139
845.661	22017
845.798	22074
845.934	22044
846.07	21918
846.206	21937
846.342	22131
846.478	21994
846.614	21766
846.75	21682
846.886	21694
847.022	21831
847.158	21766
847.294	21774
847.429	21850
847.565	21622
847.701	21907
847.837	21374
847.972	21359
848.108	21534
848.244	21477
848.379	21321
848.515	21332
848.65	21287
848.786	21321
848.921	21272
849.057	21382
849.192	21275
849.328	21321
849.463	21367
849.598	21283
849.734	21203
849.869	21169
850.004	21176
850.14	21100
850.275	21043
850.41	20956
850.545	20944
850.68	21032
850.815	21058
850.95	21005
851.085	21218
851.22	21237
851.355	21119
851.49	20982
851.625	21020
851.76	21017
851.895	20929
852.03	20880
852.165	21047
852.299	21074
852.434	21176
852.569	21138
852.703	21116
852.838	21146
852.973	21154
853.107	21165
853.242	21058
853.376	20880
853.511	20754
853.645	20739
853.78	21032
853.914	20933
854.048	20899
854.183	20853
854.317	21028
854.451	21131
854.585	20754
854.72	20910
854.854	20982
854.988	20895
855.122	20925
855.256	20842
855.39	20883
855.524	20944
855.658	21009
855.792	20937
855.926	20914
856.06	21017
856.194	20918
856.327	20872
856.461	20876
856.595	20708
856.729	20876
856.862	20929
856.996	20921
857.13	21032
857.263	20994
857.397	21001
857.53	21009
857.664	20963
857.797	21001
857.931	20914
858.064	20952
858.197	20960
858.331	20864
858.464	20743
858.597	20811
858.731	20765
858.864	20826
858.997	20773
859.13	20807
859.263	20910
859.396	20971
859.529	20842
859.662	20807
859.795	20773
859.928	20948
860.061	21131
860.194	21085
860.327	21024
860.46	20815
860.592	20941
860.725	21093
860.858	20899
860.99	20902
861.123	20773
861.256	20796
861.388	20872
861.521	21572
861.653	20769
861.786	20663
861.918	20693
862.05	20792
862.183	20834
862.315	20880
862.447	20929
862.58	20804
862.712	20590
862.844	20594
862.976	20857
863.108	20602
863.24	20979
863.372	20552
863.504	20724
863.636	20473
863.768	20663
863.9	20636
864.032	20503
864.164	20701
864.296	20590
864.428	20724
864.559	20686
864.691	20670
864.823	20663
864.954	20648
865.086	20526
865.217	20457
865.349	20473
865.48	20465
865.612	20587
865.743	20670
865.875	20499
866.006	20438
866.137	20480
866.269	20568
866.4	20541
866.531	20454
866.662	20374
866.793	20541
866.924	20438
867.055	20415
867.186	20495
867.317	20469
867.448	20237
867.579	20450
867.71	20404
867.841	20450
867.972	20568
868.103	20423
868.233	20484
868.364	20495
868.495	20495
868.625	20708
868.756	20781
868.886	20564
869.017	20655
869.147	20754
869.278	20872
869.408	20697
869.539	20617
869.669	20682
869.799	20804
869.929	20754
870.06	20944
870.19	20998
870.32	21036
870.45	21028
870.58	21112
870.71	21096
870.84	21142
870.97	21112
871.1	21051
871.23	21211
871.36	21363
871.489	21096
871.619	21252
871.749	21241
871.879	21462
872.008	21355
872.138	21260
872.267	21302
872.397	21104
872.526	21051
872.656	21150
872.785	21058
872.915	21348
873.044	21504
873.173	21389
873.303	21344
873.432	21370
873.561	21370
873.69	21340
873.819	21348
873.948	21367
874.077	21214
874.206	21298
874.335	21298
874.464	21553
874.593	21538
874.722	21477
874.851	21614
874.979	21614
875.108	21610
875.237	21576
875.365	21428
875.494	21595
875.623	21648
875.751	21530
875.88	21622
876.008	21789
876.136	21751
876.265	21930
876.393	22070
876.521	21998
876.65	22044
876.778	21918
876.906	21956
877.034	21846
877.162	22010
877.29	21751
877.418	21884
877.546	21949
877.674	21945
877.802	21816
877.93	21945
878.058	21949
878.185	21717
878.313	21819
878.441	21934
878.568	21633
878.696	21793
878.824	21956
878.951	21926
879.079	22082
879.206	22249
879.333	22101
879.461	21956
879.588	21979
879.715	22101
879.842	22116
879.97	22013
880.097	21819
880.224	21846
880.351	21682
880.478	21728
880.605	21766
880.732	21709
880.859	22032
880.986	21762
881.112	21781
881.239	21629
881.366	21507
881.493	21466
881.619	21462
881.746	21386
881.872	21310
881.999	21313
882.125	21359
882.252	21329
882.378	21268
882.505	21428
882.631	21119
882.757	21051
882.883	21188
883.01	21005
883.136	20986
883.262	20830
883.388	20902
883.514	21043
883.64	21165
883.766	20899
883.892	20842
884.018	20864
884.143	20929
884.269	20979
884.395	20724
884.52	20667
884.646	20632
884.772	20606
884.897	20590
885.023	20644
885.148	20807
885.274	20788
885.399	20758
885.524	20632
885.65	20773
885.775	20648
885.9	20670
886.025	20773
886.15	20678
886.275	20629
886.4	20537
886.525	20606
886.65	20560
886.775	20507
886.9	20762
887.025	20834
887.149	20655
887.274	20484
887.399	20438
887.523	20473
887.648	20366
887.773	20237
887.897	20533
888.021	20488
888.146	20404
888.27	20450
888.395	20438
888.519	20476
888.643	20362
888.767	20476
888.891	20343
889.015	20267
889.139	20393
889.263	20206
889.387	20229
889.511	20381
889.635	20320
889.759	19986
889.883	20355
890.006	20256
890.13	20278
890.254	20130
890.377	20142
890.501	19993
890.624	19925
890.748	20088
890.871	19902
890.995	19765
891.118	19875
891.241	19845
891.364	19746
891.488	19875
891.611	19772
891.734	19879
891.857	19887
891.98	19784
892.103	19917
892.226	19837
892.349	19818
892.471	19571
892.594	19814
892.717	19795
892.839	19723
892.962	19769
893.085	19799
893.207	19780
893.33	19609
893.452	19594
893.575	19833
893.697	19772
893.819	19803
893.941	19932
894.064	19841
894.186	19616
894.308	19696
894.43	19921
894.552	19822
894.674	19860
894.796	19704
894.918	19681
895.04	19655
895.161	19841
895.283	19890
895.405	19651
895.526	19750
895.648	19738
895.769	19765
895.891	19807
896.012	19742
896.134	19757
896.255	19750
896.376	19731
896.498	19635
896.619	19734
896.74	19712
896.861	19807
896.982	20054
897.103	20199
897.224	19967
897.345	19967
897.466	19826
897.587	19925
897.708	20043
897.828	19978
897.949	19875
898.07	19769
898.19	19959
898.311	20016
898.431	19936
898.552	19940
898.672	20092
898.792	20020
898.913	19928
899.033	19883
899.153	19772
899.273	19704
899.393	19666
899.513	19704
899.633	19674
899.753	19742
899.873	19681
899.993	19662
900.113	19552
900.232	19693
900.352	19658
900.472	19586
900.591	19438
900.711	19438
900.83	19495
900.95	19563
901.069	19548
901.189	19377
901.308	19209
901.427	19103
901.546	19069
901.665	19152
901.784	19080
901.904	18939
902.023	18757
902.141	18620
902.26	18521
902.379	18730
902.498	18635
902.617	18574
902.735	18677
902.854	18521
902.973	18532
903.091	18289
903.21	18277
903.328	18194
903.446	18247
903.565	18190
903.683	18121
903.801	17961
903.919	18019
904.038	18022
904.156	17832
904.274	17824
904.392	17733
904.51	17821
904.627	17695
904.745	17882
904.863	17969
904.981	17695
905.098	17589
905.216	17543
905.334	17429
905.451	17573
905.569	17505
905.686	17585
905.803	17467
905.921	17273
906.038	17330
906.155	17315
906.272	17109
906.389	17353
906.506	17045
906.623	17014
906.74	17185
906.857	16934
906.974	16972
907.091	17136
907.208	17246
907.324	17136
907.441	17071
907.557	16820
907.674	16831
907.79	16725
907.907	16736
908.023	16831
908.139	16801
908.256	16744
908.372	16649
908.488	16675
908.604	16447
908.72	16428
908.836	16402
908.952	16508
909.068	16542
909.184	16599
909.3	16584
909.415	16481
909.531	16550
909.647	16337
909.762	16234
909.878	16226
909.993	16166
910.108	16086
910.224	16143
910.339	16291
910.454	16048
910.57	16017
910.685	15945
910.8	16242
910.915	16154
911.03	16006
911.145	15850
911.259	15850
911.374	15701
911.489	15743
911.604	15755
911.718	15656
911.833	15568
911.947	15431
912.062	15351
912.176	15511
912.291	15530
912.405	15542
912.519	15660
912.633	15739
912.748	15557
912.862	15507
912.976	15340
913.09	15264
913.204	15294
913.318	15332
913.431	15466
913.545	15466
913.659	15469
913.772	15252
913.886	15192
914	15195
914.113	15237
914.226	15310
914.34	15180
914.453	15123
914.566	15195
914.68	14986
914.793	15085
914.906	14853
915.019	14792
915.132	14777
915.245	14765
915.358	14883
915.47	14758
915.583	14849
915.696	14880
915.809	14823
915.921	14883
916.034	14807
916.146	14610
916.259	14731
916.371	14758
916.483	14815
916.595	14659
916.708	14594
916.82	14632
916.932	14465
917.044	14621
917.156	14545
917.268	14446
917.38	14530
917.491	14461
917.603	14450
917.715	14507
917.826	14499
917.938	14419
918.049	14305
918.161	14442
918.272	14465
918.384	14537
918.495	14332
918.606	14168
918.717	14107
918.828	14332
918.939	14301
919.05	14187
919.161	14202
919.272	13978
919.383	14039
919.494	14233
919.604	14400
919.715	14233
919.826	14218
919.936	14263
920.047	14187
920.157	14195
920.267	14271
920.378	14267
920.488	14145
920.598	14396
920.708	14484
920.818	14263
920.928	14290
921.038	14469
921.148	14423
921.258	14115
921.368	13993
921.477	13986
921.587	14001
921.697	13803
921.806	14046
921.916	13849
922.025	13662
922.134	13525
922.244	13586
922.353	13620
922.462	13472
922.571	13430
922.68	13282
922.789	13232
922.898	13282
923.007	13194
923.116	13213
923.224	13133
923.333	13213
923.442	13110
923.55	13145
923.659	13149
923.767	13141
923.876	13004
923.984	13141
924.092	12966
924.201	13053
924.309	13053
924.417	12973
924.525	12916
924.633	12924
924.741	13719
924.849	12684
924.956	12859
925.064	12772
925.172	12635
925.279	12642
925.387	12715
925.494	12662
925.602	12772
925.709	12677
925.816	12570
925.924	12544
926.031	12715
926.138	12601
926.245	12684
926.352	12517
926.459	12753
926.566	12722
926.673	12490
926.779	12441
926.886	12308
926.993	12220
927.099	12216
927.206	12186
927.312	12228
927.419	12262
927.525	12323
927.631	12266
927.737	12148
927.843	12057
927.95	11980
928.056	12053
928.162	11935
928.267	12159
928.373	12646
928.479	12224
928.585	11885
928.69	12064
928.796	11950
928.901	11946
929.007	11809
929.112	12057
929.218	11870
929.323	11809
929.428	11809
929.533	11931
929.638	11729
929.743	11672
929.848	11764
929.953	11752
930.058	11634
930.163	11452
930.267	11547
930.372	11699
930.477	11444
930.581	11691
930.685	11509
930.79	11368
930.894	11471
930.998	11311
931.103	11471
931.207	11121
931.311	11083
931.415	10942
931.519	10721
931.623	10748
