Data from test_V78500241_753.txt Node
Date: Fri Mar 25 15:15:06 CST 2022
User: usil
Spectrometer: V785-0024
Trigger mode: 0
Integration Time (sec): 4.000000E-1
Scans to average: 1
Nonlinearity correction enabled: false
Boxcar width: 0
Storing dark spectrum: false
XAxis mode: Wavelengths
Number of Pixels in Spectrum: 1024
>>>>>Begin Spectral Data<<<<<
801.071	27530
801.214	27564
801.356	27367
801.499	27302
801.641	27222
801.783	27085
801.926	27275
802.068	27252
802.211	26998
802.353	26929
802.496	26796
802.638	26765
802.78	26823
802.923	26689
803.065	26727
803.208	26765
803.35	26800
803.492	27001
803.635	26971
803.777	26830
803.919	26933
804.061	27298
804.204	27093
804.346	26895
804.488	26861
804.63	26796
804.773	26906
804.915	27032
805.057	27013
805.199	26994
805.341	27104
805.483	27123
805.626	27142
805.768	26963
805.91	27119
806.052	27013
806.194	27047
806.336	27325
806.478	27112
806.62	27036
806.762	27192
806.904	27310
807.046	27553
807.188	27458
807.33	27534
807.472	27389
807.614	27405
807.756	27427
807.898	27431
808.04	27264
808.182	27359
808.324	27294
808.465	27439
808.607	27576
808.749	27682
808.891	27774
809.033	27808
809.174	27804
809.316	27720
809.458	27831
809.6	27709
809.741	27975
809.883	27907
810.025	27941
810.166	28048
810.308	28082
810.45	27903
810.591	27808
810.733	27766
810.875	27671
811.016	27739
811.158	27614
811.299	27785
811.441	27816
811.582	27793
811.724	27736
811.865	27549
812.007	27747
812.148	27857
812.29	27625
812.431	27873
812.573	28204
812.714	28188
812.855	28295
812.997	28398
813.138	28481
813.279	28489
813.421	28268
813.562	28226
813.703	28147
813.845	28013
813.986	27698
814.127	27530
814.268	27416
814.41	27462
814.551	27325
814.692	27561
814.833	27450
814.974	27454
815.115	27454
815.256	27233
815.397	27291
815.539	27260
815.68	27157
815.821	27146
815.962	27283
816.103	27195
816.244	27176
816.385	26990
816.526	27047
816.666	26777
816.807	26716
816.948	26743
817.089	26891
817.23	26788
817.371	26800
817.512	26552
817.653	26594
817.793	26655
817.934	26804
818.075	26712
818.216	26731
818.356	26617
818.497	26594
818.638	26446
818.778	26473
818.919	26355
819.06	26423
819.2	26609
819.341	26701
819.481	26682
819.622	26811
819.762	26960
819.903	26921
820.043	26853
820.184	26872
820.324	26804
820.465	26899
820.605	26887
820.746	26895
820.886	26663
821.026	26746
821.167	26708
821.307	26971
821.447	26511
821.588	26625
821.728	26518
821.868	26305
822.008	26054
822.149	26172
822.289	26103
822.429	25890
822.569	25826
822.709	25811
822.849	25814
822.99	25666
823.13	25658
823.27	25521
823.41	25457
823.55	25346
823.69	25521
823.83	25426
823.97	25582
824.11	25350
824.25	25217
824.389	25308
824.529	25468
824.669	25145
824.809	25453
824.949	25449
825.089	25487
825.228	25388
825.368	25198
825.508	25076
825.648	25225
825.787	25126
825.927	25206
826.067	25027
826.206	25247
826.346	25152
826.485	25110
826.625	25145
826.765	25274
826.904	25156
827.044	25004
827.183	24863
827.323	24897
827.462	24973
827.601	25004
827.741	24844
827.88	24863
828.02	24779
828.159	24692
828.298	24848
828.437	24996
828.577	24916
828.716	24886
828.855	24707
828.994	24627
829.134	24608
829.273	24593
829.412	24547
829.551	24433
829.69	24582
829.829	24551
829.968	24776
830.107	24711
830.246	24498
830.385	24422
830.524	24505
830.663	24475
830.802	24391
830.941	24155
831.08	24121
831.219	24258
831.357	24216
831.496	24384
831.635	24102
831.774	24072
831.913	24133
832.051	24030
832.19	23961
832.329	24011
832.467	23817
832.606	23752
832.744	23817
832.883	23847
833.022	23969
833.16	23882
833.299	23870
833.437	23977
833.576	23942
833.714	23984
833.852	24041
833.991	24049
834.129	23973
834.267	24003
834.406	23870
834.544	23973
834.682	23863
834.821	23927
834.959	24007
835.097	23828
835.235	23878
835.373	23901
835.511	23939
835.65	23668
835.788	23741
835.926	23699
836.064	23558
836.202	23539
836.34	23748
836.478	23878
836.615	23733
836.753	23878
836.891	23836
837.029	23733
837.167	23627
837.305	23646
837.443	23642
837.58	23554
837.718	23710
837.856	23551
837.993	23547
838.131	23710
838.269	23436
838.406	23467
838.544	23440
838.681	23181
838.819	23197
838.956	23003
839.094	23003
839.231	23022
839.369	23189
839.506	23311
839.643	23356
839.781	23022
839.918	22930
840.055	22957
840.193	23029
840.33	22953
840.467	22923
840.604	23064
840.742	23280
840.879	22782
841.016	22938
841.153	23025
841.29	23109
841.427	22927
841.564	23048
841.701	22980
841.838	22965
841.975	22820
842.112	22843
842.249	22801
842.385	22767
842.522	22873
842.659	22733
842.796	22679
842.933	22687
843.069	22683
843.206	22713
843.343	22900
843.479	22767
843.616	22679
843.752	22500
843.889	22561
844.025	22645
844.162	22516
844.298	22630
844.435	22478
844.571	22474
844.708	22455
844.844	22577
844.98	22736
845.117	22542
845.253	22489
845.389	22432
845.525	22390
845.661	22409
845.798	22306
845.934	22284
846.07	22204
846.206	22230
846.342	22394
846.478	22249
846.614	22090
846.75	21983
846.886	21937
847.022	22109
847.158	21979
847.294	21979
847.429	21975
847.565	21945
847.701	22143
847.837	21770
847.972	21720
848.108	21785
848.244	21865
848.379	21603
848.515	21667
848.65	21618
848.786	21652
848.921	21656
849.057	21671
849.192	21724
849.328	21488
849.463	21690
849.598	21576
849.734	21435
849.869	21310
850.004	21279
850.14	21496
850.275	21359
850.41	21249
850.545	21355
850.68	21233
850.815	21374
850.95	21370
851.085	21370
851.22	21485
851.355	21275
851.49	21321
851.625	21222
851.76	21367
851.895	21317
852.03	21207
852.165	21135
852.299	21420
852.434	21325
852.569	21439
852.703	21348
852.838	21397
852.973	21496
853.107	21473
853.242	21340
853.376	21230
853.511	21009
853.645	21017
853.78	21389
853.914	21241
854.048	21085
854.183	21116
854.317	21119
854.451	21233
854.585	21066
854.72	21256
854.854	21241
854.988	21211
855.122	21047
855.256	20979
855.39	21142
855.524	21203
855.658	21176
855.792	21066
855.926	21104
856.06	21154
856.194	21252
856.327	20960
856.461	21043
856.595	21195
856.729	21104
856.862	21233
856.996	21169
857.13	21279
857.263	21306
857.397	21207
857.53	21154
857.664	21268
857.797	21252
857.931	21154
858.064	21218
858.197	21169
858.331	21199
858.464	21226
858.597	21127
858.731	21226
858.864	21127
858.997	21066
859.13	21058
859.263	21074
859.396	21222
859.529	21192
859.662	21207
859.795	21214
859.928	21195
860.061	21313
860.194	21351
860.327	21150
860.46	21176
860.592	21329
860.725	21310
860.858	21279
860.99	21310
861.123	21135
861.256	21100
861.388	21066
861.521	21892
861.653	21100
861.786	20914
861.918	20971
862.05	20982
862.183	21066
862.315	21135
862.447	21142
862.58	21032
862.712	20891
862.844	20880
862.976	21047
863.108	20918
863.24	21252
863.372	20792
863.504	20929
863.636	20823
863.768	20883
863.9	20887
864.032	20857
864.164	20754
864.296	20925
864.428	20910
864.559	21047
864.691	20914
864.823	20899
864.954	20830
865.086	20883
865.217	20781
865.349	20792
865.48	20686
865.612	20811
865.743	20925
865.875	20895
866.006	20724
866.137	20800
866.269	20689
866.4	20777
866.531	20689
866.662	20731
866.793	20632
866.924	20769
867.055	20735
867.186	20743
867.317	20686
867.448	20625
867.579	20621
867.71	20632
867.841	20693
867.972	20594
868.103	20636
868.233	20712
868.364	20667
868.495	20769
868.625	21028
868.756	21096
868.886	20826
869.017	20853
869.147	21062
869.278	21013
869.408	20918
869.539	21043
869.669	21017
869.799	20925
869.929	21184
870.06	21017
870.19	21268
870.32	21199
870.45	21355
870.58	21249
870.71	21340
870.84	21439
870.97	21306
871.1	21279
871.23	21469
871.36	21500
871.489	21386
871.619	21420
871.749	21473
871.879	21618
872.008	21625
872.138	21511
872.267	21511
872.397	21424
872.526	21408
872.656	21374
872.785	21264
872.915	21564
873.044	21629
873.173	21504
873.303	21572
873.432	21587
873.561	21652
873.69	21477
873.819	21690
873.948	21656
874.077	21515
874.206	21481
874.335	21538
874.464	21523
874.593	21781
874.722	21793
874.851	21778
874.979	21785
875.108	21766
875.237	21694
875.365	21679
875.494	21774
875.623	21892
875.751	21781
875.88	21808
876.008	21899
876.136	21960
876.265	22219
876.393	22200
876.521	22242
876.65	22371
876.778	22211
876.906	22177
877.034	22082
877.162	22124
877.29	22006
877.418	22055
877.546	22196
877.674	22112
877.802	22154
877.93	22173
878.058	22044
878.185	22063
878.313	22032
878.441	22124
878.568	21888
878.696	22032
878.824	22219
878.951	22215
879.079	22272
879.206	22337
879.333	22219
879.461	22185
879.588	22215
879.715	22272
879.842	22451
879.97	22131
880.097	21949
880.224	21926
880.351	21884
880.478	21941
880.605	21789
880.732	21922
880.859	22128
880.986	21865
881.112	22032
881.239	21831
881.366	21667
881.493	21747
881.619	21496
881.746	21572
881.872	21622
881.999	21488
882.125	21469
882.252	21591
882.378	21523
882.505	21576
882.631	21485
882.757	21336
882.883	21294
883.01	21184
883.136	21268
883.262	21211
883.388	21096
883.514	21222
883.64	21245
883.766	21070
883.892	21028
884.018	21013
884.143	21039
884.269	21207
884.395	20857
884.52	20857
884.646	20845
884.772	20826
884.897	20735
885.023	20880
885.148	20895
885.274	21108
885.399	20986
885.524	20811
885.65	20902
885.775	20872
885.9	20921
886.025	20925
886.15	20902
886.275	20727
886.4	20750
886.525	20758
886.65	20746
886.775	20746
886.9	20925
887.025	21100
887.149	20876
887.274	20648
887.399	20651
887.523	20571
887.648	20617
887.773	20606
887.897	20590
888.021	20644
888.146	20560
888.27	20609
888.395	20693
888.519	20727
888.643	20693
888.767	20746
888.891	20621
889.015	20366
889.139	20587
889.263	20419
889.387	20511
889.511	20587
889.635	20549
889.759	20438
889.883	20431
890.006	20446
890.13	20393
890.254	20267
890.377	20343
890.501	20084
890.624	20195
890.748	20278
890.871	20191
890.995	20005
891.118	20024
891.241	20149
891.364	19951
891.488	20119
891.611	20126
891.734	20115
891.857	19970
891.98	20012
892.103	20058
892.226	20058
892.349	19989
892.471	19921
892.594	19928
892.717	19974
892.839	19917
892.962	19989
893.085	19871
893.207	19879
893.33	19902
893.452	19833
893.575	19890
893.697	19871
893.819	20084
893.941	20130
894.064	20084
894.186	19883
894.308	19681
894.43	19986
894.552	20073
894.674	20107
894.796	19868
894.918	19795
895.04	19769
895.161	19963
895.283	19947
895.405	19803
895.526	19978
895.648	19830
895.769	19970
895.891	19951
896.012	19967
896.134	19936
896.255	19959
896.376	19944
896.498	19936
896.619	19913
896.74	19871
896.861	19993
896.982	20225
897.103	20347
897.224	20168
897.345	20111
897.466	20054
897.587	20043
897.708	20271
897.828	20252
897.949	20084
898.07	20069
898.19	20081
898.311	20164
898.431	20043
898.552	20271
898.672	20229
898.792	20233
898.913	20134
899.033	19963
899.153	19947
899.273	19818
899.393	19906
899.513	19967
899.633	19928
899.753	19837
899.873	19833
899.993	20016
900.113	19833
900.232	19875
900.352	19852
900.472	19788
900.591	19613
900.711	19845
900.83	19597
900.95	19864
901.069	19727
901.189	19662
901.308	19358
901.427	19282
901.546	19400
901.665	19270
901.784	19297
901.904	19194
902.023	19061
902.141	18932
902.26	18875
902.379	18875
902.498	18806
902.617	18825
902.735	18814
902.854	18840
902.973	18627
903.091	18494
903.21	18448
903.328	18445
903.446	18342
903.565	18296
903.683	18281
903.801	18167
903.919	18292
904.038	18171
904.156	18110
904.274	18095
904.392	18064
904.51	18007
904.627	17965
904.745	18026
904.863	18026
904.981	17809
905.098	17714
905.216	17748
905.334	17771
905.451	17707
905.569	17691
905.686	17707
905.803	17691
905.921	17505
906.038	17684
906.155	17627
906.272	17402
906.389	17448
906.506	17269
906.623	17242
906.74	17246
906.857	17147
906.974	17147
907.091	17254
907.208	17277
907.324	17200
907.441	17189
907.557	16999
907.674	16991
907.79	16972
907.907	16957
908.023	17075
908.139	17014
908.256	16831
908.372	16793
908.488	16858
908.604	16736
908.72	16588
908.836	16729
908.952	16668
909.068	16649
909.184	16744
909.3	16687
909.415	16706
909.531	16630
909.647	16508
909.762	16440
909.878	16352
909.993	16398
910.108	16284
910.224	16402
910.339	16394
910.454	16306
910.57	16109
910.685	16059
910.8	16363
910.915	16318
911.03	16177
911.145	16128
911.259	16055
911.374	15895
911.489	15972
911.604	15956
911.718	15736
911.833	15816
911.947	15622
912.062	15481
912.176	15663
912.291	15633
912.405	15717
912.519	15888
912.633	15960
912.748	15622
912.862	15724
912.976	15496
913.09	15374
913.204	15580
913.318	15473
913.431	15629
913.545	15564
913.659	15622
913.772	15507
913.886	15256
914	15325
914.113	15351
914.226	15458
914.34	15405
914.453	15184
914.566	15401
914.68	15313
914.793	15184
914.906	15085
915.019	14952
915.132	14880
915.245	14918
915.358	14944
915.47	14914
915.583	14967
915.696	14948
915.809	15001
915.921	14975
916.034	14902
916.146	14872
916.259	14804
916.371	14994
916.483	14948
916.595	14842
916.708	14842
916.82	14834
916.932	14769
917.044	14743
917.156	14788
917.268	14689
917.38	14644
917.491	14659
917.603	14632
917.715	14667
917.826	14640
917.938	14552
918.049	14507
918.161	14431
918.272	14678
918.384	14716
918.495	14590
918.606	14503
918.717	14389
918.828	14385
918.939	14278
919.05	14313
919.161	14381
919.272	14161
919.383	14275
919.494	14469
919.604	14606
919.715	14389
919.826	14244
919.936	14244
920.047	14389
920.157	14374
920.267	14583
920.378	14294
920.488	14313
920.598	14461
920.708	14644
920.818	14556
920.928	14469
921.038	14629
921.148	14610
921.258	14240
921.368	14298
921.477	14054
921.587	14145
921.697	14065
921.806	14123
921.916	13982
922.025	13830
922.134	13841
922.244	13719
922.353	13807
922.462	13601
922.571	13552
922.68	13422
922.789	13415
922.898	13346
923.007	13251
923.116	13388
923.224	13422
923.333	13278
923.442	13198
923.55	13263
923.659	13244
923.767	13316
923.876	13133
923.984	13171
924.092	13168
924.201	13152
924.309	13107
924.417	13114
924.525	13061
924.633	13095
924.741	13788
924.849	12791
924.956	12958
925.064	12848
925.172	12692
925.279	12825
925.387	12817
925.494	12772
925.602	12863
925.709	12901
925.816	12665
925.924	12753
926.031	12802
926.138	12810
926.245	12768
926.352	12673
926.459	12791
926.566	12837
926.673	12627
926.779	12547
926.886	12544
926.993	12513
927.099	12361
927.206	12308
927.312	12391
927.419	12426
927.525	12380
927.631	12395
927.737	12213
927.843	12273
927.95	12041
928.056	12190
928.162	12159
928.267	12338
928.373	12844
928.479	12197
928.585	11996
928.69	12194
928.796	12125
928.901	12095
929.007	11973
929.112	11992
929.218	12064
929.323	11916
929.428	11832
929.533	12045
929.638	11878
929.743	11866
929.848	11939
929.953	11855
930.058	11802
930.163	11722
930.267	11630
930.372	11729
930.477	11600
930.581	11805
930.685	11665
930.79	11532
930.894	11600
930.998	11448
931.103	11570
931.207	11250
931.311	11151
931.415	11162
931.519	10835
931.623	10938
