Data from test_V78500241_270.txt Node
Date: Fri Mar 25 15:11:44 CST 2022
User: usil
Spectrometer: V785-0024
Trigger mode: 0
Integration Time (sec): 4.000000E-1
Scans to average: 1
Nonlinearity correction enabled: false
Boxcar width: 0
Storing dark spectrum: false
XAxis mode: Wavelengths
Number of Pixels in Spectrum: 1024
>>>>>Begin Spectral Data<<<<<
801.071	28337
801.214	28303
801.356	28067
801.499	27884
801.641	27892
801.783	27808
801.926	27968
802.068	27895
802.211	27720
802.353	27701
802.496	27530
802.638	27519
802.78	27408
802.923	27492
803.065	27302
803.208	27427
803.35	27515
803.492	27622
803.635	27625
803.777	27561
803.919	27682
804.061	27991
804.204	27637
804.346	27507
804.488	27462
804.63	27545
804.773	27420
804.915	27568
805.057	27671
805.199	27595
805.341	27564
805.483	27717
805.626	27739
805.768	27538
805.91	27720
806.052	27743
806.194	27682
806.336	27823
806.478	27686
806.62	27781
806.762	27895
806.904	27934
807.046	28158
807.188	28223
807.33	27880
807.472	28303
807.614	27892
807.756	27987
807.898	27911
808.04	27953
808.182	27892
808.324	27922
808.465	27892
808.607	28059
808.749	28310
808.891	28303
809.033	28466
809.174	28424
809.316	28234
809.458	28379
809.6	28162
809.741	28322
809.883	28523
810.025	28588
810.166	28504
810.308	28557
810.45	28500
810.591	28504
810.733	28238
810.875	28246
811.016	28051
811.158	28074
811.299	28261
811.441	28451
811.582	28280
811.724	28329
811.865	28268
812.007	28341
812.148	28238
812.29	28409
812.431	28386
812.573	28618
812.714	28729
812.855	28713
812.997	28930
813.138	29109
813.279	28733
813.421	28755
813.562	28820
813.703	28527
813.845	28459
813.986	28291
814.127	27907
814.268	27880
814.41	28021
814.551	27930
814.692	27975
814.833	27713
814.974	27819
815.115	27808
815.256	27625
815.397	27781
815.539	27717
815.68	27679
815.821	27481
815.962	27686
816.103	27698
816.244	27561
816.385	27534
816.526	27348
816.666	27230
816.807	27104
816.948	27241
817.089	27321
817.23	27245
817.371	27188
817.512	27291
817.653	27077
817.793	27096
817.934	27089
818.075	27135
818.216	27199
818.356	27017
818.497	27096
818.638	26910
818.778	26792
818.919	26910
819.06	26819
819.2	27184
819.341	27089
819.481	27077
819.622	27340
819.762	27405
819.903	27382
820.043	27245
820.184	27165
820.324	27169
820.465	27241
820.605	27298
820.746	27226
820.886	26963
821.026	27222
821.167	26975
821.307	27108
821.447	27089
821.588	27062
821.728	26887
821.868	26731
822.008	26522
822.149	26450
822.289	26560
822.429	26263
822.569	26282
822.709	26210
822.849	26100
822.99	25902
823.13	26001
823.27	26084
823.41	25917
823.55	25696
823.69	25830
823.83	25811
823.97	25723
824.11	25674
824.25	25609
824.389	25563
824.529	25662
824.669	25666
824.809	25780
824.949	25849
825.089	25833
825.228	25788
825.368	25544
825.508	25525
825.648	25422
825.787	25571
825.927	25521
826.067	25525
826.206	25529
826.346	25601
826.485	25495
826.625	25472
826.765	25635
826.904	25537
827.044	25324
827.183	25266
827.323	25236
827.462	25225
827.601	25278
827.741	25080
827.88	25236
828.02	25206
828.159	25187
828.298	25244
828.437	25148
828.577	25183
828.716	25179
828.855	25247
828.994	24848
829.134	24935
829.273	24886
829.412	24894
829.551	24814
829.69	24977
829.829	24913
829.968	24970
830.107	24962
830.246	24844
830.385	24783
830.524	24779
830.663	24730
830.802	24597
830.941	24460
831.08	24350
831.219	24536
831.357	24513
831.496	24661
831.635	24407
831.774	24441
831.913	24361
832.051	24163
832.19	24247
832.329	24254
832.467	24213
832.606	24064
832.744	24026
832.883	24114
833.022	24045
833.16	24163
833.299	24197
833.437	24098
833.576	24163
833.714	24148
833.852	24167
833.991	24076
834.129	24205
834.267	24254
834.406	24254
834.544	24190
834.682	24209
834.821	24186
834.959	24254
835.097	24114
835.235	24102
835.373	24102
835.511	24178
835.65	24003
835.788	24034
835.926	23954
836.064	23794
836.202	23935
836.34	23904
836.478	24133
836.615	23931
836.753	24057
836.891	24152
837.029	24106
837.167	23866
837.305	23958
837.443	23832
837.58	23901
837.718	23828
837.856	23874
837.993	23908
838.131	23863
838.269	23680
838.406	23843
838.544	23528
838.681	23467
838.819	23657
838.956	23288
839.094	23296
839.231	23334
839.369	23486
839.506	23748
839.643	23524
839.781	23315
839.918	23368
840.055	23250
840.193	23353
840.33	23227
840.467	23231
840.604	23136
840.742	23444
840.879	22976
841.016	23102
841.153	23071
841.29	23311
841.427	23246
841.564	23147
841.701	23258
841.838	23094
841.975	23010
842.112	23132
842.249	23033
842.385	22984
842.522	23037
842.659	22862
842.796	22957
842.933	22999
843.069	22885
843.206	22889
843.343	22850
843.479	22953
843.616	22881
843.752	22626
843.889	22668
844.025	22816
844.162	22565
844.298	22885
844.435	22748
844.571	22656
844.708	22744
844.844	22904
844.98	22759
845.117	22675
845.253	22687
845.389	22500
845.525	22721
845.661	22424
845.798	22478
845.934	22337
846.07	22303
846.206	22459
846.342	22550
846.478	22417
846.614	22158
846.75	22051
846.886	22242
847.022	22139
847.158	22188
847.294	22204
847.429	22207
847.565	22207
847.701	22310
847.837	21876
847.972	21762
848.108	21987
848.244	22025
848.379	21739
848.515	21751
848.65	21709
848.786	21561
848.921	21797
849.057	21800
849.192	21854
849.328	21728
849.463	21694
849.598	21682
849.734	21473
849.869	21629
850.004	21458
850.14	21500
850.275	21564
850.41	21355
850.545	21450
850.68	21405
850.815	21515
850.95	21424
851.085	21648
851.22	21580
851.355	21424
851.49	21542
851.625	21389
851.76	21393
851.895	21370
852.03	21374
852.165	21507
852.299	21488
852.434	21526
852.569	21610
852.703	21485
852.838	21538
852.973	21515
853.107	21583
853.242	21389
853.376	21195
853.511	21256
853.645	21161
853.78	21488
853.914	21348
854.048	21245
854.183	21370
854.317	21138
854.451	21389
854.585	21237
854.72	21199
854.854	21329
854.988	21279
855.122	21317
855.256	21142
855.39	21294
855.524	21370
855.658	21226
855.792	21283
855.926	21313
856.06	21359
856.194	21351
856.327	21150
856.461	21157
856.595	21188
856.729	21237
856.862	21268
856.996	21264
857.13	21378
857.263	21382
857.397	21329
857.53	21226
857.664	21344
857.797	21401
857.931	21336
858.064	21279
858.197	21336
858.331	21230
858.464	21195
858.597	21150
858.731	21173
858.864	21093
858.997	21237
859.13	21180
859.263	21211
859.396	21408
859.529	21173
859.662	21249
859.795	21146
859.928	21222
860.061	21321
860.194	21450
860.327	21260
860.46	21313
860.592	21416
860.725	21348
860.858	21317
860.99	21245
861.123	21233
861.256	21226
861.388	21192
861.521	21838
861.653	21180
861.786	21081
861.918	21070
862.05	21176
862.183	21264
862.315	21074
862.447	21230
862.58	21112
862.712	20967
862.844	20937
862.976	21116
863.108	20952
863.24	21504
863.372	20845
863.504	20960
863.636	20967
863.768	20849
863.9	20861
864.032	20948
864.164	20933
864.296	20967
864.428	20921
864.559	21017
864.691	21020
864.823	20914
864.954	20986
865.086	20925
865.217	20880
865.349	20750
865.48	20769
865.612	20815
865.743	20902
865.875	20842
866.006	20746
866.137	20800
866.269	20765
866.4	20853
866.531	20811
866.662	20735
866.793	20754
866.924	20811
867.055	20845
867.186	20724
867.317	20769
867.448	20659
867.579	20598
867.71	20708
867.841	20731
867.972	20636
868.103	20720
868.233	20731
868.364	20815
868.495	20880
868.625	21009
868.756	21184
868.886	20952
869.017	20960
869.147	21211
869.278	21157
869.408	20956
869.539	20982
869.669	21013
869.799	21013
869.929	21199
870.06	21180
870.19	21237
870.32	21306
870.45	21294
870.58	21393
870.71	21454
870.84	21462
870.97	21317
871.1	21256
871.23	21580
871.36	21564
871.489	21416
871.619	21557
871.749	21591
871.879	21614
872.008	21762
872.138	21580
872.267	21603
872.397	21523
872.526	21439
872.656	21275
872.785	21420
872.915	21679
873.044	21690
873.173	21720
873.303	21583
873.432	21633
873.561	21637
873.69	21701
873.819	21614
873.948	21660
874.077	21595
874.206	21648
874.335	21629
874.464	21903
874.593	21816
874.722	21892
874.851	21873
874.979	21884
875.108	21854
875.237	21701
875.365	21789
875.494	21869
875.623	21941
875.751	21880
875.88	21838
876.008	21861
876.136	22131
876.265	22173
876.393	22253
876.521	22386
876.65	22303
876.778	22120
876.906	22074
877.034	22204
877.162	22299
877.29	22158
877.418	22249
877.546	22223
877.674	22249
877.802	22105
877.93	22200
878.058	22139
878.185	22086
878.313	22226
878.441	22139
878.568	22112
878.696	22188
878.824	22166
878.951	22375
879.079	22421
879.206	22519
879.333	22417
879.461	22192
879.588	22265
879.715	22386
879.842	22443
879.97	22394
880.097	21979
880.224	22139
880.351	22032
880.478	21998
880.605	21998
880.732	22036
880.859	22204
880.986	22101
881.112	22090
881.239	21899
881.366	21690
881.493	21641
881.619	21557
881.746	21720
881.872	21572
881.999	21663
882.125	21572
882.252	21644
882.378	21564
882.505	21713
882.631	21389
882.757	21325
882.883	21431
883.01	21329
883.136	21173
883.262	21131
883.388	21157
883.514	21363
883.64	21302
883.766	21195
883.892	21096
884.018	21165
884.143	21260
884.269	21283
884.395	20944
884.52	20929
884.646	20925
884.772	20785
884.897	20899
885.023	20937
885.148	21077
885.274	20971
885.399	21085
885.524	20823
885.65	20891
885.775	20963
885.9	20941
886.025	21013
886.15	20956
886.275	20998
886.4	20883
886.525	20929
886.65	20876
886.775	20872
886.9	21077
887.025	21074
887.149	20804
887.274	20682
887.399	20632
887.523	20629
887.648	20644
887.773	20568
887.897	20796
888.021	20708
888.146	20644
888.27	20796
888.395	20792
888.519	20727
888.643	20777
888.767	20811
888.891	20609
889.015	20492
889.139	20678
889.263	20332
889.387	20598
889.511	20765
889.635	20636
889.759	20434
889.883	20556
890.006	20575
890.13	20686
890.254	20488
890.377	20465
890.501	20172
890.624	20332
890.748	20298
890.871	20221
890.995	20187
891.118	20035
891.241	20145
891.364	20119
891.488	20149
891.611	20206
891.734	20039
891.857	20077
891.98	20100
892.103	20161
892.226	20058
892.349	20069
892.471	19940
892.594	19944
892.717	20031
892.839	20062
892.962	20027
893.085	20062
893.207	20016
893.33	19849
893.452	19917
893.575	20073
893.697	19940
893.819	20149
893.941	20187
894.064	20134
894.186	19909
894.308	19887
894.43	20122
894.552	20149
894.674	20103
894.796	19917
894.918	20027
895.04	19986
895.161	19902
895.283	20008
895.405	20016
895.526	20084
895.648	19970
895.769	20084
895.891	20153
896.012	19936
896.134	20020
896.255	20043
896.376	20016
896.498	19951
896.619	20164
896.74	19928
896.861	20012
896.982	20336
897.103	20533
897.224	20225
897.345	20377
897.466	20195
897.587	20263
897.708	20263
897.828	20423
897.949	20210
898.07	20024
898.19	20134
898.311	20256
898.431	20084
898.552	20233
898.672	20244
898.792	20111
898.913	20149
899.033	20084
899.153	19940
899.273	19902
899.393	20096
899.513	19989
899.633	19890
899.753	19944
899.873	19841
899.993	19944
900.113	19837
900.232	19883
900.352	19902
900.472	19784
900.591	19807
900.711	19818
900.83	19681
900.95	19746
901.069	19791
901.189	19708
901.308	19411
901.427	19285
901.546	19327
901.665	19350
901.784	19289
901.904	19209
902.023	19091
902.141	18875
902.26	18779
902.379	18924
902.498	18829
902.617	18913
902.735	18772
902.854	18844
902.973	18772
903.091	18547
903.21	18437
903.328	18513
903.446	18361
903.565	18281
903.683	18395
903.801	18178
903.919	18220
904.038	18251
904.156	18171
904.274	18277
904.392	17927
904.51	18121
904.627	17984
904.745	18254
904.863	18091
904.981	17866
905.098	17779
905.216	17786
905.334	17790
905.451	17638
905.569	17775
905.686	17821
905.803	17684
905.921	17463
906.038	17642
906.155	17524
906.272	17532
906.389	17558
906.506	17273
906.623	17322
906.74	17227
906.857	17155
906.974	17185
907.091	17303
907.208	17345
907.324	17337
907.441	17239
907.557	16976
907.674	17033
907.79	16961
907.907	16892
908.023	17025
908.139	16942
908.256	17003
908.372	16915
908.488	16835
908.604	16698
908.72	16717
908.836	16717
908.952	16580
909.068	16615
909.184	16713
909.3	16603
909.415	16755
909.531	16717
909.647	16478
909.762	16352
909.878	16337
909.993	16402
910.108	16367
910.224	16348
910.339	16314
910.454	16295
910.57	16169
910.685	16120
910.8	16360
910.915	16341
911.03	16162
911.145	16048
911.259	15915
911.374	16078
911.489	16051
911.604	15751
911.718	15747
911.833	15770
911.947	15572
912.062	15488
912.176	15728
912.291	15774
912.405	15709
912.519	15888
912.633	15907
912.748	15755
912.862	15675
912.976	15622
913.09	15382
913.204	15545
913.318	15603
913.431	15679
913.545	15663
913.659	15713
913.772	15492
913.886	15363
914	15279
914.113	15374
914.226	15511
914.34	15344
914.453	15180
914.566	15340
914.68	15298
914.793	15211
914.906	15058
915.019	14994
915.132	14967
915.245	15043
915.358	14960
915.47	14963
915.583	14994
915.696	14952
915.809	15051
915.921	15047
916.034	14826
916.146	14861
916.259	14944
916.371	14952
916.483	14944
916.595	14819
916.708	14788
916.82	14754
916.932	14830
917.044	14712
917.156	14708
917.268	14560
917.38	14613
917.491	14571
917.603	14587
917.715	14667
917.826	14659
917.938	14571
918.049	14412
918.161	14564
918.272	14674
918.384	14648
918.495	14537
918.606	14438
918.717	14298
918.828	14374
918.939	14412
919.05	14271
919.161	14233
919.272	14176
919.383	14199
919.494	14355
919.604	14518
919.715	14351
919.826	14172
919.936	14282
920.047	14427
920.157	14324
920.267	14488
920.378	14218
920.488	14294
920.598	14469
920.708	14651
920.818	14495
920.928	14412
921.038	14507
921.148	14560
921.258	14267
921.368	14164
921.477	14027
921.587	14031
921.697	13947
921.806	14062
921.916	13913
922.025	13719
922.134	13696
922.244	13616
922.353	13750
922.462	13662
922.571	13529
922.68	13297
922.789	13331
922.898	13384
923.007	13354
923.116	13411
923.224	13354
923.333	13400
923.442	13156
923.55	13129
923.659	13240
923.767	13293
923.876	13053
923.984	13194
924.092	13088
924.201	13091
924.309	13061
924.417	13061
924.525	12977
924.633	13046
924.741	13784
924.849	12814
924.956	12909
925.064	12837
925.172	12776
925.279	12791
925.387	12787
925.494	12692
925.602	12973
925.709	12829
925.816	12658
925.924	12700
926.031	12779
926.138	12700
926.245	12700
926.352	12631
926.459	12734
926.566	12783
926.673	12544
926.779	12585
926.886	12525
926.993	12338
927.099	12361
927.206	12292
927.312	12296
927.419	12235
927.525	12277
927.631	12361
927.737	12232
927.843	12167
927.95	11977
928.056	12083
928.162	12194
928.267	12258
928.373	12684
928.479	12232
928.585	11954
928.69	12167
928.796	12098
928.901	12041
929.007	11897
929.112	11901
929.218	12015
929.323	11824
929.428	11817
929.533	12053
929.638	11832
929.743	11870
929.848	11855
929.953	11832
930.058	11752
930.163	11581
930.267	11642
930.372	11604
930.477	11573
930.581	11726
930.685	11604
930.79	11505
930.894	11440
930.998	11429
931.103	11551
931.207	11143
931.311	11124
931.415	11094
931.519	10862
931.623	10721
