Data from test_V78500241_1057.txt Node
Date: Fri Mar 25 15:17:13 CST 2022
User: usil
Spectrometer: V785-0024
Trigger mode: 0
Integration Time (sec): 4.000000E-1
Scans to average: 1
Nonlinearity correction enabled: false
Boxcar width: 0
Storing dark spectrum: false
XAxis mode: Wavelengths
Number of Pixels in Spectrum: 1024
>>>>>Begin Spectral Data<<<<<
801.071	28147
801.214	28051
801.356	27781
801.499	27884
801.641	27545
801.783	27743
801.926	27846
802.068	27827
802.211	27671
802.353	27637
802.496	27405
802.638	27340
802.78	27359
802.923	27382
803.065	27458
803.208	27287
803.35	27264
803.492	27469
803.635	27614
803.777	27344
803.919	27530
804.061	27759
804.204	27652
804.346	27526
804.488	27500
804.63	27363
804.773	27401
804.915	27755
805.057	27660
805.199	27637
805.341	27747
805.483	27804
805.626	27667
805.768	27583
805.91	27682
806.052	27800
806.194	27644
806.336	27884
806.478	27857
806.62	27892
806.762	28032
806.904	28105
807.046	28169
807.188	28128
807.33	28112
807.472	28116
807.614	28090
807.756	28116
807.898	27941
808.04	27968
808.182	27960
808.324	28078
808.465	28192
808.607	28181
808.749	28360
808.891	28527
809.033	28478
809.174	28519
809.316	28432
809.458	28375
809.6	28268
809.741	28329
809.883	28523
810.025	28672
810.166	28653
810.308	28656
810.45	28630
810.591	28603
810.733	28371
810.875	28360
811.016	28306
811.158	28360
811.299	28440
811.441	28573
811.582	28557
811.724	28371
811.865	28348
812.007	28341
812.148	28261
812.29	28428
812.431	28672
812.573	28702
812.714	29003
812.855	28904
812.997	28915
813.138	29052
813.279	28923
813.421	28961
813.562	28866
813.703	28782
813.845	28607
813.986	28337
814.127	28223
814.268	28143
814.41	28143
814.551	28017
814.692	28181
814.833	28048
814.974	28135
815.115	28120
815.256	27994
815.397	28090
815.539	27987
815.68	27892
815.821	27797
815.962	27907
816.103	27930
816.244	27956
816.385	27785
816.526	27690
816.666	27511
816.807	27492
816.948	27500
817.089	27519
817.23	27420
817.371	27485
817.512	27389
817.653	27492
817.793	27367
817.934	27401
818.075	27435
818.216	27507
818.356	27416
818.497	27275
818.638	27169
818.778	27131
818.919	27169
819.06	27313
819.2	27329
819.341	27367
819.481	27534
819.622	27504
819.762	27747
819.903	27736
820.043	27606
820.184	27500
820.324	27633
820.465	27580
820.605	27530
820.746	27542
820.886	27344
821.026	27576
821.167	27515
821.307	27500
821.447	27401
821.588	27192
821.728	27176
821.868	26960
822.008	26910
822.149	26925
822.289	26792
822.429	26758
822.569	26499
822.709	26530
822.849	26431
822.99	26381
823.13	26393
823.27	26351
823.41	26278
823.55	26145
823.69	26370
823.83	26271
823.97	26138
824.11	26031
824.25	25906
824.389	26039
824.529	26183
824.669	26039
824.809	26077
824.949	26164
825.089	26195
825.228	26134
825.368	25951
825.508	25921
825.648	25936
825.787	25875
825.927	26058
826.067	25932
826.206	25799
826.346	25986
826.485	25909
826.625	25860
826.765	26058
826.904	25906
827.044	25738
827.183	25666
827.323	25575
827.462	25734
827.601	25693
827.741	25658
827.88	25628
828.02	25575
828.159	25651
828.298	25780
828.437	25696
828.577	25578
828.716	25685
828.855	25582
828.994	25377
829.134	25457
829.273	25396
829.412	25308
829.551	25449
829.69	25301
829.829	25457
829.968	25388
830.107	25533
830.246	25358
830.385	25316
830.524	25324
830.663	25160
830.802	25099
830.941	24928
831.08	24981
831.219	25091
831.357	24962
831.496	25114
831.635	25114
831.774	25084
831.913	24833
832.051	24867
832.19	24654
832.329	24878
832.467	24703
832.606	24585
832.744	24620
832.883	24669
833.022	24597
833.16	24681
833.299	24726
833.437	24901
833.576	24722
833.714	24722
833.852	24707
833.991	24783
834.129	24787
834.267	24787
834.406	24677
834.544	24760
834.682	24719
834.821	24722
834.959	24840
835.097	24745
835.235	24730
835.373	24760
835.511	24684
835.65	24646
835.788	24589
835.926	24578
836.064	24479
836.202	24376
836.34	24700
836.478	24627
836.615	24540
836.753	24570
836.891	24673
837.029	24521
837.167	24448
837.305	24388
837.443	24433
837.58	24475
837.718	24498
837.856	24452
837.993	24327
838.131	24460
838.269	24178
838.406	24350
838.544	24171
838.681	24003
838.819	23992
838.956	23965
839.094	23885
839.231	24030
839.369	23908
839.506	24239
839.643	24129
839.781	24003
839.918	23870
840.055	23843
840.193	23824
840.33	23767
840.467	23897
840.604	23813
840.742	23996
840.879	23665
841.016	23665
841.153	23760
841.29	23878
841.427	23756
841.564	23885
841.701	23722
841.838	23687
841.975	23737
842.112	23627
842.249	23566
842.385	23573
842.522	23752
842.659	23589
842.796	23611
842.933	23589
843.069	23608
843.206	23608
843.343	23535
843.479	23570
843.616	23551
843.752	23360
843.889	23467
844.025	23414
844.162	23429
844.298	23570
844.435	23292
844.571	23296
844.708	23299
844.844	23509
844.98	23535
845.117	23353
845.253	23353
845.389	23174
845.525	23296
845.661	23227
845.798	23166
845.934	23151
846.07	23121
846.206	23159
846.342	23250
846.478	23113
846.614	22824
846.75	22782
846.886	22622
847.022	22843
847.158	22763
847.294	22778
847.429	22850
847.565	22744
847.701	23044
847.837	22649
847.972	22508
848.108	22622
848.244	22561
848.379	22417
848.515	22337
848.65	22390
848.786	22424
848.921	22451
849.057	22451
849.192	22424
849.328	22436
849.463	22363
849.598	22356
849.734	22291
849.869	22116
850.004	22139
850.14	22086
850.275	22109
850.41	22055
850.545	22025
850.68	22169
850.815	22181
850.95	22090
851.085	22382
851.22	22257
851.355	22154
851.49	22090
851.625	22074
851.76	22246
851.895	22044
852.03	22036
852.165	22055
852.299	22188
852.434	22234
852.569	22261
852.703	22090
852.838	22188
852.973	22390
853.107	22249
853.242	22067
853.376	21968
853.511	21808
853.645	21979
853.78	22162
853.914	21975
854.048	21823
854.183	21903
854.317	21899
854.451	22249
854.585	22036
854.72	21975
854.854	22010
854.988	21972
855.122	21972
855.256	21838
855.39	21918
855.524	21926
855.658	21987
855.792	21956
855.926	21934
856.06	21979
856.194	21983
856.327	21846
856.461	21956
856.595	21827
856.729	21953
856.862	22101
856.996	22002
857.13	22051
857.263	22032
857.397	22036
857.53	22032
857.664	22074
857.797	21953
857.931	22070
858.064	21994
858.197	22112
858.331	21899
858.464	21739
858.597	21937
858.731	21937
858.864	21945
858.997	22044
859.13	21956
859.263	21983
859.396	21983
859.529	21979
859.662	21926
859.795	21953
859.928	22063
860.061	22036
860.194	22055
860.327	21945
860.46	21895
860.592	22036
860.725	22158
860.858	22154
860.99	21987
861.123	21876
861.256	21895
861.388	21869
861.521	22618
861.653	21880
861.786	21785
861.918	21888
862.05	21846
862.183	21907
862.315	21869
862.447	22017
862.58	21899
862.712	21606
862.844	21580
862.976	21682
863.108	21690
863.24	22097
863.372	21618
863.504	21656
863.636	21701
863.768	21705
863.9	21583
864.032	21587
864.164	21526
864.296	21633
864.428	21743
864.559	21915
864.691	21804
864.823	21663
864.954	21736
865.086	21644
865.217	21572
865.349	21469
865.48	21667
865.612	21576
865.743	21720
865.875	21660
866.006	21614
866.137	21538
866.269	21496
866.4	21553
866.531	21481
866.662	21431
866.793	21492
866.924	21473
867.055	21580
867.186	21435
867.317	21542
867.448	21469
867.579	21587
867.71	21370
867.841	21291
867.972	21374
868.103	21386
868.233	21488
868.364	21435
868.495	21637
868.625	21766
868.756	21736
868.886	21580
869.017	21732
869.147	21614
869.278	21850
869.408	21781
869.539	21717
869.669	21857
869.799	21781
869.929	21869
870.06	21751
870.19	22025
870.32	21972
870.45	22128
870.58	22116
870.71	22135
870.84	22158
870.97	22150
871.1	22067
871.23	22249
871.36	22360
871.489	22188
871.619	22192
871.749	22272
871.879	22443
872.008	22531
872.138	22333
872.267	22394
872.397	22109
872.526	22006
872.656	22078
872.785	22242
872.915	22333
873.044	22436
873.173	22314
873.303	22356
873.432	22318
873.561	22428
873.69	22318
873.819	22329
873.948	22398
874.077	22204
874.206	22291
874.335	22246
874.464	22356
874.593	22565
874.722	22421
874.851	22557
874.979	22535
875.108	22546
875.237	22493
875.365	22489
875.494	22489
875.623	22626
875.751	22390
875.88	22596
876.008	22668
876.136	22713
876.265	22896
876.393	22980
876.521	23044
876.65	23029
876.778	23014
876.906	22900
877.034	22911
877.162	22927
877.29	22919
877.418	22873
877.546	22896
877.674	22881
877.802	23003
877.93	22755
878.058	22908
878.185	22733
878.313	22797
878.441	22835
878.568	22740
878.696	22805
878.824	22862
878.951	22927
879.079	23071
879.206	23159
879.333	23086
879.461	22858
879.588	22961
879.715	23033
879.842	23128
879.97	22869
880.097	22774
880.224	22733
880.351	22717
880.478	22702
880.605	22736
880.732	22797
880.859	22911
880.986	22683
881.112	22850
881.239	22557
881.366	22611
881.493	22284
881.619	22333
881.746	22363
881.872	22356
881.999	22360
882.125	22177
882.252	22299
882.378	22253
882.505	22329
882.631	22093
882.757	21934
882.883	22013
883.01	21880
883.136	22029
883.262	21816
883.388	21835
883.514	22013
883.64	21968
883.766	21941
883.892	21732
884.018	21793
884.143	21865
884.269	21994
884.395	21641
884.52	21504
884.646	21644
884.772	21587
884.897	21492
885.023	21713
885.148	21717
885.274	21591
885.399	21606
885.524	21679
885.65	21553
885.775	21545
885.9	21671
886.025	21751
886.15	21603
886.275	21473
886.4	21485
886.525	21439
886.65	21671
886.775	21485
886.9	21774
887.025	21827
887.149	21599
887.274	21393
887.399	21264
887.523	21428
887.648	21325
887.773	21416
887.897	21420
888.021	21439
888.146	21306
888.27	21481
888.395	21389
888.519	21469
888.643	21412
888.767	21477
888.891	21344
889.015	21233
889.139	21211
889.263	21135
889.387	21336
889.511	21340
889.635	21378
889.759	21119
889.883	21051
890.006	21108
890.13	21294
890.254	21066
890.377	21085
890.501	20910
890.624	20872
890.748	20986
890.871	20804
890.995	20636
891.118	20754
891.241	20758
891.364	20739
891.488	20933
891.611	20708
891.734	20724
891.857	20819
891.98	20788
892.103	20781
892.226	20769
892.349	20686
892.471	20450
892.594	20545
892.717	20571
892.839	20598
892.962	20598
893.085	20674
893.207	20556
893.33	20492
893.452	20518
893.575	20686
893.697	20583
893.819	20777
893.941	20792
894.064	20689
894.186	20473
894.308	20541
894.43	20697
894.552	20845
894.674	20705
894.796	20503
894.918	20495
895.04	20480
895.161	20636
895.283	20556
895.405	20575
895.526	20564
895.648	20469
895.769	20495
895.891	20564
896.012	20670
896.134	20598
896.255	20537
896.376	20434
896.498	20663
896.619	20648
896.74	20609
896.861	20625
896.982	20948
897.103	21199
897.224	20769
897.345	20796
897.466	20693
897.587	20819
897.708	20925
897.828	20906
897.949	20678
898.07	20629
898.19	20659
898.311	20925
898.431	20804
898.552	20777
898.672	20804
898.792	20895
898.913	20785
899.033	20613
899.153	20644
899.273	20480
899.393	20530
899.513	20606
899.633	20446
899.753	20564
899.873	20465
899.993	20564
900.113	20587
900.232	20503
900.352	20419
900.472	20339
900.591	20332
900.711	20267
900.83	20183
900.95	20385
901.069	20446
901.189	20168
901.308	19986
901.427	19807
901.546	19921
901.665	19906
901.784	19864
901.904	19780
902.023	19674
902.141	19502
902.26	19354
902.379	19464
902.498	19407
902.617	19278
902.735	19381
902.854	19335
902.973	19369
903.091	19095
903.21	18970
903.328	19000
903.446	19015
903.565	18814
903.683	18810
903.801	18810
903.919	18875
904.038	18829
904.156	18650
904.274	18806
904.392	18547
904.51	18540
904.627	18582
904.745	18654
904.863	18669
904.981	18559
905.098	18323
905.216	18258
905.334	18357
905.451	18300
905.569	18315
905.686	18418
905.803	18270
905.921	18182
906.038	18220
906.155	18045
906.272	18007
906.389	17965
906.506	17882
906.623	17843
906.74	17798
906.857	17718
906.974	17737
907.091	17904
907.208	17935
907.324	17775
907.441	17695
907.557	17642
907.674	17615
907.79	17493
907.907	17611
908.023	17539
908.139	17615
908.256	17459
908.372	17459
908.488	17570
908.604	17277
908.72	17220
908.836	17220
908.952	17159
909.068	17395
909.184	17356
909.3	17284
909.415	17436
909.531	17242
909.647	17018
909.762	16980
909.878	16984
909.993	17010
910.108	16976
910.224	16968
910.339	16892
910.454	16763
910.57	16793
910.685	16786
910.8	16938
910.915	16828
911.03	16782
911.145	16577
911.259	16527
911.374	16554
911.489	16462
911.604	16432
911.718	16261
911.833	16276
911.947	16207
912.062	16078
912.176	16337
912.291	16249
912.405	16344
912.519	16527
912.633	16428
912.748	16371
912.862	16272
912.976	16097
913.09	15983
913.204	16063
913.318	16010
913.431	16207
913.545	16139
913.659	16166
913.772	16067
913.886	15918
914	15922
914.113	15987
914.226	16086
914.34	15911
914.453	15766
914.566	15915
914.68	15652
914.793	15797
914.906	15500
915.019	15488
915.132	15401
915.245	15447
915.358	15549
915.47	15572
915.583	15507
915.696	15485
915.809	15500
915.921	15576
916.034	15431
916.146	15424
916.259	15359
916.371	15504
916.483	15306
916.595	15336
916.708	15298
916.82	15317
916.932	15363
917.044	15260
917.156	15260
917.268	15150
917.38	15138
917.491	15108
917.603	15165
917.715	15135
917.826	15173
917.938	15058
918.049	15001
918.161	15093
918.272	15218
918.384	15222
918.495	14979
918.606	14906
918.717	14857
918.828	14979
918.939	14834
919.05	14781
919.161	14857
919.272	14632
919.383	14716
919.494	14929
919.604	15138
919.715	14819
919.826	14838
919.936	14796
920.047	14967
920.157	14750
920.267	15066
920.378	14819
920.488	14758
920.598	14975
920.708	15108
920.818	14921
920.928	15020
921.038	15127
921.148	15055
921.258	14769
921.368	14670
921.477	14629
921.587	14511
921.697	14362
921.806	14526
921.916	14465
922.025	14271
922.134	14168
922.244	14096
922.353	14202
922.462	14195
922.571	14100
922.68	13883
922.789	13791
922.898	13940
923.007	13791
923.116	13967
923.224	13757
923.333	13765
923.442	13750
923.55	13624
923.659	13681
923.767	13693
923.876	13628
923.984	13689
924.092	13609
924.201	13597
924.309	13628
924.417	13491
924.525	13422
924.633	13518
924.741	14434
924.849	13282
924.956	13449
925.064	13225
925.172	13190
925.279	13240
925.387	13232
925.494	13244
925.602	13331
925.709	13358
925.816	13164
925.924	13232
926.031	13236
926.138	13236
926.245	13206
926.352	13088
926.459	13232
926.566	13175
926.673	13110
926.779	13031
926.886	12962
926.993	12886
927.099	12802
927.206	12768
927.312	12753
927.419	12837
927.525	12779
927.631	12795
927.737	12673
927.843	12608
927.95	12570
928.056	12642
928.162	12612
928.267	12639
928.373	13069
928.479	12798
928.585	12494
928.69	12521
928.796	12639
928.901	12502
929.007	12247
929.112	12509
929.218	12407
929.323	12350
929.428	12338
929.533	12479
929.638	12247
929.743	12304
929.848	12258
929.953	12334
930.058	12247
930.163	12076
930.267	12011
930.372	12163
930.477	11984
930.581	12190
930.685	12064
930.79	11988
930.894	11939
930.998	11874
931.103	11992
931.207	11509
931.311	11558
931.415	11452
931.519	11326
931.623	11231
