Data from test_V78500241_3475.txt Node
Date: Fri Mar 25 15:34:03 CST 2022
User: usil
Spectrometer: V785-0024
Trigger mode: 0
Integration Time (sec): 4.000000E-1
Scans to average: 1
Nonlinearity correction enabled: false
Boxcar width: 0
Storing dark spectrum: false
XAxis mode: Wavelengths
Number of Pixels in Spectrum: 1024
>>>>>Begin Spectral Data<<<<<
801.071	27321
801.214	27283
801.356	27199
801.499	26994
801.641	26940
801.783	26823
801.926	26872
802.068	26834
802.211	26727
802.353	26781
802.496	26636
802.638	26571
802.78	26465
802.923	26381
803.065	26343
803.208	26465
803.35	26511
803.492	26712
803.635	26720
803.777	26590
803.919	26853
804.061	26994
804.204	26739
804.346	26697
804.488	26598
804.63	26746
804.773	26564
804.915	26678
805.057	26864
805.199	26594
805.341	26712
805.483	26842
805.626	26739
805.768	26705
805.91	26731
806.052	26758
806.194	26678
806.336	26925
806.478	26861
806.62	26819
806.762	26944
806.904	27123
807.046	27249
807.188	27214
807.33	27226
807.472	27329
807.614	27188
807.756	27085
807.898	26914
808.04	26857
808.182	27013
808.324	26982
808.465	27112
808.607	27192
808.749	27332
808.891	27450
809.033	27462
809.174	27401
809.316	27214
809.458	27435
809.6	27272
809.741	27507
809.883	27469
810.025	27671
810.166	27694
810.308	27553
810.45	27583
810.591	27469
810.733	27374
810.875	27222
811.016	27214
811.158	27161
811.299	27462
811.441	27530
811.582	27454
811.724	27420
811.865	27336
812.007	27408
812.148	27382
812.29	27340
812.431	27485
812.573	27557
812.714	27652
812.855	27884
812.997	28017
813.138	27987
813.279	27926
813.421	27781
813.562	27888
813.703	27614
813.845	27485
813.986	27195
814.127	27089
814.268	27070
814.41	27108
814.551	27039
814.692	27138
814.833	26971
814.974	26800
815.115	26960
815.256	26956
815.397	26864
815.539	26929
815.68	26712
815.821	26716
815.962	26697
816.103	26731
816.244	26564
816.385	26629
816.526	26438
816.666	26499
816.807	26221
816.948	26168
817.089	26480
817.23	26469
817.371	26221
817.512	26317
817.653	26286
817.793	26168
817.934	26336
818.075	26404
818.216	26381
818.356	26259
818.497	26126
818.638	26046
818.778	25993
818.919	26054
819.06	25970
819.2	26062
819.341	26294
819.481	26183
819.622	26351
819.762	26648
819.903	26522
820.043	26453
820.184	26434
820.324	26259
820.465	26419
820.605	26339
820.746	26294
820.886	26374
821.026	26381
821.167	26267
821.307	26324
821.447	26221
821.588	26043
821.728	26088
821.868	25894
822.008	25742
822.149	25765
822.289	25860
822.429	25681
822.569	25419
822.709	25282
822.849	25236
822.99	25194
823.13	25152
823.27	25206
823.41	25107
823.55	24932
823.69	24989
823.83	24966
823.97	24924
824.11	24840
824.25	24863
824.389	24958
824.529	24939
824.669	24935
824.809	24958
824.949	24894
825.089	24962
825.228	24779
825.368	24810
825.508	24772
825.648	24760
825.787	24772
825.927	24783
826.067	24825
826.206	24741
826.346	24859
826.485	24734
826.625	24795
826.765	24871
826.904	24726
827.044	24426
827.183	24582
827.323	24422
827.462	24467
827.601	24509
827.741	24422
827.88	24448
828.02	24475
828.159	24445
828.298	24452
828.437	24547
828.577	24357
828.716	24547
828.855	24365
828.994	24155
829.134	24186
829.273	24174
829.412	24194
829.551	24064
829.69	24087
829.829	24129
829.968	24232
830.107	24182
830.246	24140
830.385	24186
830.524	24076
830.663	24049
830.802	23832
830.941	23939
831.08	23809
831.219	23821
831.357	23874
831.496	23958
831.635	23798
831.774	23786
831.913	23718
832.051	23509
832.19	23615
832.329	23604
832.467	23630
832.606	23444
832.744	23493
832.883	23455
833.022	23425
833.16	23353
833.299	23459
833.437	23448
833.576	23531
833.714	23531
833.852	23467
833.991	23581
834.129	23627
834.267	23623
834.406	23680
834.544	23512
834.682	23592
834.821	23528
834.959	23714
835.097	23436
835.235	23573
835.373	23676
835.511	23512
835.65	23315
835.788	23383
835.926	23315
836.064	23273
836.202	23181
836.34	23360
836.478	23433
836.615	23444
836.753	23246
836.891	23353
837.029	23425
837.167	23417
837.305	23269
837.443	23265
837.58	23246
837.718	23181
837.856	23406
837.993	23124
838.131	23353
838.269	23162
838.406	23143
838.544	23102
838.681	22923
838.819	22946
838.956	22733
839.094	22717
839.231	22847
839.369	22873
839.506	23204
839.643	23052
839.781	22698
839.918	22683
840.055	22828
840.193	22733
840.33	22531
840.467	22596
840.604	22656
840.742	22869
840.879	22535
841.016	22611
841.153	22500
841.29	22664
841.427	22596
841.564	22702
841.701	22782
841.838	22607
841.975	22546
842.112	22577
842.249	22440
842.385	22360
842.522	22626
842.659	22451
842.796	22398
842.933	22440
843.069	22367
843.206	22405
843.343	22504
843.479	22462
843.616	22390
843.752	22166
843.889	22215
844.025	22253
844.162	22086
844.298	22219
844.435	22226
844.571	22154
844.708	22272
844.844	22352
844.98	22230
845.117	22280
845.253	22219
845.389	22032
845.525	22051
845.661	22010
845.798	21991
845.934	22055
846.07	21873
846.206	21857
846.342	22059
846.478	21884
846.614	21793
846.75	21633
846.886	21587
847.022	21682
847.158	21759
847.294	21701
847.429	21637
847.565	21648
847.701	21892
847.837	21370
847.972	21325
848.108	21519
848.244	21447
848.379	21397
848.515	21188
848.65	21298
848.786	21184
848.921	21291
849.057	21363
849.192	21355
849.328	21222
849.463	21355
849.598	21222
849.734	21241
849.869	21119
850.004	20971
850.14	21077
850.275	21047
850.41	20963
850.545	20982
850.68	21047
850.815	21001
850.95	21081
851.085	21165
851.22	21138
851.355	21043
851.49	20971
851.625	20921
851.76	20929
851.895	20979
852.03	20979
852.165	21024
852.299	21074
852.434	21150
852.569	21017
852.703	20941
852.838	21100
852.973	21184
853.107	21001
853.242	20933
853.376	20842
853.511	20750
853.645	20788
853.78	20933
853.914	20743
854.048	20800
854.183	20838
854.317	20880
854.451	20982
854.585	20914
854.72	20758
854.854	20819
854.988	20891
855.122	20960
855.256	20606
855.39	20769
855.524	20880
855.658	20967
855.792	20872
855.926	20716
856.06	20948
856.194	20826
856.327	20777
856.461	20651
856.595	20739
856.729	20819
856.862	20762
856.996	20861
857.13	21066
857.263	20979
857.397	20925
857.53	20804
857.664	20895
857.797	20857
857.931	21055
858.064	20925
858.197	21005
858.331	20872
858.464	20815
858.597	20743
858.731	20883
858.864	20883
858.997	20796
859.13	20880
859.263	20800
859.396	20845
859.529	20891
859.662	20800
859.795	20804
859.928	20823
860.061	20937
860.194	21081
860.327	20899
860.46	20804
860.592	20925
860.725	20960
860.858	20902
860.99	20823
861.123	20769
861.256	20735
861.388	20944
861.521	21606
861.653	20651
861.786	20640
861.918	20587
862.05	20788
862.183	20769
862.315	20826
862.447	20864
862.58	20727
862.712	20526
862.844	20560
862.976	20796
863.108	20651
863.24	21066
863.372	20568
863.504	20575
863.636	20533
863.768	20575
863.9	20587
864.032	20476
864.164	20526
864.296	20625
864.428	20537
864.559	20590
864.691	20587
864.823	20564
864.954	20667
865.086	20454
865.217	20423
865.349	20450
865.48	20446
865.612	20465
865.743	20587
865.875	20552
866.006	20389
866.137	20552
866.269	20469
866.4	20347
866.531	20404
866.662	20370
866.793	20408
866.924	20514
867.055	20347
867.186	20522
867.317	20434
867.448	20324
867.579	20438
867.71	20370
867.841	20305
867.972	20355
868.103	20412
868.233	20396
868.364	20434
868.495	20484
868.625	20629
868.756	20724
868.886	20629
869.017	20655
869.147	20663
869.278	20651
869.408	20587
869.539	20686
869.669	20727
869.799	20606
869.929	20807
870.06	20746
870.19	20910
870.32	20971
870.45	20990
870.58	21123
870.71	21146
870.84	21188
870.97	21081
871.1	21154
871.23	21222
871.36	21283
871.489	21146
871.619	21325
871.749	21195
871.879	21233
872.008	21443
872.138	21214
872.267	21241
872.397	21135
872.526	21104
872.656	21184
872.785	21062
872.915	21306
873.044	21329
873.173	21317
873.303	21332
873.432	21370
873.561	21378
873.69	21207
873.819	21275
873.948	21329
874.077	21135
874.206	21173
874.335	21302
874.464	21477
874.593	21466
874.722	21393
874.851	21538
874.979	21591
875.108	21515
875.237	21443
875.365	21355
875.494	21549
875.623	21625
875.751	21530
875.88	21538
876.008	21641
876.136	21774
876.265	22040
876.393	21983
876.521	22013
876.65	21922
876.778	21903
876.906	21884
877.034	21903
877.162	21926
877.29	21850
877.418	21953
877.546	21857
877.674	21865
877.802	21941
877.93	21991
878.058	21850
878.185	21675
878.313	21781
878.441	21876
878.568	21595
878.696	21641
878.824	21797
878.951	21861
879.079	22086
879.206	22249
879.333	21972
879.461	21800
879.588	21918
879.715	21987
879.842	22204
879.97	21895
880.097	21800
880.224	21671
880.351	21774
880.478	21732
880.605	21686
880.732	21698
880.859	21854
880.986	21793
881.112	21675
881.239	21580
881.366	21485
881.493	21348
881.619	21214
881.746	21291
881.872	21302
881.999	21275
882.125	21157
882.252	21306
882.378	21226
882.505	21298
882.631	21165
882.757	20998
882.883	21036
883.01	20960
883.136	20773
883.262	20849
883.388	20731
883.514	20971
883.64	20937
883.766	20838
883.892	20617
884.018	20746
884.143	20906
884.269	21047
884.395	20777
884.52	20568
884.646	20701
884.772	20606
884.897	20499
885.023	20708
885.148	20686
885.274	20781
885.399	20625
885.524	20613
885.65	20750
885.775	20575
885.9	20629
886.025	20708
886.15	20636
886.275	20629
886.4	20564
886.525	20511
886.65	20541
886.775	20541
886.9	20819
887.025	20746
887.149	20594
887.274	20408
887.399	20324
887.523	20339
887.648	20541
887.773	20267
887.897	20400
888.021	20381
888.146	20336
888.27	20415
888.395	20564
888.519	20385
888.643	20480
888.767	20400
888.891	20377
889.015	20183
889.139	20263
889.263	20092
889.387	20301
889.511	20469
889.635	20317
889.759	20126
889.883	20240
890.006	20233
890.13	20313
890.254	20122
890.377	20039
890.501	20005
890.624	19902
890.748	20016
890.871	19837
890.995	19685
891.118	19845
891.241	19727
891.364	19769
891.488	19761
891.611	19761
891.734	19757
891.857	19845
891.98	19852
892.103	19750
892.226	19799
892.349	19738
892.471	19476
892.594	19643
892.717	19784
892.839	19734
892.962	19837
893.085	19750
893.207	19605
893.33	19605
893.452	19708
893.575	19750
893.697	19696
893.819	19818
893.941	19814
894.064	19833
894.186	19651
894.308	19499
894.43	19750
894.552	19765
894.674	19742
894.796	19567
894.918	19605
895.04	19632
895.161	19833
895.283	19750
895.405	19643
895.526	19761
895.648	19597
895.769	19647
895.891	19708
896.012	19822
896.134	19685
896.255	19769
896.376	19666
896.498	19696
896.619	19708
896.74	19719
896.861	19723
896.982	20020
897.103	20180
897.224	19875
897.345	19860
897.466	19955
897.587	19883
897.708	19974
897.828	19826
897.949	19928
898.07	19841
898.19	19864
898.311	19982
898.431	19906
898.552	19879
898.672	20001
898.792	19921
898.913	19860
899.033	19788
899.153	19791
899.273	19559
899.393	19681
899.513	19685
899.633	19662
899.753	19647
899.873	19597
899.993	19670
900.113	19620
900.232	19601
900.352	19586
900.472	19434
900.591	19510
900.711	19529
900.83	19255
900.95	19415
901.069	19460
901.189	19381
901.308	19061
901.427	19061
901.546	19027
901.665	19061
901.784	19069
901.904	18882
902.023	18837
902.141	18688
902.26	18540
902.379	18646
902.498	18574
902.617	18448
902.735	18566
902.854	18555
902.973	18422
903.091	18361
903.21	18182
903.328	18292
903.446	18152
903.565	18064
903.683	18030
903.801	17954
903.919	17946
904.038	17946
904.156	17870
904.274	17965
904.392	17893
904.51	17859
904.627	17863
904.745	17821
904.863	17821
904.981	17642
905.098	17452
905.216	17486
905.334	17440
905.451	17433
905.569	17539
905.686	17623
905.803	17512
905.921	17364
906.038	17307
906.155	17364
906.272	17098
906.389	17102
906.506	16995
906.623	17094
906.74	16972
906.857	17033
906.974	16965
907.091	17014
907.208	17109
907.324	17060
907.441	16953
907.557	16729
907.674	16691
907.79	16691
907.907	16755
908.023	16854
908.139	16675
908.256	16736
908.372	16675
908.488	16653
908.604	16440
908.72	16360
908.836	16527
908.952	16455
909.068	16440
909.184	16558
909.3	16451
909.415	16508
909.531	16421
909.647	16287
909.762	16249
909.878	16090
909.993	16192
910.108	16139
910.224	16032
910.339	16200
910.454	16029
910.57	16025
910.685	15857
910.8	16158
910.915	16093
911.03	15998
911.145	15850
911.259	15781
911.374	15743
911.489	15671
911.604	15690
911.718	15485
911.833	15606
911.947	15431
912.062	15473
912.176	15477
912.291	15515
912.405	15553
912.519	15781
912.633	15622
912.748	15420
912.862	15561
912.976	15340
913.09	15279
913.204	15294
913.318	15367
913.431	15492
913.545	15336
913.659	15450
913.772	15336
913.886	15203
914	15157
914.113	15249
914.226	15329
914.34	15154
914.453	15077
914.566	15176
914.68	15043
914.793	14952
914.906	14834
915.019	14724
915.132	14708
915.245	14773
915.358	14739
915.47	14720
915.583	14689
915.696	14826
915.809	14933
915.921	14800
916.034	14663
916.146	14636
916.259	14598
916.371	14769
916.483	14727
916.595	14514
916.708	14526
916.82	14625
916.932	14610
917.044	14651
917.156	14419
917.268	14438
917.38	14415
917.491	14415
917.603	14514
917.715	14556
917.826	14461
917.938	14374
918.049	14267
918.161	14374
918.272	14514
918.384	14461
918.495	14370
918.606	14229
918.717	14157
918.828	14202
918.939	14240
919.05	14069
919.161	14221
919.272	13982
919.383	14130
919.494	14229
919.604	14278
919.715	14111
919.826	14073
919.936	14123
920.047	14164
920.157	14195
920.267	14381
920.378	14092
920.488	14153
920.598	14362
920.708	14423
920.818	14290
920.928	14339
921.038	14484
921.148	14385
921.258	14100
921.368	14024
921.477	13989
921.587	13868
921.697	13807
921.806	13879
921.916	13799
922.025	13643
922.134	13605
922.244	13422
922.353	13651
922.462	13537
922.571	13388
922.68	13240
922.789	13110
922.898	13247
923.007	13270
923.116	13255
923.224	13274
923.333	13293
923.442	13012
923.55	13057
923.659	13076
923.767	13088
923.876	12943
923.984	13080
924.092	12962
924.201	12981
924.309	12882
924.417	13008
924.525	12844
924.633	12882
924.741	13643
924.849	12665
924.956	12852
925.064	12692
925.172	12601
925.279	12631
925.387	12627
925.494	12578
925.602	12745
925.709	12673
925.816	12540
925.924	12574
926.031	12681
926.138	12574
926.245	12639
926.352	12597
926.459	12696
926.566	12753
926.673	12448
926.779	12445
926.886	12384
926.993	12235
927.099	12251
927.206	12159
927.312	12197
927.419	12216
927.525	12228
927.631	12232
927.737	12133
927.843	12038
927.95	11931
928.056	12117
928.162	12167
928.267	12140
928.373	12662
928.479	12125
928.585	11927
928.69	11961
928.796	12087
928.901	11885
929.007	11756
929.112	11923
929.218	11809
929.323	11901
929.428	11783
929.533	11908
929.638	11764
929.743	11745
929.848	11779
929.953	11630
930.058	11688
930.163	11448
930.267	11486
930.372	11562
930.477	11452
930.581	11592
930.685	11478
930.79	11417
930.894	11398
930.998	11337
931.103	11414
931.207	11113
931.311	11075
931.415	11010
931.519	10786
931.623	10683
