Data from test_V78500241_3545.txt Node
Date: Fri Mar 25 15:34:32 CST 2022
User: usil
Spectrometer: V785-0024
Trigger mode: 0
Integration Time (sec): 4.000000E-1
Scans to average: 1
Nonlinearity correction enabled: false
Boxcar width: 0
Storing dark spectrum: false
XAxis mode: Wavelengths
Number of Pixels in Spectrum: 1024
>>>>>Begin Spectral Data<<<<<
801.071	27294
801.214	27313
801.356	27093
801.499	26952
801.641	26925
801.783	26887
801.926	26918
802.068	26712
802.211	26880
802.353	26731
802.496	26625
802.638	26495
802.78	26533
802.923	26396
803.065	26374
803.208	26434
803.35	26522
803.492	26522
803.635	26731
803.777	26625
803.919	26716
804.061	27017
804.204	26625
804.346	26655
804.488	26522
804.63	26537
804.773	26587
804.915	26480
805.057	26651
805.199	26590
805.341	26701
805.483	26746
805.626	26594
805.768	26625
805.91	26796
806.052	26765
806.194	26830
806.336	26861
806.478	26785
806.62	26777
806.762	26872
806.904	26990
807.046	27317
807.188	27173
807.33	27245
807.472	27188
807.614	27036
807.756	27199
807.898	26960
808.04	26807
808.182	26906
808.324	27043
808.465	27043
808.607	27344
808.749	27302
808.891	27507
809.033	27523
809.174	27218
809.316	27477
809.458	27317
809.6	27298
809.741	27389
809.883	27511
810.025	27637
810.166	27587
810.308	27614
810.45	27606
810.591	27504
810.733	27412
810.875	27332
811.016	27173
811.158	27222
811.299	27397
811.441	27492
811.582	27557
811.724	27241
811.865	27386
812.007	27367
812.148	27329
812.29	27287
812.431	27580
812.573	27652
812.714	27827
812.855	27926
812.997	27835
813.138	28040
813.279	27991
813.421	27823
813.562	27835
813.703	27675
813.845	27610
813.986	27214
814.127	27005
814.268	26956
814.41	27032
814.551	26979
814.692	27070
814.833	27032
814.974	26788
815.115	27241
815.256	26876
815.397	26804
815.539	26986
815.68	26773
815.821	26868
815.962	26815
816.103	26693
816.244	26617
816.385	26552
816.526	26438
816.666	26358
816.807	26176
816.948	26408
817.089	26282
817.23	26355
817.371	26134
817.512	26256
817.653	26271
817.793	26134
817.934	26313
818.075	26355
818.216	26191
818.356	26180
818.497	26020
818.638	26039
818.778	26054
818.919	26031
819.06	26069
819.2	26081
819.341	26301
819.481	26286
819.622	26400
819.762	26549
819.903	26503
820.043	26415
820.184	26469
820.324	26396
820.465	26476
820.605	26480
820.746	26282
820.886	26183
821.026	26259
821.167	26263
821.307	26275
821.447	26248
821.588	26153
821.728	26153
821.868	25887
822.008	25795
822.149	25772
822.289	25719
822.429	25320
822.569	25373
822.709	25346
822.849	25236
822.99	25240
823.13	25187
823.27	25175
823.41	25091
823.55	24954
823.69	25027
823.83	25110
823.97	25050
824.11	24871
824.25	24810
824.389	24875
824.529	24913
824.669	24935
824.809	24985
824.949	24970
825.089	24916
825.228	24734
825.368	24658
825.508	24601
825.648	24715
825.787	24719
825.927	24776
826.067	24684
826.206	24681
826.346	24776
826.485	24757
826.625	24837
826.765	24837
826.904	24722
827.044	24620
827.183	24486
827.323	24494
827.462	24551
827.601	24471
827.741	24426
827.88	24505
828.02	24429
828.159	24391
828.298	24471
828.437	24498
828.577	24330
828.716	24540
828.855	24292
828.994	24209
829.134	24190
829.273	24098
829.412	24106
829.551	23999
829.69	24057
829.829	24254
829.968	24281
830.107	24262
830.246	24296
830.385	24140
830.524	24015
830.663	24049
830.802	24007
830.941	23756
831.08	23748
831.219	23790
831.357	23859
831.496	24018
831.635	23851
831.774	23661
831.913	23718
832.051	23547
832.19	23596
832.329	23627
832.467	23570
832.606	23452
832.744	23452
832.883	23429
833.022	23467
833.16	23535
833.299	23482
833.437	23440
833.576	23524
833.714	23646
833.852	23600
833.991	23615
834.129	23615
834.267	23592
834.406	23459
834.544	23535
834.682	23623
834.821	23364
834.959	23687
835.097	23425
835.235	23623
835.373	23543
835.511	23501
835.65	23303
835.788	23356
835.926	23356
836.064	23056
836.202	23166
836.34	23372
836.478	23383
836.615	23299
836.753	23353
836.891	23406
837.029	23448
837.167	23318
837.305	23277
837.443	23227
837.58	23273
837.718	23322
837.856	23265
837.993	23140
838.131	23250
838.269	23216
838.406	23140
838.544	23033
838.681	22908
838.819	22801
838.956	22721
839.094	22748
839.231	22843
839.369	22892
839.506	23105
839.643	22968
839.781	22706
839.918	22698
840.055	22615
840.193	22748
840.33	22656
840.467	22706
840.604	22691
840.742	22938
840.879	22500
841.016	22580
841.153	22493
841.29	22596
841.427	22580
841.564	22672
841.701	22656
841.838	22580
841.975	22618
842.112	22497
842.249	22508
842.385	22295
842.522	22645
842.659	22417
842.796	22485
842.933	22455
843.069	22375
843.206	22268
843.343	22512
843.479	22261
843.616	22356
843.752	22234
843.889	22166
844.025	22268
844.162	22261
844.298	22371
844.435	22097
844.571	22116
844.708	22276
844.844	22432
844.98	22299
845.117	22287
845.253	22139
845.389	22074
845.525	22059
845.661	22059
845.798	21922
845.934	21915
846.07	21884
846.206	21892
846.342	22070
846.478	21884
846.614	21603
846.75	21591
846.886	21709
847.022	21804
847.158	21686
847.294	21762
847.429	21671
847.565	21671
847.701	21964
847.837	21507
847.972	21302
848.108	21458
848.244	21454
848.379	21287
848.515	21332
848.65	21351
848.786	21222
848.921	21344
849.057	21401
849.192	21393
849.328	21310
849.463	21237
849.598	21138
849.734	21226
849.869	21013
850.004	21051
850.14	21116
850.275	21047
850.41	20868
850.545	20952
850.68	20929
850.815	21138
850.95	21039
851.085	21116
851.22	21154
851.355	21043
851.49	21024
851.625	20994
851.76	20982
851.895	20990
852.03	20971
852.165	21013
852.299	21028
852.434	21112
852.569	20941
852.703	21089
852.838	21131
852.973	21017
853.107	21009
853.242	20952
853.376	20914
853.511	20754
853.645	20804
853.78	21047
853.914	20880
854.048	20773
854.183	20804
854.317	20838
854.451	20933
854.585	20906
854.72	20792
854.854	20952
854.988	20815
855.122	20781
855.256	20632
855.39	20864
855.524	20895
855.658	20823
855.792	20857
855.926	20883
856.06	20834
856.194	20857
856.327	20853
856.461	20880
856.595	20735
856.729	20914
856.862	20944
856.996	20769
857.13	20979
857.263	21005
857.397	20963
857.53	20807
857.664	20921
857.797	20967
857.931	20941
858.064	20921
858.197	20925
858.331	20804
858.464	20800
858.597	20739
858.731	20758
858.864	20811
858.997	20746
859.13	20727
859.263	21047
859.396	20754
859.529	20925
859.662	20796
859.795	20785
859.928	20830
860.061	21009
860.194	20960
860.327	20849
860.46	20925
860.592	21028
860.725	21043
860.858	20952
860.99	20872
861.123	20731
861.256	20716
861.388	20765
861.521	21595
861.653	20609
861.786	20541
861.918	20545
862.05	20663
862.183	20678
862.315	20899
862.447	20811
862.58	20693
862.712	20518
862.844	20575
862.976	20617
863.108	20613
863.24	21062
863.372	20484
863.504	20587
863.636	20495
863.768	20560
863.9	20438
864.032	20366
864.164	20632
864.296	20575
864.428	20552
864.559	20579
864.691	20644
864.823	20571
864.954	20552
865.086	20473
865.217	20442
865.349	20522
865.48	20469
865.612	20446
865.743	20541
865.875	20533
866.006	20492
866.137	20434
866.269	20434
866.4	20488
866.531	20419
866.662	20366
866.793	20366
866.924	20396
867.055	20427
867.186	20381
867.317	20286
867.448	20256
867.579	20358
867.71	20275
867.841	20328
867.972	20461
868.103	20393
868.233	20465
868.364	20393
868.495	20522
868.625	20659
868.756	20636
868.886	20552
869.017	20526
869.147	20731
869.278	20750
869.408	20598
869.539	20667
869.669	20739
869.799	20648
869.929	20769
870.06	20777
870.19	20986
870.32	20887
870.45	20960
870.58	20967
870.71	21146
870.84	21150
870.97	21032
871.1	21081
871.23	21192
871.36	21176
871.489	21161
871.619	21252
871.749	21192
871.879	21287
872.008	21283
872.138	21237
872.267	21169
872.397	21116
872.526	20986
872.656	21112
872.785	21043
872.915	21135
873.044	21367
873.173	21310
873.303	21302
873.432	21332
873.561	21256
873.69	21237
873.819	21344
873.948	21374
874.077	21245
874.206	21245
874.335	21302
874.464	21279
874.593	21481
874.722	21386
874.851	21580
874.979	21587
875.108	21614
875.237	21469
875.365	21351
875.494	21450
875.623	21496
875.751	21424
875.88	21504
876.008	21633
876.136	21675
876.265	21922
876.393	22093
876.521	22006
876.65	22044
876.778	21888
876.906	21838
877.034	21838
877.162	21930
877.29	21812
877.418	21823
877.546	21842
877.674	21857
877.802	21926
877.93	21861
878.058	21778
878.185	21732
878.313	21797
878.441	21907
878.568	21652
878.696	21785
878.824	21861
878.951	21884
879.079	22021
879.206	22131
879.333	21968
879.461	21926
879.588	21975
879.715	22032
879.842	22029
879.97	21861
880.097	21671
880.224	21580
880.351	21663
880.478	21625
880.605	21686
880.732	21686
880.859	21861
880.986	21713
881.112	21804
881.239	21660
881.366	21591
881.493	21416
881.619	21348
881.746	21336
881.872	21275
881.999	21214
882.125	21055
882.252	21336
882.378	21313
882.505	21332
882.631	21218
882.757	20979
882.883	20960
883.01	20986
883.136	20891
883.262	20864
883.388	20895
883.514	21009
883.64	21066
883.766	20929
883.892	20849
884.018	20724
884.143	21024
884.269	20975
884.395	20648
884.52	20594
884.646	20575
884.772	20602
884.897	20644
885.023	20556
885.148	20712
885.274	20769
885.399	20785
885.524	20564
885.65	20655
885.775	20549
885.9	20689
886.025	20686
886.15	20530
886.275	20636
886.4	20575
886.525	20549
886.65	20503
886.775	20541
886.9	20750
887.025	20762
887.149	20602
887.274	20484
887.399	20305
887.523	20461
887.648	20408
887.773	20336
887.897	20374
888.021	20389
888.146	20256
888.27	20503
888.395	20476
888.519	20457
888.643	20446
888.767	20431
888.891	20233
889.015	20259
889.139	20168
889.263	20206
889.387	20286
889.511	20530
889.635	20248
889.759	20122
889.883	20233
890.006	20305
890.13	20294
890.254	20054
890.377	20126
890.501	20077
890.624	19974
890.748	20054
890.871	19864
890.995	19841
891.118	19731
891.241	19894
891.364	19791
891.488	19909
891.611	19685
891.734	19868
891.857	19890
891.98	19864
892.103	19753
892.226	19868
892.349	19639
892.471	19552
892.594	19795
892.717	19715
892.839	19594
892.962	19750
893.085	19731
893.207	19639
893.33	19582
893.452	19719
893.575	19715
893.697	19582
893.819	19807
893.941	19822
894.064	19860
894.186	19632
894.308	19582
894.43	19719
894.552	19967
894.674	19765
894.796	19499
894.918	19647
895.04	19700
895.161	19693
895.283	19795
895.405	19620
895.526	19655
895.648	19670
895.769	19666
895.891	19799
896.012	19727
896.134	19681
896.255	19571
896.376	19700
896.498	19738
896.619	19814
896.74	19655
896.861	19753
896.982	20149
897.103	20176
897.224	20069
897.345	19932
897.466	19913
897.587	19822
897.708	20191
897.828	19917
897.949	19852
898.07	19700
898.19	19738
898.311	19993
898.431	19860
898.552	19989
898.672	20073
898.792	19978
898.913	19917
899.033	19803
899.153	19734
899.273	19689
899.393	19689
899.513	19704
899.633	19746
899.753	19628
899.873	19750
899.993	19674
900.113	19563
900.232	19662
900.352	19609
900.472	19491
900.591	19422
900.711	19552
900.83	19339
900.95	19521
901.069	19533
901.189	19350
901.308	19088
901.427	19103
901.546	19148
901.665	18989
901.784	18977
901.904	18981
902.023	18757
902.141	18677
902.26	18532
902.379	18650
902.498	18566
902.617	18483
902.735	18517
902.854	18551
902.973	18456
903.091	18254
903.21	18201
903.328	18296
903.446	18155
903.565	17996
903.683	17969
903.801	17874
903.919	17939
904.038	17923
904.156	17882
904.274	17863
904.392	17897
904.51	17756
904.627	17882
904.745	17843
904.863	17954
904.981	17577
905.098	17387
905.216	17520
905.334	17387
905.451	17474
905.569	17429
905.686	17581
905.803	17459
905.921	17318
906.038	17299
906.155	17292
906.272	17071
906.389	17212
906.506	17029
906.623	17086
906.74	17045
906.857	16854
906.974	17025
907.091	16999
907.208	17048
907.324	17018
907.441	16908
907.557	16782
907.674	16771
907.79	16603
907.907	16702
908.023	16710
908.139	16744
908.256	16691
908.372	16645
908.488	16592
908.604	16512
908.72	16527
908.836	16516
908.952	16478
909.068	16451
909.184	16615
909.3	16436
909.415	16390
909.531	16428
909.647	16226
909.762	16124
909.878	16223
909.993	16101
910.108	16139
910.224	16074
910.339	16143
910.454	15998
910.57	16032
910.685	15850
910.8	16177
910.915	16158
911.03	15991
911.145	15774
911.259	15759
911.374	15781
911.489	15713
911.604	15652
911.718	15523
911.833	15458
911.947	15568
912.062	15386
912.176	15511
912.291	15622
912.405	15572
912.519	15823
912.633	15717
912.748	15549
912.862	15542
912.976	15431
913.09	15279
913.204	15249
913.318	15332
913.431	15329
913.545	15458
913.659	15500
913.772	15279
913.886	15131
914	15097
914.113	15233
914.226	15203
914.34	15176
914.453	15077
914.566	15173
914.68	15100
914.793	15104
914.906	14861
915.019	14773
915.132	14708
915.245	14819
915.358	14891
915.47	14735
915.583	14739
915.696	14754
915.809	14853
915.921	14918
916.034	14830
916.146	14686
916.259	14705
916.371	14697
916.483	14716
916.595	14564
916.708	14610
916.82	14674
916.932	14602
917.044	14556
917.156	14450
917.268	14351
917.38	14503
917.491	14377
917.603	14412
917.715	14564
917.826	14533
917.938	14404
918.049	14301
918.161	14305
918.272	14533
918.384	14454
918.495	14358
918.606	14225
918.717	14256
918.828	14252
918.939	14168
919.05	14149
919.161	14183
919.272	13852
919.383	14084
919.494	14263
919.604	14400
919.715	14180
919.826	14130
919.936	14221
920.047	14271
920.157	14237
920.267	14355
920.378	14202
920.488	14046
920.598	14377
920.708	14469
920.818	14358
920.928	14240
921.038	14442
921.148	14400
921.258	14107
921.368	14008
921.477	13967
921.587	13906
921.697	13830
921.806	13963
921.916	13784
922.025	13597
922.134	13590
922.244	13616
922.353	13453
922.462	13502
922.571	13434
922.68	13316
922.789	13160
922.898	13263
923.007	13103
923.116	13152
923.224	13202
923.333	13194
923.442	13042
923.55	13034
923.659	13034
923.767	13072
923.876	13053
923.984	13149
924.092	13012
924.201	13012
924.309	12844
924.417	12935
924.525	12817
924.633	12928
924.741	13734
924.849	12681
924.956	12844
925.064	12696
925.172	12623
925.279	12574
925.387	12646
925.494	12627
925.602	12875
925.709	12616
925.816	12563
925.924	12574
926.031	12677
926.138	12547
926.245	12673
926.352	12456
926.459	12551
926.566	12635
926.673	12536
926.779	12418
926.886	12445
926.993	12315
927.099	12201
927.206	12175
927.312	12155
927.419	12247
927.525	12296
927.631	12266
927.737	12114
927.843	12144
927.95	11988
928.056	12144
928.162	12083
928.267	12038
928.373	12616
928.479	12110
928.585	11832
928.69	12045
928.796	11935
928.901	11935
929.007	11741
929.112	11878
929.218	11942
929.323	11805
929.428	11752
929.533	11882
929.638	11688
929.743	11760
929.848	11771
929.953	11600
930.058	11577
930.163	11528
930.267	11478
930.372	11661
930.477	11429
930.581	11672
930.685	11459
930.79	11246
930.894	11395
930.998	11311
931.103	11459
931.207	11094
931.311	10987
931.415	10984
931.519	10793
931.623	10714
