Data from test_V78500241_1126.txt Node
Date: Fri Mar 25 15:17:41 CST 2022
User: usil
Spectrometer: V785-0024
Trigger mode: 0
Integration Time (sec): 4.000000E-1
Scans to average: 1
Nonlinearity correction enabled: false
Boxcar width: 0
Storing dark spectrum: false
XAxis mode: Wavelengths
Number of Pixels in Spectrum: 1024
>>>>>Begin Spectral Data<<<<<
801.071	28284
801.214	28299
801.356	27888
801.499	27918
801.641	27819
801.783	27698
801.926	27926
802.068	27774
802.211	27637
802.353	27614
802.496	27458
802.638	27557
802.78	27397
802.923	27389
803.065	27370
803.208	27386
803.35	27450
803.492	27488
803.635	27663
803.777	27519
803.919	27743
804.061	27949
804.204	27865
804.346	27530
804.488	27648
804.63	27705
804.773	27625
804.915	27819
805.057	27762
805.199	27713
805.341	27743
805.483	27774
805.626	27835
805.768	27576
805.91	27804
806.052	27857
806.194	27690
806.336	27987
806.478	27884
806.62	27819
806.762	27873
806.904	28044
807.046	28398
807.188	28295
807.33	28207
807.472	28337
807.614	28287
807.756	28166
807.898	28154
808.04	28120
808.182	28078
808.324	28105
808.465	28139
808.607	28234
808.749	28413
808.891	28550
809.033	28466
809.174	28577
809.316	28440
809.458	28455
809.6	28485
809.741	28561
809.883	28691
810.025	28752
810.166	28740
810.308	28569
810.45	28831
810.591	28694
810.733	28554
810.875	28348
811.016	28417
811.158	28268
811.299	28596
811.441	28622
811.582	28653
811.724	28500
811.865	28428
812.007	28436
812.148	28489
812.29	28478
812.431	28733
812.573	28843
812.714	28862
812.855	28968
812.997	29079
813.138	29254
813.279	29033
813.421	29006
813.562	29086
813.703	28892
813.845	28771
813.986	28546
814.127	28386
814.268	28200
814.41	28200
814.551	28093
814.692	28226
814.833	28158
814.974	28059
815.115	28272
815.256	28055
815.397	28090
815.539	28253
815.68	28013
815.821	27972
815.962	28135
816.103	28040
816.244	27888
816.385	27819
816.526	27816
816.666	27686
816.807	27439
816.948	27519
817.089	27618
817.23	27587
817.371	27519
817.512	27485
817.653	27583
817.793	27348
817.934	27507
818.075	27393
818.216	27538
818.356	27523
818.497	27416
818.638	27233
818.778	27306
818.919	27325
819.06	27348
819.2	27321
819.341	27515
819.481	27603
819.622	27603
819.762	27884
819.903	27857
820.043	27603
820.184	27690
820.324	27736
820.465	27679
820.605	27701
820.746	27739
820.886	27580
821.026	27656
821.167	27504
821.307	27736
821.447	27523
821.588	27485
821.728	27260
821.868	27192
822.008	26960
822.149	26967
822.289	26925
822.429	26720
822.569	26724
822.709	26686
822.849	26469
822.99	26549
823.13	26453
823.27	26545
823.41	26389
823.55	26183
823.69	26248
823.83	26290
823.97	26324
824.11	26309
824.25	26130
824.389	26119
824.529	26145
824.669	26119
824.809	26199
824.949	26229
825.089	26339
825.228	26256
825.368	26126
825.508	26122
825.648	26024
825.787	25989
825.927	26126
826.067	26001
826.206	25951
826.346	26134
826.485	25993
826.625	25909
826.765	26183
826.904	26180
827.044	25803
827.183	25837
827.323	25662
827.462	25712
827.601	25742
827.741	25788
827.88	25677
828.02	25594
828.159	25685
828.298	25776
828.437	25700
828.577	25674
828.716	25811
828.855	25719
828.994	25430
829.134	25468
829.273	25457
829.412	25472
829.551	25411
829.69	25533
829.829	25540
829.968	25651
830.107	25556
830.246	25601
830.385	25358
830.524	25499
830.663	25266
830.802	25324
830.941	25069
831.08	25008
831.219	25240
831.357	25114
831.496	25346
831.635	25141
831.774	25110
831.913	24970
832.051	24760
832.19	24791
832.329	24772
832.467	24882
832.606	24749
832.744	24661
832.883	24745
833.022	24810
833.16	24753
833.299	24871
833.437	24779
833.576	24825
833.714	24951
833.852	24787
833.991	24757
834.129	24886
834.267	24890
834.406	24707
834.544	24939
834.682	24821
834.821	24772
834.959	24871
835.097	24810
835.235	24924
835.373	24734
835.511	24787
835.65	24684
835.788	24814
835.926	24620
836.064	24616
836.202	24509
836.34	24646
836.478	24692
836.615	24726
836.753	24631
836.891	24745
837.029	24878
837.167	24597
837.305	24521
837.443	24566
837.58	24540
837.718	24650
837.856	24673
837.993	24513
838.131	24422
838.269	24429
838.406	24483
838.544	24308
838.681	24136
838.819	24140
838.956	24011
839.094	24018
839.231	23969
839.369	24201
839.506	24323
839.643	24159
839.781	24095
839.918	23942
840.055	23996
840.193	23901
840.33	23882
840.467	23931
840.604	23958
840.742	24174
840.879	23840
841.016	23779
841.153	23813
841.29	24041
841.427	23863
841.564	23878
841.701	23954
841.838	23771
841.975	23847
842.112	23832
842.249	23775
842.385	23589
842.522	23794
842.659	23836
842.796	23665
842.933	23615
843.069	23539
843.206	23547
843.343	23623
843.479	23748
843.616	23684
843.752	23349
843.889	23414
844.025	23516
844.162	23551
844.298	23589
844.435	23372
844.571	23421
844.708	23509
844.844	23577
844.98	23551
845.117	23611
845.253	23433
845.389	23254
845.525	23353
845.661	23296
845.798	23140
845.934	23124
846.07	23109
846.206	23239
846.342	23265
846.478	23220
846.614	22942
846.75	23010
846.886	22729
847.022	22946
847.158	22828
847.294	22938
847.429	22976
847.565	22919
847.701	23136
847.837	22706
847.972	22538
848.108	22744
848.244	22710
848.379	22531
848.515	22459
848.65	22516
848.786	22527
848.921	22542
849.057	22577
849.192	22573
849.328	22561
849.463	22394
849.598	22455
849.734	22421
849.869	22314
850.004	22352
850.14	22280
850.275	22238
850.41	22303
850.545	22314
850.68	22257
850.815	22238
850.95	22192
851.085	22382
851.22	22314
851.355	22284
851.49	22272
851.625	22253
851.76	22211
851.895	22021
852.03	22196
852.165	22185
852.299	22143
852.434	22314
852.569	22306
852.703	22238
852.838	22196
852.973	22356
853.107	22337
853.242	22249
853.376	22051
853.511	21903
853.645	22040
853.78	22185
853.914	22093
854.048	22090
854.183	22013
854.317	22135
854.451	22295
854.585	22021
854.72	21945
854.854	22105
854.988	21934
855.122	22051
855.256	21945
855.39	22082
855.524	22101
855.658	22109
855.792	22044
855.926	22230
856.06	22074
856.194	22135
856.327	22188
856.461	22044
856.595	22029
856.729	21987
856.862	22257
856.996	22086
857.13	22150
857.263	22249
857.397	22223
857.53	22120
857.664	22101
857.797	21968
857.931	22124
858.064	22150
858.197	22128
858.331	22101
858.464	22006
858.597	21979
858.731	22101
858.864	22135
858.997	22055
859.13	21987
859.263	22055
859.396	22116
859.529	21964
859.662	22017
859.795	22036
859.928	22090
860.061	22226
860.194	22287
860.327	22166
860.46	22010
860.592	22207
860.725	22405
860.858	22154
860.99	22131
861.123	22040
861.256	21953
861.388	22097
861.521	22968
861.653	21876
861.786	21876
861.918	21865
862.05	21934
862.183	22006
862.315	22010
862.447	22090
862.58	21922
862.712	21800
862.844	21701
862.976	21717
863.108	21804
863.24	22276
863.372	21755
863.504	21614
863.636	21751
863.768	21766
863.9	21823
864.032	21736
864.164	21724
864.296	21797
864.428	21873
864.559	21884
864.691	21755
864.823	21770
864.954	21732
865.086	21701
865.217	21637
865.349	21713
865.48	21671
865.612	21827
865.743	21701
865.875	21819
866.006	21648
866.137	21625
866.269	21770
866.4	21694
866.531	21599
866.662	21488
866.793	21656
866.924	21679
867.055	21648
867.186	21583
867.317	21591
867.448	21462
867.579	21515
867.71	21507
867.841	21405
867.972	21599
868.103	21587
868.233	21576
868.364	21622
868.495	21599
868.625	21827
868.756	21926
868.886	21804
869.017	21876
869.147	21857
869.278	21937
869.408	21827
869.539	21797
869.669	21854
869.799	21968
869.929	21941
870.06	21895
870.19	22048
870.32	22017
870.45	22097
870.58	22253
870.71	22344
870.84	22291
870.97	22291
871.1	22257
871.23	22386
871.36	22390
871.489	22207
871.619	22398
871.749	22451
871.879	22516
872.008	22497
872.138	22497
872.267	22447
872.397	22257
872.526	22284
872.656	22272
872.785	22280
872.915	22459
873.044	22527
873.173	22489
873.303	22485
873.432	22455
873.561	22535
873.69	22538
873.819	22421
873.948	22497
874.077	22390
874.206	22398
874.335	22512
874.464	22577
874.593	22733
874.722	22561
874.851	22649
874.979	22675
875.108	22656
875.237	22462
875.365	22481
875.494	22618
875.623	22649
875.751	22664
875.88	22740
876.008	22710
876.136	22896
876.265	23014
876.393	23193
876.521	23048
876.65	23003
876.778	23037
876.906	22980
877.034	22934
877.162	22904
877.29	23056
877.418	22892
877.546	22927
877.674	22938
877.802	23048
877.93	23124
878.058	22965
878.185	22774
878.313	23029
878.441	22839
878.568	22835
878.696	22900
878.824	22976
878.951	23044
879.079	23102
879.206	23235
879.333	23261
879.461	22965
879.588	23086
879.715	23174
879.842	23334
879.97	23090
880.097	22797
880.224	22748
880.351	22881
880.478	22748
880.605	22736
880.732	22793
880.859	22904
880.986	22801
881.112	22816
881.239	22725
881.366	22527
881.493	22569
881.619	22394
881.746	22451
881.872	22348
881.999	22386
882.125	22318
882.252	22443
882.378	22375
882.505	22474
882.631	22154
882.757	21949
882.883	22196
883.01	22021
883.136	21934
883.262	21892
883.388	21892
883.514	22112
883.64	21987
883.766	22002
883.892	21819
884.018	21781
884.143	22059
884.269	21991
884.395	21778
884.52	21641
884.646	21595
884.772	21648
884.897	21553
885.023	21667
885.148	21720
885.274	21762
885.399	21770
885.524	21545
885.65	21827
885.775	21682
885.9	21644
886.025	21717
886.15	21747
886.275	21694
886.4	21542
886.525	21694
886.65	21530
886.775	21648
886.9	21831
887.025	21781
887.149	21701
887.274	21507
887.399	21389
887.523	21412
887.648	21530
887.773	21367
887.897	21526
888.021	21568
888.146	21367
888.27	21545
888.395	21614
888.519	21439
888.643	21458
888.767	21428
888.891	21450
889.015	21275
889.139	21272
889.263	21275
889.387	21336
889.511	21496
889.635	21336
889.759	21100
889.883	21363
890.006	21329
890.13	21275
890.254	21203
890.377	21154
890.501	21032
890.624	20986
890.748	20880
890.871	20971
890.995	20705
891.118	20906
891.241	20796
891.364	20804
891.488	20781
891.611	20708
891.734	20849
891.857	20853
891.98	20861
892.103	20861
892.226	20838
892.349	20708
892.471	20537
892.594	20648
892.717	20693
892.839	20754
892.962	20583
893.085	20754
893.207	20697
893.33	20640
893.452	20640
893.575	20743
893.697	20682
893.819	20861
893.941	20853
894.064	20750
894.186	20674
894.308	20648
894.43	20743
894.552	20823
894.674	20777
894.796	20613
894.918	20594
895.04	20739
895.161	20750
895.283	20712
895.405	20720
895.526	20769
895.648	20701
895.769	20667
895.891	20697
896.012	20830
896.134	20697
896.255	20659
896.376	20629
896.498	20743
896.619	20697
896.74	20621
896.861	20606
896.982	21074
897.103	21127
897.224	20826
897.345	20838
897.466	20868
897.587	20853
897.708	21032
897.828	20971
897.949	20861
898.07	20739
898.19	20826
898.311	20815
898.431	20891
898.552	20914
898.672	20918
898.792	20963
898.913	20929
899.033	20815
899.153	20689
899.273	20644
899.393	20648
899.513	20659
899.633	20606
899.753	20568
899.873	20507
899.993	20564
900.113	20545
900.232	20560
900.352	20450
900.472	20362
900.591	20267
900.711	20469
900.83	20294
900.95	20484
901.069	20499
901.189	20309
901.308	19993
901.427	19913
901.546	19928
901.665	19940
901.784	19959
901.904	19822
902.023	19696
902.141	19502
902.26	19567
902.379	19556
902.498	19529
902.617	19544
902.735	19472
902.854	19381
902.973	19396
903.091	19221
903.21	19042
903.328	19061
903.446	19152
903.565	18935
903.683	18951
903.801	18833
903.919	18947
904.038	18863
904.156	18692
904.274	18741
904.392	18684
904.51	18654
904.627	18772
904.745	18681
904.863	18817
904.981	18471
905.098	18323
905.216	18304
905.334	18456
905.451	18376
905.569	18311
905.686	18384
905.803	18380
905.921	18159
906.038	18239
906.155	18289
906.272	18060
906.389	18110
906.506	17980
906.623	17904
906.74	17836
906.857	17790
906.974	17843
907.091	18030
907.208	18022
907.324	17969
907.441	17802
907.557	17596
907.674	17714
907.79	17592
907.907	17570
908.023	17634
908.139	17687
908.256	17573
908.372	17543
908.488	17410
908.604	17414
908.72	17398
908.836	17280
908.952	17315
909.068	17398
909.184	17391
909.3	17284
909.415	17250
909.531	17269
909.647	17003
909.762	17014
909.878	16976
909.993	17109
910.108	16946
910.224	16957
910.339	17041
910.454	17022
910.57	16896
910.685	16801
910.8	17071
910.915	16961
911.03	16839
911.145	16733
911.259	16626
911.374	16668
911.489	16565
911.604	16485
911.718	16436
911.833	16398
911.947	16295
912.062	16135
912.176	16325
912.291	16249
912.405	16375
912.519	16466
912.633	16542
912.748	16299
912.862	16390
912.976	16124
913.09	16025
913.204	16082
913.318	16173
913.431	16265
913.545	16230
913.659	16234
913.772	16090
913.886	15930
914	15857
914.113	16017
914.226	16067
914.34	15949
914.453	15774
914.566	16032
914.68	15838
914.793	15762
914.906	15629
915.019	15618
915.132	15458
915.245	15542
915.358	15526
915.47	15557
915.583	15462
915.696	15584
915.809	15606
915.921	15682
916.034	15450
916.146	15450
916.259	15431
916.371	15587
916.483	15485
916.595	15420
916.708	15420
916.82	15424
916.932	15382
917.044	15291
917.156	15275
917.268	15199
917.38	15222
917.491	15138
917.603	15214
917.715	15226
917.826	15226
917.938	15154
918.049	14975
918.161	15039
918.272	15268
918.384	15138
918.495	15119
918.606	14982
918.717	14861
918.828	14830
918.939	14899
919.05	14868
919.161	14872
919.272	14750
919.383	14765
919.494	14876
919.604	15165
919.715	14948
919.826	14758
919.936	14826
920.047	15036
920.157	14872
920.267	15055
920.378	14918
920.488	14811
920.598	14990
920.708	15173
920.818	14948
920.928	14998
921.038	15188
921.148	15192
921.258	14925
921.368	14689
921.477	14621
921.587	14636
921.697	14518
921.806	14575
921.916	14503
922.025	14320
922.134	14282
922.244	14172
922.353	14252
922.462	14084
922.571	14058
922.68	13947
922.789	13944
922.898	13989
923.007	13875
923.116	13894
923.224	13921
923.333	13845
923.442	13856
923.55	13712
923.659	13681
923.767	13849
923.876	13738
923.984	13788
924.092	13651
924.201	13647
924.309	13624
924.417	13601
924.525	13594
924.633	13514
924.741	14526
924.849	13304
924.956	13548
925.064	13312
925.172	13187
925.279	13266
925.387	13434
925.494	13331
925.602	13396
925.709	13358
925.816	13251
925.924	13343
926.031	13339
926.138	13198
926.245	13225
926.352	13149
926.459	13324
926.566	13282
926.673	13190
926.779	13053
926.886	13076
926.993	12806
927.099	12852
927.206	12772
927.312	12814
927.419	12833
927.525	12859
927.631	12901
927.737	12791
927.843	12707
927.95	12707
928.056	12696
928.162	12639
928.267	12673
928.373	13160
928.479	12757
928.585	12563
928.69	12642
928.796	12616
928.901	12498
929.007	12361
929.112	12551
929.218	12422
929.323	12384
929.428	12380
929.533	12502
929.638	12323
929.743	12327
929.848	12365
929.953	12334
930.058	12182
930.163	11950
930.267	12095
930.372	12171
930.477	11965
930.581	12270
930.685	12110
930.79	11973
930.894	11961
930.998	11847
931.103	12030
931.207	11589
931.311	11668
931.415	11585
931.519	11296
931.623	11277
