Data from test_V78500241_2845.txt Node
Date: Fri Mar 25 15:29:40 CST 2022
User: usil
Spectrometer: V785-0024
Trigger mode: 0
Integration Time (sec): 4.000000E-1
Scans to average: 1
Nonlinearity correction enabled: false
Boxcar width: 0
Storing dark spectrum: false
XAxis mode: Wavelengths
Number of Pixels in Spectrum: 1024
>>>>>Begin Spectral Data<<<<<
801.071	27340
801.214	27268
801.356	26830
801.499	26735
801.641	26689
801.783	26762
801.926	26925
802.068	26651
802.211	26777
802.353	26648
802.496	26602
802.638	26446
802.78	26381
802.923	26294
803.065	26286
803.208	26317
803.35	26412
803.492	26507
803.635	26552
803.777	26488
803.919	26590
804.061	26880
804.204	26716
804.346	26541
804.488	26358
804.63	26587
804.773	26503
804.915	26579
805.057	26617
805.199	26541
805.341	26640
805.483	26663
805.626	26651
805.768	26560
805.91	26670
806.052	26735
806.194	26545
806.336	26864
806.478	26583
806.62	26670
806.762	26655
806.904	26899
807.046	27127
807.188	26990
807.33	27268
807.472	27051
807.614	26906
807.756	27047
807.898	26849
808.04	27009
808.182	26967
808.324	26899
808.465	26834
808.607	27089
808.749	27218
808.891	27325
809.033	27401
809.174	27454
809.316	27348
809.458	27199
809.6	27241
809.741	27473
809.883	27370
810.025	27397
810.166	27416
810.308	27538
810.45	27496
810.591	27496
810.733	27226
810.875	27154
811.016	27249
811.158	27096
811.299	27287
811.441	27401
811.582	27363
811.724	27370
811.865	27169
812.007	27203
812.148	27180
812.29	27268
812.431	27355
812.573	27496
812.714	27652
812.855	27755
812.997	27751
813.138	28067
813.279	27888
813.421	27732
813.562	27576
813.703	27709
813.845	27431
813.986	27241
814.127	27017
814.268	26815
814.41	26944
814.551	26960
814.692	26979
814.833	26853
814.974	26800
815.115	27001
815.256	26754
815.397	26739
815.539	26765
815.68	26621
815.821	26571
815.962	26765
816.103	26533
816.244	26556
816.385	26495
816.526	26473
816.666	26298
816.807	26115
816.948	26199
817.089	26275
817.23	26377
817.371	26290
817.512	26176
817.653	26240
817.793	26046
817.934	26035
818.075	26290
818.216	26248
818.356	26050
818.497	26008
818.638	25963
818.778	25997
818.919	25925
819.06	25909
819.2	26069
819.341	26210
819.481	26062
819.622	26336
819.762	26453
819.903	26465
820.043	26461
820.184	26221
820.324	26164
820.465	26404
820.605	26343
820.746	26282
820.886	26050
821.026	26282
821.167	26195
821.307	26256
821.447	26138
821.588	25997
821.728	25833
821.868	25742
822.008	25635
822.149	25655
822.289	25597
822.429	25335
822.569	25259
822.709	25400
822.849	25141
822.99	25061
823.13	25179
823.27	25118
823.41	25019
823.55	24863
823.69	25088
823.83	24886
823.97	24935
824.11	24768
824.25	24920
824.389	24661
824.529	24897
824.669	24837
824.809	24825
824.949	24970
825.089	24924
825.228	24749
825.368	24582
825.508	24582
825.648	24578
825.787	24608
825.927	24719
826.067	24700
826.206	24612
826.346	24753
826.485	24650
826.625	24551
826.765	24806
826.904	24707
827.044	24350
827.183	24388
827.323	24334
827.462	24346
827.601	24235
827.741	24315
827.88	24380
828.02	24152
828.159	24308
828.298	24346
828.437	24369
828.577	24243
828.716	24376
828.855	24228
828.994	23954
829.134	23969
829.273	24076
829.412	24095
829.551	24022
829.69	24178
829.829	23935
829.968	24053
830.107	24098
830.246	24155
830.385	23984
830.524	23870
830.663	23775
830.802	23737
830.941	23573
831.08	23589
831.219	23764
831.357	23707
831.496	23984
831.635	23570
831.774	23558
831.913	23547
832.051	23436
832.19	23509
832.329	23501
832.467	23376
832.606	23307
832.744	23254
832.883	23200
833.022	23307
833.16	23170
833.299	23307
833.437	23349
833.576	23398
833.714	23372
833.852	23391
833.991	23429
834.129	23452
834.267	23360
834.406	23368
834.544	23326
834.682	23433
834.821	23402
834.959	23516
835.097	23235
835.235	23265
835.373	23299
835.511	23376
835.65	23265
835.788	23200
835.926	23060
836.064	23018
836.202	23079
836.34	23136
836.478	23322
836.615	23204
836.753	23121
836.891	23246
837.029	23185
837.167	23140
837.305	23064
837.443	23102
837.58	23067
837.718	23132
837.856	22923
837.993	22968
838.131	23086
838.269	22919
838.406	22999
838.544	22858
838.681	22645
838.819	22554
838.956	22493
839.094	22512
839.231	22512
839.369	22519
839.506	23029
839.643	22736
839.781	22550
839.918	22459
840.055	22436
840.193	22504
840.33	22405
840.467	22417
840.604	22481
840.742	22660
840.879	22276
841.016	22306
841.153	22363
841.29	22538
841.427	22474
841.564	22542
841.701	22424
841.838	22405
841.975	22398
842.112	22379
842.249	22291
842.385	22318
842.522	22443
842.659	22169
842.796	22158
842.933	22154
843.069	22150
843.206	22143
843.343	22215
843.479	22169
843.616	22188
843.752	21956
843.889	21918
844.025	22139
844.162	22010
844.298	22173
844.435	21873
844.571	22048
844.708	22101
844.844	22112
844.98	22093
845.117	22051
845.253	21800
845.389	21823
845.525	21800
845.661	21812
845.798	21698
845.934	21709
846.07	21610
846.206	21720
846.342	21964
846.478	21732
846.614	21545
846.75	21367
846.886	21397
847.022	21507
847.158	21416
847.294	21469
847.429	21462
847.565	21568
847.701	21675
847.837	21222
847.972	21233
848.108	21310
848.244	21230
848.379	21100
848.515	20937
848.65	21077
848.786	21058
848.921	20998
849.057	21093
849.192	21135
849.328	21100
849.463	21096
849.598	20948
849.734	20963
849.869	20883
850.004	20925
850.14	20902
850.275	20750
850.41	20716
850.545	20689
850.68	20750
850.815	20785
850.95	20750
851.085	20914
851.22	20948
851.355	20804
851.49	20720
851.625	20765
851.76	20830
851.895	20716
852.03	20674
852.165	20773
852.299	20823
852.434	20944
852.569	20857
852.703	20720
852.838	20811
852.973	20838
853.107	20826
853.242	20796
853.376	20678
853.511	20488
853.645	20549
853.78	20689
853.914	20594
854.048	20686
854.183	20518
854.317	20663
854.451	20659
854.585	20754
854.72	20659
854.854	20651
854.988	20537
855.122	20655
855.256	20492
855.39	20636
855.524	20701
855.658	20765
855.792	20701
855.926	20689
856.06	20701
856.194	20579
856.327	20609
856.461	20590
856.595	20537
856.729	20617
856.862	20651
856.996	20648
857.13	20617
857.263	20663
857.397	20754
857.53	20621
857.664	20625
857.797	20724
857.931	20617
858.064	20750
858.197	20724
858.331	20594
858.464	20526
858.597	20408
858.731	20606
858.864	20632
858.997	20602
859.13	20648
859.263	20621
859.396	20701
859.529	20686
859.662	20594
859.795	20686
859.928	20674
860.061	20632
860.194	20826
860.327	20617
860.46	20708
860.592	20792
860.725	20739
860.858	20819
860.99	20568
861.123	20522
861.256	20598
861.388	20556
861.521	21272
861.653	20450
861.786	20511
861.918	20568
862.05	20533
862.183	20533
862.315	20609
862.447	20507
862.58	20511
862.712	20396
862.844	20259
862.976	20495
863.108	20484
863.24	20735
863.372	20218
863.504	20374
863.636	20389
863.768	20396
863.9	20358
864.032	20286
864.164	20305
864.296	20446
864.428	20473
864.559	20438
864.691	20408
864.823	20336
864.954	20214
865.086	20278
865.217	20252
865.349	20161
865.48	20252
865.612	20180
865.743	20355
865.875	20282
866.006	20145
866.137	20294
866.269	20122
866.4	20259
866.531	20256
866.662	20088
866.793	20240
866.924	20187
867.055	20267
867.186	20187
867.317	20221
867.448	20043
867.579	20149
867.71	20180
867.841	20138
867.972	20206
868.103	20103
868.233	20218
868.364	20263
868.495	20385
868.625	20347
868.756	20514
868.886	20317
869.017	20412
869.147	20495
869.278	20438
869.408	20408
869.539	20404
869.669	20499
869.799	20476
869.929	20545
870.06	20484
870.19	20754
870.32	20743
870.45	20853
870.58	20807
870.71	20956
870.84	20876
870.97	20861
871.1	20743
871.23	21013
871.36	21055
871.489	20971
871.619	21036
871.749	20937
871.879	20998
872.008	21195
872.138	20960
872.267	21017
872.397	20952
872.526	20864
872.656	20826
872.785	20838
872.915	21116
873.044	21112
873.173	21100
873.303	21066
873.432	21138
873.561	21062
873.69	21123
873.819	20998
873.948	21199
874.077	21085
874.206	21077
874.335	21039
874.464	21081
874.593	21260
874.722	21226
874.851	21264
874.979	21252
875.108	21408
875.237	21329
875.365	21165
875.494	21256
875.623	21325
875.751	21359
875.88	21355
876.008	21386
876.136	21599
876.265	21720
876.393	21888
876.521	21797
876.65	21766
876.778	21709
876.906	21610
877.034	21682
877.162	21656
877.29	21603
877.418	21675
877.546	21766
877.674	21663
877.802	21739
877.93	21633
878.058	21679
878.185	21625
878.313	21671
878.441	21618
878.568	21538
878.696	21682
878.824	21717
878.951	21823
879.079	21934
879.206	21884
879.333	21922
879.461	21679
879.588	21789
879.715	21899
879.842	21869
879.97	21736
880.097	21439
880.224	21492
880.351	21507
880.478	21641
880.605	21443
880.732	21477
880.859	21759
880.986	21458
881.112	21519
881.239	21534
881.366	21252
881.493	21100
881.619	21173
881.746	21188
881.872	21123
881.999	21154
882.125	20933
882.252	21222
882.378	21077
882.505	21085
882.631	20914
882.757	20746
882.883	20864
883.01	20758
883.136	20796
883.262	20632
883.388	20750
883.514	20826
883.64	20857
883.766	20727
883.892	20575
884.018	20667
884.143	20815
884.269	20849
884.395	20560
884.52	20438
884.646	20450
884.772	20320
884.897	20396
885.023	20446
885.148	20507
885.274	20476
885.399	20602
885.524	20427
885.65	20431
885.775	20507
885.9	20461
886.025	20499
886.15	20533
886.275	20457
886.4	20317
886.525	20339
886.65	20366
886.775	20408
886.9	20621
887.025	20613
887.149	20454
887.274	20252
887.399	20332
887.523	20244
887.648	20248
887.773	20142
887.897	20225
888.021	20324
888.146	20271
888.27	20389
888.395	20313
888.519	20275
888.643	20278
888.767	20183
888.891	20062
889.015	20024
889.139	20111
889.263	20039
889.387	20168
889.511	20122
889.635	20142
889.759	19894
889.883	19913
890.006	19993
890.13	20122
890.254	19940
890.377	19868
890.501	19856
890.624	19731
890.748	19708
890.871	19742
890.995	19567
891.118	19438
891.241	19533
891.364	19578
891.488	19772
891.611	19601
891.734	19609
891.857	19628
891.98	19540
892.103	19647
892.226	19658
892.349	19502
892.471	19430
892.594	19521
892.717	19563
892.839	19556
892.962	19457
893.085	19605
893.207	19449
893.33	19354
893.452	19384
893.575	19601
893.697	19510
893.819	19723
893.941	19738
894.064	19556
894.186	19502
894.308	19365
894.43	19681
894.552	19700
894.674	19506
894.796	19476
894.918	19434
895.04	19521
895.161	19677
895.283	19495
895.405	19491
895.526	19514
895.648	19495
895.769	19578
895.891	19635
896.012	19575
896.134	19594
896.255	19529
896.376	19487
896.498	19499
896.619	19597
896.74	19537
896.861	19601
896.982	19932
897.103	19986
897.224	19826
897.345	19860
897.466	19791
897.587	19704
897.708	19776
897.828	19746
897.949	19674
898.07	19609
898.19	19719
898.311	19807
898.431	19635
898.552	19849
898.672	19776
898.792	19769
898.913	19811
899.033	19571
899.153	19537
899.273	19563
899.393	19670
899.513	19590
899.633	19540
899.753	19525
899.873	19422
899.993	19563
900.113	19525
900.232	19556
900.352	19362
900.472	19464
900.591	19369
900.711	19419
900.83	19278
900.95	19426
901.069	19415
901.189	19148
901.308	18977
901.427	18913
901.546	19031
901.665	18924
901.784	18993
901.904	18757
902.023	18646
902.141	18604
902.26	18433
902.379	18517
902.498	18361
902.617	18334
902.735	18540
902.854	18323
902.973	18350
903.091	18045
903.21	18034
903.328	18045
903.446	17927
903.565	17863
903.683	17946
903.801	17805
903.919	17863
904.038	17889
904.156	17661
904.274	17764
904.392	17676
904.51	17611
904.627	17737
904.745	17710
904.863	17726
904.981	17429
905.098	17459
905.216	17292
905.334	17341
905.451	17429
905.569	17280
905.686	17425
905.803	17292
905.921	17261
906.038	17254
906.155	17204
906.272	17109
906.389	17041
906.506	16984
906.623	16980
906.74	16949
906.857	16805
906.974	16702
907.091	16953
907.208	17041
907.324	16858
907.441	16801
907.557	16618
907.674	16683
907.79	16569
907.907	16535
908.023	16603
908.139	16622
908.256	16611
908.372	16474
908.488	16440
908.604	16424
908.72	16367
908.836	16344
908.952	16261
909.068	16382
909.184	16459
909.3	16417
909.415	16344
909.531	16272
909.647	16093
909.762	16036
909.878	15975
909.993	16048
910.108	16067
910.224	15998
910.339	16071
910.454	15926
910.57	15895
910.685	15831
910.8	16067
910.915	15960
911.03	15861
911.145	15724
911.259	15622
911.374	15675
911.489	15519
911.604	15587
911.718	15424
911.833	15367
911.947	15325
912.062	15222
912.176	15397
912.291	15420
912.405	15408
912.519	15644
912.633	15637
912.748	15443
912.862	15363
912.976	15252
913.09	15085
913.204	15184
913.318	15268
913.431	15245
913.545	15249
913.659	15249
913.772	15097
913.886	14994
914	14994
914.113	15218
914.226	15074
914.34	15077
914.453	14914
914.566	14948
914.68	14956
914.793	14876
914.906	14743
915.019	14621
915.132	14606
915.245	14598
915.358	14648
915.47	14644
915.583	14693
915.696	14678
915.809	14769
915.921	14712
916.034	14640
916.146	14518
916.259	14552
916.371	14655
916.483	14632
916.595	14434
916.708	14545
916.82	14446
916.932	14476
917.044	14484
917.156	14469
917.268	14214
917.38	14248
917.491	14298
917.603	14282
917.715	14324
917.826	14423
917.938	14256
918.049	14111
918.161	14298
918.272	14412
918.384	14370
918.495	14244
918.606	14100
918.717	14043
918.828	14142
918.939	14054
919.05	14001
919.161	14008
919.272	13909
919.383	13887
919.494	14111
919.604	14259
919.715	14149
919.826	14008
919.936	14027
920.047	14100
920.157	14058
920.267	14290
920.378	14149
920.488	14035
920.598	14248
920.708	14400
920.818	14206
920.928	14180
921.038	14275
921.148	14290
921.258	14008
921.368	13936
921.477	13818
921.587	13803
921.697	13734
921.806	13750
921.916	13620
922.025	13521
922.134	13601
922.244	13335
922.353	13468
922.462	13407
922.571	13365
922.68	13171
922.789	13141
922.898	13110
923.007	13149
923.116	13053
923.224	13091
923.333	13053
923.442	12958
923.55	12928
923.659	13019
923.767	13080
923.876	12989
923.984	13065
924.092	12913
924.201	12863
924.309	12890
924.417	12863
924.525	12776
924.633	12730
924.741	13681
924.849	12498
924.956	12715
925.064	12601
925.172	12483
925.279	12566
925.387	12570
925.494	12467
925.602	12715
925.709	12612
925.816	12464
925.924	12467
926.031	12604
926.138	12502
926.245	12506
926.352	12342
926.459	12642
926.566	12639
926.673	12388
926.779	12350
926.886	12285
926.993	12136
927.099	12136
927.206	12087
927.312	12053
927.419	12171
927.525	12098
927.631	12186
927.737	12003
927.843	12026
927.95	11961
928.056	11950
928.162	11939
928.267	12057
928.373	12642
928.479	11992
928.585	11813
928.69	11946
928.796	11973
928.901	11821
929.007	11710
929.112	11824
929.218	11737
929.323	11707
929.428	11668
929.533	11817
929.638	11638
929.743	11608
929.848	11695
929.953	11642
930.058	11490
930.163	11315
930.267	11398
930.372	11501
930.477	11318
930.581	11585
930.685	11395
930.79	11330
930.894	11296
930.998	11288
931.103	11452
931.207	10938
931.311	10961
931.415	10816
931.519	10755
931.623	10679
