Data from test_V78500241_184.txt Node
Date: Fri Mar 25 15:11:08 CST 2022
User: usil
Spectrometer: V785-0024
Trigger mode: 0
Integration Time (sec): 4.000000E-1
Scans to average: 1
Nonlinearity correction enabled: false
Boxcar width: 0
Storing dark spectrum: false
XAxis mode: Wavelengths
Number of Pixels in Spectrum: 1024
>>>>>Begin Spectral Data<<<<<
801.071	27914
801.214	27842
801.356	27728
801.499	27656
801.641	27477
801.783	27332
801.926	27424
802.068	27382
802.211	27386
802.353	27173
802.496	27173
802.638	27165
802.78	27081
802.923	26899
803.065	26933
803.208	26960
803.35	27070
803.492	27131
803.635	27142
803.777	27009
803.919	27203
804.061	27329
804.204	27237
804.346	27195
804.488	27017
804.63	27028
804.773	26872
804.915	26963
805.057	27237
805.199	27055
805.341	27230
805.483	27233
805.626	27138
805.768	27070
805.91	27192
806.052	27188
806.194	27093
806.336	27389
806.478	27195
806.62	27077
806.762	27348
806.904	27492
807.046	27511
807.188	27561
807.33	27557
807.472	27606
807.614	27443
807.756	27507
807.898	27291
808.04	27279
808.182	27401
808.324	27340
808.465	27523
808.607	27523
808.749	27701
808.891	27827
809.033	27892
809.174	27694
809.316	27762
809.458	27751
809.6	27633
809.741	27759
809.883	27656
810.025	27895
810.166	27991
810.308	28040
810.45	27819
810.591	27804
810.733	27694
810.875	27599
811.016	27538
811.158	27553
811.299	27667
811.441	27835
811.582	27739
811.724	27656
811.865	27694
812.007	27641
812.148	27625
812.29	27736
812.431	27759
812.573	28040
812.714	28131
812.855	28192
812.997	28211
813.138	28367
813.279	28242
813.421	28131
813.562	28063
813.703	28029
813.845	27926
813.986	27576
814.127	27447
814.268	27355
814.41	27473
814.551	27374
814.692	27306
814.833	27112
814.974	27135
815.115	27260
815.256	27173
815.397	27104
815.539	27081
815.68	26918
815.821	26921
815.962	27173
816.103	26952
816.244	27013
816.385	26720
816.526	26899
816.666	26590
816.807	26431
816.948	26556
817.089	26667
817.23	26465
817.371	26522
817.512	26453
817.653	26434
817.793	26404
817.934	26457
818.075	26480
818.216	26473
818.356	26351
818.497	26263
818.638	26149
818.778	26111
818.919	26111
819.06	26153
819.2	26278
819.341	26263
819.481	26347
819.622	26625
819.762	26708
819.903	26495
820.043	26461
820.184	26404
820.324	26423
820.465	26560
820.605	26511
820.746	26465
820.886	26396
821.026	26511
821.167	26434
821.307	26431
821.447	26370
821.588	26332
821.728	26161
821.868	26103
822.008	25913
822.149	25879
822.289	25769
822.429	25597
822.569	25381
822.709	25559
822.849	25282
822.99	25350
823.13	25175
823.27	25350
823.41	25057
823.55	25015
823.69	25126
823.83	25110
823.97	25027
824.11	24897
824.25	24928
824.389	24954
824.529	24985
824.669	24844
824.809	24894
824.949	24844
825.089	25061
825.228	24985
825.368	24795
825.508	24848
825.648	24715
825.787	24707
825.927	24738
826.067	24696
826.206	24646
826.346	24635
826.485	24772
826.625	24700
826.765	24856
826.904	24658
827.044	24448
827.183	24376
827.323	24258
827.462	24517
827.601	24414
827.741	24384
827.88	24509
828.02	24296
828.159	24384
828.298	24429
828.437	24315
828.577	24330
828.716	24525
828.855	24391
828.994	24152
829.134	24026
829.273	24144
829.412	24178
829.551	23939
829.69	24060
829.829	24194
829.968	24110
830.107	24041
830.246	24136
830.385	24064
830.524	23927
830.663	23897
830.802	23668
830.941	23691
831.08	23668
831.219	23684
831.357	23611
831.496	23745
831.635	23722
831.774	23608
831.913	23531
832.051	23493
832.19	23379
832.329	23482
832.467	23353
832.606	23269
832.744	23185
832.883	23379
833.022	23254
833.16	23326
833.299	23296
833.437	23227
833.576	23334
833.714	23303
833.852	23474
833.991	23391
834.129	23486
834.267	23425
834.406	23433
834.544	23303
834.682	23322
834.821	23307
834.959	23448
835.097	23159
835.235	23410
835.373	23284
835.511	23166
835.65	23269
835.788	23075
835.926	22915
836.064	22923
836.202	22984
836.34	23128
836.478	23197
836.615	23033
836.753	23212
836.891	23216
837.029	23200
837.167	23113
837.305	23064
837.443	22946
837.58	23003
837.718	23109
837.856	22980
837.993	22999
838.131	22934
838.269	22869
838.406	22869
838.544	22801
838.681	22660
838.819	22580
838.956	22531
839.094	22360
839.231	22428
839.369	22573
839.506	22778
839.643	22744
839.781	22440
839.918	22337
840.055	22436
840.193	22230
840.33	22417
840.467	22249
840.604	22371
840.742	22645
840.879	22265
841.016	22295
841.153	22200
841.29	22394
841.427	22356
841.564	22455
841.701	22238
841.838	22352
841.975	22219
842.112	22295
842.249	22177
842.385	22055
842.522	22295
842.659	22154
842.796	22044
842.933	22097
843.069	22090
843.206	22040
843.343	22048
843.479	22067
843.616	22029
843.752	21861
843.889	21873
844.025	22048
844.162	21743
844.298	21922
844.435	21823
844.571	21751
844.708	21793
844.844	21960
844.98	21979
845.117	21892
845.253	21694
845.389	21568
845.525	21739
845.661	21644
845.798	21591
845.934	21504
846.07	21408
846.206	21511
846.342	21648
846.478	21454
846.614	21302
846.75	21260
846.886	21306
847.022	21428
847.158	21272
847.294	21351
847.429	21241
847.565	21211
847.701	21435
847.837	21001
847.972	20994
848.108	21195
848.244	20998
848.379	20937
848.515	20864
848.65	20853
848.786	20933
848.921	20925
849.057	21047
849.192	20967
849.328	20826
849.463	20811
849.598	20754
849.734	20674
849.869	20590
850.004	20663
850.14	20602
850.275	20556
850.41	20442
850.545	20537
850.68	20602
850.815	20609
850.95	20590
851.085	20777
851.22	20602
851.355	20625
851.49	20568
851.625	20594
851.76	20419
851.895	20526
852.03	20381
852.165	20503
852.299	20583
852.434	20670
852.569	20552
852.703	20522
852.838	20651
852.973	20758
853.107	20777
853.242	20461
853.376	20431
853.511	20187
853.645	20336
853.78	20454
853.914	20290
854.048	20362
854.183	20385
854.317	20393
854.451	20552
854.585	20309
854.72	20381
854.854	20533
854.988	20263
855.122	20324
855.256	20138
855.39	20343
855.524	20275
855.658	20446
855.792	20438
855.926	20419
856.06	20343
856.194	20419
856.327	20415
856.461	20339
856.595	20221
856.729	20396
856.862	20530
856.996	20332
857.13	20351
857.263	20419
857.397	20469
857.53	20271
857.664	20377
857.797	20427
857.931	20469
858.064	20389
858.197	20412
858.331	20393
858.464	20278
858.597	20183
858.731	20404
858.864	20290
858.997	20351
859.13	20370
859.263	20381
859.396	20408
859.529	20328
859.662	20336
859.795	20161
859.928	20328
860.061	20533
860.194	20526
860.327	20336
860.46	20385
860.592	20438
860.725	20511
860.858	20454
860.99	20336
861.123	20202
861.256	20252
861.388	20298
861.521	21123
861.653	20115
861.786	20145
861.918	20164
862.05	20294
862.183	20366
862.315	20385
862.447	20419
862.58	20271
862.712	20043
862.844	20100
862.976	20046
863.108	20054
863.24	20355
863.372	20043
863.504	20111
863.636	20088
863.768	19940
863.9	20054
864.032	20081
864.164	19944
864.296	20168
864.428	20058
864.559	20073
864.691	20103
864.823	19963
864.954	20096
865.086	20012
865.217	19993
865.349	19856
865.48	19959
865.612	19993
865.743	20012
865.875	20020
866.006	19852
866.137	19982
866.269	20065
866.4	19932
866.531	19879
866.662	19822
866.793	19837
866.924	19955
867.055	19944
867.186	19875
867.317	19795
867.448	19738
867.579	19803
867.71	19803
867.841	19738
867.972	19879
868.103	19959
868.233	19940
868.364	19913
868.495	19928
868.625	20126
868.756	20256
868.886	20073
869.017	20100
869.147	20176
869.278	20324
869.408	20145
869.539	20077
869.669	20233
869.799	20077
869.929	20229
870.06	20183
870.19	20484
870.32	20469
870.45	20400
870.58	20465
870.71	20621
870.84	20526
870.97	20469
871.1	20537
871.23	20689
871.36	20678
871.489	20461
871.619	20556
871.749	20636
871.879	20670
872.008	20819
872.138	20659
872.267	20758
872.397	20594
872.526	20476
872.656	20461
872.785	20499
872.915	20758
873.044	20788
873.173	20689
873.303	20655
873.432	20705
873.561	20819
873.69	20804
873.819	20727
873.948	20750
874.077	20796
874.206	20689
874.335	20826
874.464	20792
874.593	20933
874.722	20906
874.851	20929
874.979	20960
875.108	21058
875.237	20849
875.365	20826
875.494	20948
875.623	21032
875.751	20929
875.88	21055
876.008	21085
876.136	21081
876.265	21272
876.393	21526
876.521	21367
876.65	21397
876.778	21370
876.906	21332
877.034	21214
877.162	21298
877.29	21344
877.418	21329
877.546	21321
877.674	21264
877.802	21252
877.93	21306
878.058	21363
878.185	21245
878.313	21332
878.441	21374
878.568	21233
878.696	21237
878.824	21359
878.951	21355
879.079	21580
879.206	21583
879.333	21473
879.461	21389
879.588	21408
879.715	21587
879.842	21625
879.97	21473
880.097	21039
880.224	21108
880.351	21226
880.478	21131
880.605	21135
880.732	21074
880.859	21313
880.986	21150
881.112	21211
881.239	21154
881.366	20815
881.493	20845
881.619	20746
881.746	20682
881.872	20663
881.999	20609
882.125	20636
882.252	20739
882.378	20811
882.505	20838
882.631	20629
882.757	20507
882.883	20507
883.01	20503
883.136	20278
883.262	20423
883.388	20214
883.514	20587
883.64	20488
883.766	20514
883.892	20381
884.018	20278
884.143	20442
884.269	20473
884.395	20244
884.52	20115
884.646	20065
884.772	20122
884.897	19906
885.023	20069
885.148	20290
885.274	20233
885.399	20199
885.524	20073
885.65	20252
885.775	20153
885.9	20062
886.025	20290
886.15	20157
886.275	20142
886.4	19967
886.525	20069
886.65	20157
886.775	20142
886.9	20256
887.025	20343
887.149	20119
887.274	20058
887.399	19849
887.523	19887
887.648	19852
887.773	19803
887.897	20031
888.021	20050
888.146	19826
888.27	19974
888.395	20050
888.519	19982
888.643	20005
888.767	19940
888.891	19753
889.015	19708
889.139	19788
889.263	19616
889.387	19776
889.511	19989
889.635	19719
889.759	19734
889.883	19655
890.006	19662
890.13	19780
890.254	19601
890.377	19552
890.501	19457
890.624	19407
890.748	19434
890.871	19396
890.995	19206
891.118	19266
891.241	19297
891.364	19263
891.488	19453
891.611	19335
891.734	19335
891.857	19312
891.98	19270
892.103	19282
892.226	19384
892.349	19228
892.471	19019
892.594	19236
892.717	19244
892.839	19187
892.962	19206
893.085	19240
893.207	19217
893.33	19190
893.452	19126
893.575	19217
893.697	19209
893.819	19422
893.941	19339
894.064	19244
894.186	19152
894.308	19126
894.43	19282
894.552	19285
894.674	19335
894.796	19080
894.918	19194
895.04	19171
895.161	19285
895.283	19217
895.405	19263
895.526	19213
895.648	19156
895.769	19179
895.891	19274
896.012	19324
896.134	19369
896.255	19244
896.376	19107
896.498	19156
896.619	19331
896.74	19301
896.861	19301
896.982	19525
897.103	19677
897.224	19575
897.345	19472
897.466	19441
897.587	19453
897.708	19563
897.828	19544
897.949	19346
898.07	19251
898.19	19521
898.311	19525
898.431	19354
898.552	19499
898.672	19453
898.792	19419
898.913	19407
899.033	19285
899.153	19282
899.273	19183
899.393	19099
899.513	19114
899.633	19206
899.753	19240
899.873	19126
899.993	19221
900.113	18996
900.232	19206
900.352	19050
900.472	18954
900.591	18981
900.711	19046
900.83	18894
900.95	19019
901.069	19118
901.189	18939
901.308	18757
901.427	18532
901.546	18608
901.665	18722
901.784	18646
901.904	18467
902.023	18365
902.141	18133
902.26	18098
902.379	18045
902.498	18136
902.617	18083
902.735	18095
902.854	18152
902.973	18121
903.091	17676
903.21	17668
903.328	17767
903.446	17600
903.565	17543
903.683	17589
903.801	17414
903.919	17490
904.038	17520
904.156	17337
904.274	17528
904.392	17318
904.51	17368
904.627	17288
904.745	17311
904.863	17383
904.981	17265
905.098	17075
905.216	16991
905.334	17014
905.451	17143
905.569	17060
905.686	17140
905.803	16984
905.921	16881
906.038	16889
906.155	16854
906.272	16630
906.389	16729
906.506	16615
906.623	16584
906.74	16455
906.857	16504
906.974	16531
907.091	16634
907.208	16740
907.324	16584
907.441	16485
907.557	16272
907.674	16242
907.79	16242
907.907	16223
908.023	16299
908.139	16223
908.256	16120
908.372	16036
908.488	16101
908.604	15937
908.72	15937
908.836	15934
908.952	15953
909.068	15945
909.184	15968
909.3	15857
909.415	15991
909.531	15979
909.647	15663
909.762	15652
909.878	15663
909.993	15625
910.108	15481
910.224	15603
910.339	15557
910.454	15450
910.57	15462
910.685	15408
910.8	15568
910.915	15561
911.03	15488
911.145	15420
911.259	15192
911.374	15233
911.489	15260
911.604	15036
911.718	15009
911.833	14971
911.947	14914
912.062	14800
912.176	14986
912.291	14883
912.405	15013
912.519	15146
912.633	15214
912.748	15043
912.862	14933
912.976	14918
913.09	14735
913.204	14777
913.318	14891
913.431	14872
913.545	14910
913.659	14910
913.772	14823
913.886	14648
914	14640
914.113	14670
914.226	14845
914.34	14606
914.453	14518
914.566	14667
914.68	14514
914.793	14476
914.906	14366
915.019	14301
915.132	14282
915.245	14259
915.358	14218
915.47	14168
915.583	14263
915.696	14298
915.809	14427
915.921	14473
916.034	14240
916.146	14134
916.259	14191
916.371	14324
916.483	14286
916.595	14058
916.708	14096
916.82	14100
916.932	14100
917.044	14039
917.156	14107
917.268	13982
917.38	13936
917.491	13814
917.603	13970
917.715	13997
917.826	14035
917.938	13868
918.049	13803
918.161	13909
918.272	14065
918.384	14039
918.495	13906
918.606	13723
918.717	13605
918.828	13814
918.939	13807
919.05	13643
919.161	13719
919.272	13544
919.383	13658
919.494	13769
919.604	13925
919.715	13795
919.826	13708
919.936	13704
920.047	13826
920.157	13757
920.267	13830
920.378	13689
920.488	13731
920.598	13879
920.708	14001
920.818	13799
920.928	13738
921.038	14001
921.148	13936
921.258	13590
921.368	13540
921.477	13495
921.587	13449
921.697	13282
921.806	13495
921.916	13312
922.025	13084
922.134	13046
922.244	13012
922.353	13088
922.462	12947
922.571	12863
922.68	12700
922.789	12795
922.898	12734
923.007	12623
923.116	12760
923.224	12700
923.333	12696
923.442	12620
923.55	12578
923.659	12574
923.767	12665
923.876	12563
923.984	12593
924.092	12422
924.201	12471
924.309	12437
924.417	12525
924.525	12388
924.633	12494
924.741	13171
924.849	12247
924.956	12372
925.064	12247
925.172	12140
925.279	12133
925.387	12167
925.494	12140
925.602	12308
925.709	12262
925.816	12083
925.924	12190
926.031	12205
926.138	12144
926.245	12083
926.352	12098
926.459	12175
926.566	12239
926.673	12041
926.779	11977
926.886	11969
926.993	11809
927.099	11832
927.206	11817
927.312	11798
927.419	11920
927.525	11893
927.631	11817
927.737	11676
927.843	11592
927.95	11627
928.056	11551
928.162	11615
928.267	11684
928.373	12247
928.479	11695
928.585	11448
928.69	11512
928.796	11672
928.901	11558
929.007	11311
929.112	11452
929.218	11512
929.323	11395
929.428	11311
929.533	11486
929.638	11296
929.743	11318
929.848	11402
929.953	11353
930.058	11181
930.163	11105
930.267	11162
930.372	11185
930.477	11010
930.581	11235
930.685	11109
930.79	10927
930.894	11010
930.998	10919
931.103	11094
931.207	10618
931.311	10596
931.415	10573
931.519	10356
931.623	10386
