Data from test_V78500241_720.txt Node
Date: Fri Mar 25 15:14:52 CST 2022
User: usil
Spectrometer: V785-0024
Trigger mode: 0
Integration Time (sec): 4.000000E-1
Scans to average: 1
Nonlinearity correction enabled: false
Boxcar width: 0
Storing dark spectrum: false
XAxis mode: Wavelengths
Number of Pixels in Spectrum: 1024
>>>>>Begin Spectral Data<<<<<
801.071	28207
801.214	28074
801.356	27838
801.499	27804
801.641	27717
801.783	27622
801.926	27724
802.068	27660
802.211	27614
802.353	27507
802.496	27336
802.638	27485
802.78	27340
802.923	27462
803.065	27363
803.208	27241
803.35	27310
803.492	27466
803.635	27382
803.777	27466
803.919	27561
804.061	27732
804.204	27549
804.346	27431
804.488	27500
804.63	27477
804.773	27401
804.915	27561
805.057	27690
805.199	27473
805.341	27610
805.483	27675
805.626	27679
805.768	27393
805.91	27614
806.052	27580
806.194	27572
806.336	27842
806.478	27743
806.62	27747
806.762	27819
806.904	28002
807.046	28333
807.188	28154
807.33	28120
807.472	28207
807.614	27972
807.756	28067
807.898	27945
808.04	27949
808.182	27930
808.324	27895
808.465	27987
808.607	28200
808.749	28276
808.891	28455
809.033	28504
809.174	28440
809.316	28356
809.458	28569
809.6	28253
809.741	28436
809.883	28489
810.025	28546
810.166	28603
810.308	28474
810.45	28596
810.591	28611
810.733	28337
810.875	28284
811.016	28295
811.158	28344
811.299	28557
811.441	28500
811.582	28577
811.724	28443
811.865	28226
812.007	28215
812.148	28272
812.29	28398
812.431	28523
812.573	28767
812.714	28721
812.855	28915
812.997	28850
813.138	29113
813.279	29083
813.421	28843
813.562	28877
813.703	28656
813.845	28527
813.986	28356
814.127	28131
814.268	28010
814.41	28078
814.551	27987
814.692	28070
814.833	27975
814.974	27930
815.115	28059
815.256	27907
815.397	27873
815.539	28070
815.68	27907
815.821	27846
815.962	27873
816.103	27831
816.244	27850
816.385	27759
816.526	27583
816.666	27405
816.807	27241
816.948	27439
817.089	27519
817.23	27249
817.371	27294
817.512	27408
817.653	27389
817.793	27237
817.934	27378
818.075	27355
818.216	27370
818.356	27378
818.497	27359
818.638	27070
818.778	27138
818.919	27214
819.06	27272
819.2	27165
819.341	27348
819.481	27363
819.622	27485
819.762	27622
819.903	27663
820.043	27488
820.184	27515
820.324	27389
820.465	27507
820.605	27408
820.746	27511
820.886	27272
821.026	27462
821.167	27374
821.307	27519
821.447	27344
821.588	27302
821.728	27093
821.868	27112
822.008	26697
822.149	26868
822.289	26785
822.429	26560
822.569	26488
822.709	26400
822.849	26267
822.99	26408
823.13	26240
823.27	26339
823.41	26240
823.55	26081
823.69	26149
823.83	26096
823.97	26130
824.11	25940
824.25	25906
824.389	25936
824.529	26206
824.669	25978
824.809	26084
824.949	26103
825.089	26058
825.228	26119
825.368	25898
825.508	25750
825.648	25746
825.787	25845
825.927	25830
826.067	25845
826.206	25780
826.346	25879
826.485	25841
826.625	25868
826.765	25951
826.904	25776
827.044	25746
827.183	25499
827.323	25544
827.462	25632
827.601	25586
827.741	25567
827.88	25628
828.02	25365
828.159	25559
828.298	25449
828.437	25556
828.577	25506
828.716	25605
828.855	25430
828.994	25324
829.134	25240
829.273	25274
829.412	25320
829.551	25247
829.69	25297
829.829	25232
829.968	25335
830.107	25259
830.246	25434
830.385	25266
830.524	25076
830.663	25080
830.802	24981
830.941	24833
831.08	24764
831.219	24958
831.357	24882
831.496	25038
831.635	24817
831.774	24810
831.913	24768
832.051	24787
832.19	24635
832.329	24661
832.467	24505
832.606	24502
832.744	24456
832.883	24745
833.022	24540
833.16	24509
833.299	24559
833.437	24688
833.576	24563
833.714	24502
833.852	24703
833.991	24604
834.129	24604
834.267	24783
834.406	24452
834.544	24574
834.682	24681
834.821	24559
834.959	24726
835.097	24490
835.235	24513
835.373	24654
835.511	24433
835.65	24433
835.788	24467
835.926	24273
836.064	24197
836.202	24159
836.34	24323
836.478	24467
836.615	24391
836.753	24483
836.891	24486
837.029	24319
837.167	24292
837.305	24308
837.443	24262
837.58	24369
837.718	24414
837.856	24228
837.993	24087
838.131	24110
838.269	24114
838.406	24205
838.544	24083
838.681	23908
838.819	23965
838.956	23695
839.094	23832
839.231	23646
839.369	23935
839.506	24106
839.643	23897
839.781	23737
839.918	23657
840.055	23798
840.193	23733
840.33	23619
840.467	23623
840.604	23813
840.742	23737
840.879	23562
841.016	23589
841.153	23531
841.29	23695
841.427	23642
841.564	23619
841.701	23627
841.838	23585
841.975	23528
842.112	23615
842.249	23459
842.385	23334
842.522	23596
842.659	23501
842.796	23356
842.933	23353
843.069	23322
843.206	23303
843.343	23421
843.479	23395
843.616	23258
843.752	23113
843.889	23136
844.025	23239
844.162	23113
844.298	23334
844.435	23029
844.571	23132
844.708	23094
844.844	23307
844.98	23334
845.117	23223
845.253	23174
845.389	23064
845.525	23200
845.661	23041
845.798	22873
845.934	22797
846.07	22736
846.206	22968
846.342	22961
846.478	22866
846.614	22698
846.75	22592
846.886	22634
847.022	22687
847.158	22615
847.294	22436
847.429	22550
847.565	22580
847.701	22763
847.837	22333
847.972	22333
848.108	22413
848.244	22348
848.379	22238
848.515	22188
848.65	22185
848.786	22276
848.921	22318
849.057	22287
849.192	22291
849.328	22211
849.463	22169
849.598	22109
849.734	22032
849.869	22025
850.004	21956
850.14	22044
850.275	21956
850.41	21888
850.545	21964
850.68	21838
850.815	21968
850.95	22055
851.085	22139
851.22	22055
851.355	22074
851.49	21930
851.625	21884
851.76	21991
851.895	21888
852.03	21884
852.165	21930
852.299	21972
852.434	22143
852.569	22093
852.703	21915
852.838	21983
852.973	22051
853.107	22044
853.242	21907
853.376	21785
853.511	21656
853.645	21755
853.78	21854
853.914	21759
854.048	21709
854.183	21892
854.317	21873
854.451	22070
854.585	21698
854.72	21831
854.854	21884
854.988	21831
855.122	21793
855.256	21660
855.39	21667
855.524	21865
855.658	21789
855.792	21762
855.926	21857
856.06	21789
856.194	21736
856.327	21751
856.461	21614
856.595	21686
856.729	21652
856.862	21930
856.996	21827
857.13	21747
857.263	21876
857.397	21797
857.53	21781
857.664	21808
857.797	21800
857.931	21880
858.064	21724
858.197	21781
858.331	21652
858.464	21663
858.597	21618
858.731	21717
858.864	21770
858.997	21846
859.13	21880
859.263	21743
859.396	21854
859.529	21755
859.662	21656
859.795	21625
859.928	21819
860.061	21907
860.194	21941
860.327	21861
860.46	21842
860.592	21857
860.725	22006
860.858	21964
860.99	21823
861.123	21603
861.256	21648
861.388	21812
861.521	22611
861.653	21679
861.786	21587
861.918	21622
862.05	21591
862.183	21625
862.315	21793
862.447	21808
862.58	21576
862.712	21458
862.844	21511
862.976	21488
863.108	21519
863.24	21838
863.372	21386
863.504	21488
863.636	21416
863.768	21466
863.9	21492
864.032	21397
864.164	21340
864.296	21447
864.428	21606
864.559	21511
864.691	21561
864.823	21538
864.954	21458
865.086	21583
865.217	21424
865.349	21378
865.48	21397
865.612	21447
865.743	21458
865.875	21348
866.006	21370
866.137	21485
866.269	21420
866.4	21363
866.531	21298
866.662	21150
866.793	21283
866.924	21443
867.055	21287
867.186	21249
867.317	21252
867.448	21165
867.579	21283
867.71	21192
867.841	21116
867.972	21310
868.103	21142
868.233	21298
868.364	21332
868.495	21428
868.625	21523
868.756	21682
868.886	21454
869.017	21553
869.147	21701
869.278	21591
869.408	21549
869.539	21610
869.669	21663
869.799	21561
869.929	21629
870.06	21599
870.19	21785
870.32	21895
870.45	21888
870.58	21895
870.71	22029
870.84	21915
870.97	21941
871.1	21987
871.23	22169
871.36	22173
871.489	21972
871.619	22131
871.749	22158
871.879	22234
872.008	22242
872.138	22158
872.267	22036
872.397	22086
872.526	21998
872.656	21953
872.785	21861
872.915	22226
873.044	22230
873.173	22188
873.303	22306
873.432	22192
873.561	22314
873.69	22086
873.819	22101
873.948	22242
874.077	22169
874.206	22139
874.335	22192
874.464	22173
874.593	22367
874.722	22402
874.851	22363
874.979	22371
875.108	22478
875.237	22375
875.365	22162
875.494	22322
875.623	22333
875.751	22257
875.88	22215
876.008	22417
876.136	22611
876.265	22725
876.393	22866
876.521	22828
876.65	22774
876.778	22858
876.906	22618
877.034	22694
877.162	22729
877.29	22691
877.418	22721
877.546	22725
877.674	22740
877.802	22744
877.93	22752
878.058	22645
878.185	22565
878.313	22694
878.441	22687
878.568	22561
878.696	22626
878.824	22618
878.951	22755
879.079	22816
879.206	23041
879.333	22866
879.461	22774
879.588	22801
879.715	22793
879.842	22949
879.97	22679
880.097	22523
880.224	22493
880.351	22603
880.478	22489
880.605	22500
880.732	22451
880.859	22767
880.986	22443
881.112	22485
881.239	22360
881.366	22185
881.493	22215
881.619	22032
881.746	22147
881.872	22105
881.999	22105
882.125	21945
882.252	22067
882.378	22051
882.505	22128
882.631	21994
882.757	21861
882.883	21804
883.01	21797
883.136	21751
883.262	21618
883.388	21641
883.514	21854
883.64	21812
883.766	21766
883.892	21591
884.018	21610
884.143	21785
884.269	21705
884.395	21507
884.52	21382
884.646	21641
884.772	21332
884.897	21294
885.023	21481
885.148	21530
885.274	21545
885.399	21447
885.524	21370
885.65	21439
885.775	21340
885.9	21313
886.025	21431
886.15	21447
886.275	21454
886.4	21325
886.525	21439
886.65	21317
886.775	21275
886.9	21500
887.025	21675
887.149	21447
887.274	21344
887.399	21241
887.523	21039
887.648	21036
887.773	21017
887.897	21230
888.021	21302
888.146	21138
888.27	21275
888.395	21325
888.519	21127
888.643	21146
888.767	21180
888.891	21108
889.015	20994
889.139	21032
889.263	20960
889.387	21180
889.511	21180
889.635	21116
889.759	20967
889.883	20933
890.006	20979
890.13	20967
890.254	20849
890.377	20830
890.501	20815
890.624	20769
890.748	20769
890.871	20606
890.995	20537
891.118	20541
891.241	20625
891.364	20560
891.488	20636
891.611	20590
891.734	20469
891.857	20617
891.98	20640
892.103	20621
892.226	20530
892.349	20438
892.471	20320
892.594	20419
892.717	20541
892.839	20476
892.962	20492
893.085	20450
893.207	20450
893.33	20298
893.452	20412
893.575	20560
893.697	20347
893.819	20659
893.941	20613
894.064	20579
894.186	20305
894.308	20454
894.43	20480
894.552	20621
894.674	20484
894.796	20221
894.918	20495
895.04	20347
895.161	20537
895.283	20568
895.405	20381
895.526	20366
895.648	20412
895.769	20309
895.891	20533
896.012	20461
896.134	20492
896.255	20492
896.376	20442
896.498	20320
896.619	20473
896.74	20434
896.861	20419
896.982	20804
897.103	20853
897.224	20617
897.345	20682
897.466	20469
897.587	20678
897.708	20754
897.828	20670
897.949	20602
898.07	20339
898.19	20579
898.311	20682
898.431	20450
898.552	20648
898.672	20716
898.792	20754
898.913	20731
899.033	20575
899.153	20461
899.273	20187
899.393	20275
899.513	20476
899.633	20377
899.753	20396
899.873	20381
899.993	20457
900.113	20278
900.232	20385
900.352	20305
900.472	20176
900.591	20142
900.711	20309
900.83	20244
900.95	20138
901.069	20115
901.189	20062
901.308	19917
901.427	19696
901.546	19807
901.665	19811
901.784	19696
901.904	19548
902.023	19381
902.141	19396
902.26	19282
902.379	19350
902.498	19183
902.617	19282
902.735	19282
902.854	19103
902.973	19217
903.091	19004
903.21	18890
903.328	18901
903.446	18916
903.565	18642
903.683	18711
903.801	18563
903.919	18707
904.038	18661
904.156	18471
904.274	18551
904.392	18559
904.51	18376
904.627	18437
904.745	18570
904.863	18448
904.981	18190
905.098	18239
905.216	18140
905.334	18174
905.451	18178
905.569	17992
905.686	18155
905.803	18262
905.921	17969
906.038	18091
906.155	17901
906.272	17828
906.389	17824
906.506	17710
906.623	17707
906.74	17718
906.857	17505
906.974	17570
907.091	17817
907.208	17752
907.324	17699
907.441	17608
907.557	17356
907.674	17410
907.79	17292
907.907	17307
908.023	17356
908.139	17387
908.256	17334
908.372	17258
908.488	17254
908.604	17083
908.72	17041
908.836	17102
908.952	17159
909.068	17147
909.184	17208
909.3	17029
909.415	17098
909.531	16995
909.647	16866
909.762	16721
909.878	16702
909.993	16881
910.108	16771
910.224	16831
910.339	16919
910.454	16763
910.57	16706
910.685	16634
910.8	16839
910.915	16820
911.03	16622
911.145	16428
911.259	16367
911.374	16314
911.489	16314
911.604	16352
911.718	16211
911.833	16169
911.947	15972
912.062	15964
912.176	16177
912.291	16086
912.405	16166
912.519	16280
912.633	16352
912.748	16230
912.862	16162
912.976	16006
913.09	15892
913.204	15895
913.318	15987
913.431	16036
913.545	16029
913.659	16032
913.772	15876
913.886	15800
914	15724
914.113	15895
914.226	15854
914.34	15876
914.453	15705
914.566	15823
914.68	15679
914.793	15671
914.906	15420
915.019	15401
915.132	15249
915.245	15230
915.358	15348
915.47	15488
915.583	15351
915.696	15458
915.809	15435
915.921	15447
916.034	15306
916.146	15287
916.259	15283
916.371	15260
916.483	15275
916.595	15188
916.708	15112
916.82	15123
916.932	15233
917.044	15077
917.156	15150
917.268	15062
917.38	15001
917.491	14864
917.603	15039
917.715	15028
917.826	15116
917.938	14952
918.049	14769
918.161	14929
918.272	15055
918.384	15119
918.495	14937
918.606	14785
918.717	14731
918.828	14838
918.939	14796
919.05	14644
919.161	14678
919.272	14568
919.383	14587
919.494	14845
919.604	14868
919.715	14785
919.826	14632
919.936	14632
920.047	14880
920.157	14693
920.267	14838
920.378	14731
920.488	14571
920.598	14845
920.708	14967
920.818	14910
920.928	14857
921.038	15028
921.148	14960
921.258	14682
921.368	14560
921.477	14454
921.587	14404
921.697	14313
921.806	14461
921.916	14259
922.025	14210
922.134	14126
922.244	14081
922.353	14069
922.462	14016
922.571	13864
922.68	13784
922.789	13738
922.898	13708
923.007	13647
923.116	13700
923.224	13647
923.333	13693
923.442	13594
923.55	13552
923.659	13636
923.767	13582
923.876	13533
923.984	13533
924.092	13335
924.201	13537
924.309	13460
924.417	13384
924.525	13316
924.633	13438
924.741	14134
924.849	13263
924.956	13346
925.064	13327
925.172	13221
925.279	13015
925.387	13213
925.494	13080
925.602	13160
925.709	13194
925.816	12981
925.924	13072
926.031	13236
926.138	13076
926.245	13091
926.352	12897
926.459	13088
926.566	13038
926.673	12973
926.779	12840
926.886	12856
926.993	12768
927.099	12749
927.206	12669
927.312	12578
927.419	12703
927.525	12650
927.631	12654
927.737	12574
927.843	12570
927.95	12365
928.056	12517
928.162	12509
928.267	12563
928.373	13164
928.479	12506
928.585	12323
928.69	12429
928.796	12604
928.901	12334
929.007	12311
929.112	12308
929.218	12353
929.323	12254
929.428	12213
929.533	12342
929.638	12152
929.743	12167
929.848	12289
929.953	12163
930.058	12057
930.163	11859
930.267	11973
930.372	12007
930.477	11870
930.581	12194
930.685	11935
930.79	11729
930.894	11786
930.998	11741
931.103	11882
931.207	11592
931.311	11516
931.415	11402
931.519	11246
931.623	11029
