Data from test_V78500241_281.txt Node
Date: Fri Mar 25 15:11:48 CST 2022
User: usil
Spectrometer: V785-0024
Trigger mode: 0
Integration Time (sec): 4.000000E-1
Scans to average: 1
Nonlinearity correction enabled: false
Boxcar width: 0
Storing dark spectrum: false
XAxis mode: Wavelengths
Number of Pixels in Spectrum: 1024
>>>>>Begin Spectral Data<<<<<
801.071	27823
801.214	27717
801.356	27523
801.499	27363
801.641	27420
801.783	27298
801.926	27359
802.068	27332
802.211	27317
802.353	27180
802.496	27017
802.638	27024
802.78	27032
802.923	26830
803.065	26830
803.208	26944
803.35	27017
803.492	27157
803.635	27093
803.777	26906
803.919	27081
804.061	27443
804.204	27123
804.346	27112
804.488	26914
804.63	27096
804.773	26880
804.915	27009
805.057	27169
805.199	27036
805.341	27127
805.483	27036
805.626	27184
805.768	27024
805.91	27302
806.052	27104
806.194	27043
806.336	27283
806.478	27283
806.62	26967
806.762	27291
806.904	27397
807.046	27766
807.188	27367
807.33	27439
807.472	27751
807.614	27587
807.756	27606
807.898	27439
808.04	27294
808.182	27401
808.324	27454
808.465	27393
808.607	27542
808.749	27622
808.891	27880
809.033	28029
809.174	27884
809.316	27762
809.458	27838
809.6	27827
809.741	27808
809.883	27800
810.025	28059
810.166	28055
810.308	28082
810.45	28025
810.591	27895
810.733	27781
810.875	27728
811.016	27564
811.158	27572
811.299	27899
811.441	27895
811.582	27747
811.724	27705
811.865	27652
812.007	27694
812.148	27660
812.29	27747
812.431	27873
812.573	28154
812.714	28002
812.855	28234
812.997	28432
813.138	28421
813.279	28413
813.421	28257
813.562	28215
813.703	28063
813.845	27907
813.986	27614
814.127	27466
814.268	27389
814.41	27405
814.551	27329
814.692	27526
814.833	27260
814.974	27237
815.115	27306
815.256	27165
815.397	27142
815.539	27180
815.68	27146
815.821	26921
815.962	27260
816.103	27226
816.244	26887
816.385	26902
816.526	26910
816.666	26651
816.807	26678
816.948	26663
817.089	26743
817.23	26556
817.371	26625
817.512	26427
817.653	26446
817.793	26549
817.934	26556
818.075	26682
818.216	26492
818.356	26545
818.497	26461
818.638	26244
818.778	26225
818.919	26244
819.06	26351
819.2	26453
819.341	26415
819.481	26503
819.622	26545
819.762	26815
819.903	26701
820.043	26705
820.184	26640
820.324	26568
820.465	26659
820.605	26541
820.746	26625
820.886	26427
821.026	26571
821.167	26503
821.307	26686
821.447	26526
821.588	26389
821.728	26183
821.868	26084
822.008	25989
822.149	25989
822.289	25902
822.429	25689
822.569	25548
822.709	25559
822.849	25491
822.99	25403
823.13	25400
823.27	25396
823.41	25266
823.55	25145
823.69	25324
823.83	25308
823.97	25179
824.11	25133
824.25	25099
824.389	25190
824.529	25129
824.669	25050
824.809	25209
824.949	25137
825.089	25095
825.228	25129
825.368	24943
825.508	24814
825.648	24837
825.787	25019
825.927	24935
826.067	24901
826.206	24970
826.346	24875
826.485	24970
826.625	24920
826.765	25012
826.904	24909
827.044	24753
827.183	24665
827.323	24574
827.462	24604
827.601	24597
827.741	24566
827.88	24661
828.02	24433
828.159	24563
828.298	24646
828.437	24631
828.577	24601
828.716	24665
828.855	24570
828.994	24277
829.134	24251
829.273	24327
829.412	24209
829.551	24300
829.69	24281
829.829	24509
829.968	24311
830.107	24426
830.246	24319
830.385	24133
830.524	24190
830.663	24117
830.802	24034
830.941	23901
831.08	23847
831.219	23923
831.357	23935
831.496	24038
831.635	23923
831.774	23779
831.913	23783
832.051	23798
832.19	23718
832.329	23767
832.467	23699
832.606	23520
832.744	23619
832.883	23543
833.022	23551
833.16	23528
833.299	23539
833.437	23687
833.576	23627
833.714	23623
833.852	23516
833.991	23570
834.129	23687
834.267	23649
834.406	23646
834.544	23665
834.682	23653
834.821	23630
834.959	23802
835.097	23524
835.235	23687
835.373	23551
835.511	23566
835.65	23486
835.788	23376
835.926	23459
836.064	23265
836.202	23197
836.34	23345
836.478	23471
836.615	23410
836.753	23448
836.891	23509
837.029	23414
837.167	23406
837.305	23334
837.443	23311
837.58	23345
837.718	23406
837.856	23185
837.993	23273
838.131	23345
838.269	23178
838.406	23178
838.544	23174
838.681	22896
838.819	22881
838.956	22786
839.094	22721
839.231	22733
839.369	22908
839.506	23105
839.643	22946
839.781	22729
839.918	22702
840.055	22778
840.193	22645
840.33	22603
840.467	22729
840.604	22664
840.742	22995
840.879	22538
841.016	22592
841.153	22455
841.29	22702
841.427	22702
841.564	22626
841.701	22634
841.838	22653
841.975	22519
842.112	22618
842.249	22436
842.385	22249
842.522	22599
842.659	22413
842.796	22356
842.933	22405
843.069	22310
843.206	22379
843.343	22344
843.479	22329
843.616	22303
843.752	22048
843.889	22124
844.025	22169
844.162	22124
844.298	22272
844.435	22177
844.571	22074
844.708	22185
844.844	22280
844.98	22303
845.117	22192
845.253	22029
845.389	22059
845.525	22063
845.661	21975
845.798	21941
845.934	21937
846.07	21808
846.206	21861
846.342	22044
846.478	21903
846.614	21682
846.75	21530
846.886	21561
847.022	21641
847.158	21629
847.294	21572
847.429	21614
847.565	21629
847.701	21816
847.837	21355
847.972	21230
848.108	21488
848.244	21367
848.379	21218
848.515	21135
848.65	21249
848.786	21268
848.921	21070
849.057	21291
849.192	21237
849.328	21260
849.463	21214
849.598	21207
849.734	20948
849.869	21024
850.004	20941
850.14	20960
850.275	20842
850.41	20899
850.545	20941
850.68	20960
850.815	20986
850.95	20990
851.085	21154
851.22	21051
851.355	21024
851.49	21005
851.625	20895
851.76	20956
851.895	20861
852.03	20956
852.165	20842
852.299	20918
852.434	20986
852.569	21017
852.703	20883
852.838	20963
852.973	21142
853.107	20937
853.242	20906
853.376	20769
853.511	20526
853.645	20568
853.78	20792
853.914	20746
854.048	20686
854.183	20701
854.317	20693
854.451	20834
854.585	20739
854.72	20708
854.854	20807
854.988	20686
855.122	20716
855.256	20708
855.39	20727
855.524	20716
855.658	20823
855.792	20788
855.926	20708
856.06	20777
856.194	20773
856.327	20781
856.461	20629
856.595	20708
856.729	20880
856.862	20887
856.996	20834
857.13	20857
857.263	20792
857.397	20739
857.53	20678
857.664	20781
857.797	20754
857.931	20933
858.064	20705
858.197	20838
858.331	20773
858.464	20693
858.597	20621
858.731	20663
858.864	20625
858.997	20632
859.13	20746
859.263	20785
859.396	20788
859.529	20697
859.662	20648
859.795	20640
859.928	20746
860.061	20849
860.194	20838
860.327	20667
860.46	20659
860.592	20906
860.725	20864
860.858	20826
860.99	20750
861.123	20579
861.256	20689
861.388	20781
861.521	21325
861.653	20499
861.786	20469
861.918	20716
862.05	20708
862.183	20697
862.315	20579
862.447	20811
862.58	20800
862.712	20404
862.844	20351
862.976	20511
863.108	20427
863.24	20857
863.372	20351
863.504	20511
863.636	20446
863.768	20473
863.9	20434
864.032	20298
864.164	20347
864.296	20457
864.428	20408
864.559	20552
864.691	20537
864.823	20427
864.954	20434
865.086	20438
865.217	20412
865.349	20149
865.48	20358
865.612	20320
865.743	20461
865.875	20339
866.006	20355
866.137	20317
866.269	20313
866.4	20240
866.531	20187
866.662	20138
866.793	20183
866.924	20153
867.055	20336
867.186	20164
867.317	20309
867.448	20187
867.579	20183
867.71	20252
867.841	20138
867.972	20290
868.103	20244
868.233	20347
868.364	20225
868.495	20298
868.625	20469
868.756	20530
868.886	20415
869.017	20511
869.147	20533
869.278	20556
869.408	20476
869.539	20476
869.669	20533
869.799	20488
869.929	20541
870.06	20568
870.19	20906
870.32	20785
870.45	20876
870.58	20918
870.71	21112
870.84	20937
870.97	20895
871.1	20838
871.23	21028
871.36	20960
871.489	21017
871.619	21081
871.749	21104
871.879	21051
872.008	21268
872.138	21256
872.267	21180
872.397	20952
872.526	20906
872.656	21032
872.785	20845
872.915	21176
873.044	21211
873.173	21127
873.303	21203
873.432	21138
873.561	21264
873.69	21154
873.819	21104
873.948	21161
874.077	21058
874.206	21161
874.335	21180
874.464	21180
874.593	21447
874.722	21359
874.851	21447
874.979	21329
875.108	21336
875.237	21283
875.365	21279
875.494	21332
875.623	21450
875.751	21275
875.88	21325
876.008	21488
876.136	21504
876.265	21755
876.393	21755
876.521	21854
876.65	21819
876.778	21797
876.906	21614
877.034	21667
877.162	21732
877.29	21701
877.418	21766
877.546	21819
877.674	21690
877.802	21656
877.93	21622
878.058	21591
878.185	21572
878.313	21682
878.441	21751
878.568	21603
878.696	21549
878.824	21641
878.951	21835
879.079	21876
879.206	22051
879.333	21850
879.461	21778
879.588	21774
879.715	21823
879.842	22063
879.97	21713
880.097	21485
880.224	21553
880.351	21583
880.478	21599
880.605	21523
880.732	21511
880.859	21808
880.986	21519
881.112	21618
881.239	21389
881.366	21336
881.493	21264
881.619	21165
881.746	21203
881.872	21203
881.999	21051
882.125	21116
882.252	21264
882.378	20975
882.505	21203
882.631	20979
882.757	20746
882.883	21020
883.01	20963
883.136	20716
883.262	20705
883.388	20621
883.514	20883
883.64	20895
883.766	20781
883.892	20545
884.018	20670
884.143	20773
884.269	20880
884.395	20693
884.52	20552
884.646	20488
884.772	20332
884.897	20355
885.023	20537
885.148	20625
885.274	20609
885.399	20579
885.524	20530
885.65	20473
885.775	20495
885.9	20473
886.025	20625
886.15	20492
886.275	20408
886.4	20343
886.525	20446
886.65	20377
886.775	20393
886.9	20415
887.025	20556
887.149	20434
887.274	20328
887.399	20317
887.523	20229
887.648	20130
887.773	20256
887.897	20259
888.021	20210
888.146	20256
888.27	20233
888.395	20336
888.519	20313
888.643	20290
888.767	20271
888.891	20149
889.015	20119
889.139	20077
889.263	20031
889.387	20122
889.511	20126
889.635	20180
889.759	19982
889.883	20100
890.006	20050
890.13	20122
890.254	19921
890.377	19986
890.501	19719
890.624	19803
890.748	19826
890.871	19544
890.995	19506
891.118	19582
891.241	19529
891.364	19677
891.488	19746
891.611	19563
891.734	19662
891.857	19658
891.98	19647
892.103	19586
892.226	19601
892.349	19548
892.471	19415
892.594	19548
892.717	19472
892.839	19563
892.962	19529
893.085	19575
893.207	19510
893.33	19411
893.452	19445
893.575	19643
893.697	19556
893.819	19685
893.941	19807
894.064	19613
894.186	19480
894.308	19407
894.43	19563
894.552	19712
894.674	19681
894.796	19491
894.918	19537
895.04	19518
895.161	19597
895.283	19559
895.405	19411
895.526	19616
895.648	19415
895.769	19578
895.891	19582
896.012	19616
896.134	19552
896.255	19518
896.376	19635
896.498	19590
896.619	19575
896.74	19597
896.861	19575
896.982	20012
897.103	20126
897.224	19837
897.345	19864
897.466	19632
897.587	19776
897.708	19883
897.828	19864
897.949	19780
898.07	19586
898.19	19670
898.311	19909
898.431	19677
898.552	19750
898.672	19841
898.792	19879
898.913	19727
899.033	19628
899.153	19510
899.273	19400
899.393	19563
899.513	19445
899.633	19567
899.753	19609
899.873	19529
899.993	19388
900.113	19346
900.232	19495
900.352	19480
900.472	19392
900.591	19194
900.711	19324
900.83	19263
900.95	19441
901.069	19388
901.189	19240
901.308	18928
901.427	18806
901.546	18882
901.665	18939
901.784	19034
901.904	18791
902.023	18703
902.141	18506
902.26	18460
902.379	18544
902.498	18464
902.617	18395
902.735	18441
902.854	18330
902.973	18311
903.091	18121
903.21	18064
903.328	18095
903.446	18045
903.565	17961
903.683	17923
903.801	17836
903.919	17859
904.038	17836
904.156	17589
904.274	17764
904.392	17646
904.51	17642
904.627	17733
904.745	17570
904.863	17604
904.981	17490
905.098	17368
905.216	17349
905.334	17425
905.451	17383
905.569	17299
905.686	17258
905.803	17292
905.921	17117
906.038	17200
906.155	17178
906.272	17014
906.389	17045
906.506	16904
906.623	16866
906.74	16930
906.857	16748
906.974	16793
907.091	16904
907.208	16968
907.324	16889
907.441	16698
907.557	16561
907.674	16656
907.79	16519
907.907	16500
908.023	16584
908.139	16542
908.256	16485
908.372	16386
908.488	16558
908.604	16314
908.72	16109
908.836	16295
908.952	16268
909.068	16303
909.184	16489
909.3	16272
909.415	16272
909.531	16291
909.647	16063
909.762	15934
909.878	15907
909.993	16013
910.108	15987
910.224	16006
910.339	16036
910.454	15804
910.57	15880
910.685	15812
910.8	15991
910.915	15873
911.03	15762
911.145	15701
911.259	15614
911.374	15606
911.489	15500
911.604	15397
911.718	15302
911.833	15306
911.947	15245
912.062	15218
912.176	15310
912.291	15355
912.405	15237
912.519	15496
912.633	15492
912.748	15302
912.862	15332
912.976	15230
913.09	14990
913.204	14998
913.318	15176
913.431	15275
913.545	15218
913.659	15161
913.772	15100
913.886	14986
914	14933
914.113	14998
914.226	15077
914.34	15055
914.453	14864
914.566	15013
914.68	14921
914.793	14876
914.906	14746
915.019	14575
915.132	14625
915.245	14651
915.358	14682
915.47	14522
915.583	14602
915.696	14659
915.809	14746
915.921	14640
916.034	14480
916.146	14450
916.259	14431
916.371	14533
916.483	14442
916.595	14450
916.708	14522
916.82	14484
916.932	14434
917.044	14305
917.156	14294
917.268	14202
917.38	14286
917.491	14240
917.603	14351
917.715	14294
917.826	14317
917.938	14176
918.049	14100
918.161	14244
918.272	14362
918.384	14309
918.495	14259
918.606	14073
918.717	13970
918.828	14043
918.939	14062
919.05	13925
919.161	14081
919.272	13807
919.383	13814
919.494	13993
919.604	14168
919.715	13993
919.826	13967
919.936	13982
920.047	14077
920.157	14043
920.267	14145
920.378	14005
920.488	13959
920.598	14149
920.708	14252
920.818	14161
920.928	14153
921.038	14240
921.148	14111
921.258	13852
921.368	13826
921.477	13769
921.587	13715
921.697	13658
921.806	13708
921.916	13689
922.025	13544
922.134	13457
922.244	13381
922.353	13407
922.462	13217
922.571	13152
922.68	13027
922.789	12985
922.898	13072
923.007	12954
923.116	13000
923.224	13000
923.333	12909
923.442	12981
923.55	12852
923.659	12954
923.767	12905
923.876	12791
923.984	12840
924.092	12768
924.201	12867
924.309	12806
924.417	12764
924.525	12707
924.633	12848
924.741	13362
924.849	12498
924.956	12589
925.064	12513
925.172	12502
925.279	12414
925.387	12479
925.494	12517
925.602	12616
925.709	12498
925.816	12456
925.924	12426
926.031	12570
926.138	12445
926.245	12563
926.352	12243
926.459	12494
926.566	12509
926.673	12292
926.779	12194
926.886	12289
926.993	12224
927.099	12030
927.206	11980
927.312	11984
927.419	12102
927.525	12026
927.631	12095
927.737	11901
927.843	11916
927.95	11771
928.056	11889
928.162	11878
928.267	11942
928.373	12422
928.479	11916
928.585	11775
928.69	11817
928.796	11859
928.901	11760
929.007	11634
929.112	11653
929.218	11726
929.323	11649
929.428	11646
929.533	11726
929.638	11493
929.743	11573
929.848	11653
929.953	11585
930.058	11414
930.163	11334
930.267	11277
930.372	11524
930.477	11356
930.581	11520
930.685	11395
930.79	11193
930.894	11223
930.998	11258
931.103	11292
931.207	10862
931.311	10873
931.415	10752
931.519	10569
931.623	10535
