Data from test_V78500241_734.txt Node
Date: Fri Mar 25 15:14:58 CST 2022
User: usil
Spectrometer: V785-0024
Trigger mode: 0
Integration Time (sec): 4.000000E-1
Scans to average: 1
Nonlinearity correction enabled: false
Boxcar width: 0
Storing dark spectrum: false
XAxis mode: Wavelengths
Number of Pixels in Spectrum: 1024
>>>>>Begin Spectral Data<<<<<
801.071	27690
801.214	27793
801.356	27629
801.499	27405
801.641	27386
801.783	27306
801.926	27329
802.068	27260
802.211	27207
802.353	27150
802.496	27013
802.638	27074
802.78	26971
802.923	26956
803.065	26883
803.208	26982
803.35	26967
803.492	27108
803.635	27184
803.777	27142
803.919	27047
804.061	27473
804.204	27188
804.346	27180
804.488	27203
804.63	27123
804.773	27001
804.915	27173
805.057	27169
805.199	27176
805.341	27218
805.483	27306
805.626	27348
805.768	27169
805.91	27203
806.052	27279
806.194	27214
806.336	27511
806.478	27344
806.62	27355
806.762	27401
806.904	27466
807.046	27770
807.188	27564
807.33	27679
807.472	27614
807.614	27618
807.756	27618
807.898	27530
808.04	27545
808.182	27641
808.324	27625
808.465	27606
808.607	27770
808.749	27884
808.891	27956
809.033	28116
809.174	27895
809.316	27937
809.458	28021
809.6	27895
809.741	28086
809.883	28318
810.025	28219
810.166	28192
810.308	28154
810.45	28204
810.591	28120
810.733	27934
810.875	27926
811.016	27846
811.158	27785
811.299	27876
811.441	28139
811.582	28070
811.724	27808
811.865	27743
812.007	27793
812.148	27945
812.29	27876
812.431	28116
812.573	28226
812.714	28135
812.855	28394
812.997	28561
813.138	28759
813.279	28755
813.421	28470
813.562	28344
813.703	28265
813.845	28238
813.986	27903
814.127	27599
814.268	27595
814.41	27614
814.551	27629
814.692	27751
814.833	27606
814.974	27633
815.115	27637
815.256	27538
815.397	27500
815.539	27614
815.68	27492
815.821	27427
815.962	27397
816.103	27481
816.244	27386
816.385	27249
816.526	27214
816.666	26933
816.807	26853
816.948	26963
817.089	27055
817.23	27051
817.371	26883
817.512	26796
817.653	26739
817.793	26792
817.934	26967
818.075	26750
818.216	26910
818.356	26872
818.497	26792
818.638	26655
818.778	26651
818.919	26590
819.06	26625
819.2	26826
819.341	26876
819.481	26876
819.622	27013
819.762	27180
819.903	27169
820.043	27096
820.184	27119
820.324	27062
820.465	27150
820.605	27039
820.746	26899
820.886	26899
821.026	26956
821.167	26933
821.307	26944
821.447	26967
821.588	26853
821.728	26651
821.868	26480
822.008	26366
822.149	26324
822.289	26389
822.429	26069
822.569	26092
822.709	25894
822.849	25814
822.99	25871
823.13	25830
823.27	25738
823.41	25689
823.55	25616
823.69	25708
823.83	25693
823.97	25723
824.11	25460
824.25	25460
824.389	25411
824.529	25605
824.669	25537
824.809	25689
824.949	25693
825.089	25662
825.228	25506
825.368	25434
825.508	25278
825.648	25377
825.787	25362
825.927	25487
826.067	25415
826.206	25381
826.346	25343
826.485	25335
826.625	25491
826.765	25552
826.904	25365
827.044	25076
827.183	25107
827.323	25076
827.462	25148
827.601	25255
827.741	24943
827.88	25088
828.02	25008
828.159	25012
828.298	25046
828.437	25187
828.577	25000
828.716	25103
828.855	25015
828.994	24890
829.134	24909
829.273	24817
829.412	24734
829.551	24612
829.69	24768
829.829	24821
829.968	24871
830.107	24852
830.246	24783
830.385	24745
830.524	24536
830.663	24578
830.802	24570
830.941	24441
831.08	24365
831.219	24422
831.357	24319
831.496	24589
831.635	24315
831.774	24319
831.913	24163
832.051	24182
832.19	24110
832.329	24342
832.467	24045
832.606	24136
832.744	23988
832.883	24049
833.022	24045
833.16	24003
833.299	24197
833.437	24163
833.576	24190
833.714	24095
833.852	24247
833.991	24152
834.129	24239
834.267	24194
834.406	24182
834.544	24186
834.682	24174
834.821	24155
834.959	24323
835.097	23935
835.235	24129
835.373	24060
835.511	24083
835.65	23847
835.788	23973
835.926	23847
836.064	23779
836.202	23745
836.34	24011
836.478	24011
836.615	23904
836.753	23904
836.891	24114
837.029	24034
837.167	23901
837.305	23923
837.443	23904
837.58	23836
837.718	23821
837.856	23824
837.993	23691
838.131	23722
838.269	23570
838.406	23771
838.544	23509
838.681	23436
838.819	23436
838.956	23258
839.094	23254
839.231	23334
839.369	23383
839.506	23539
839.643	23520
839.781	23220
839.918	23155
840.055	23181
840.193	23261
840.33	23132
840.467	23193
840.604	23132
840.742	23444
840.879	22957
841.016	23067
841.153	23025
841.29	23254
841.427	23216
841.564	23159
841.701	23296
841.838	23044
841.975	22995
842.112	23223
842.249	23048
842.385	22885
842.522	23166
842.659	22949
842.796	22824
842.933	22816
843.069	22839
843.206	22942
843.343	22843
843.479	22900
843.616	22923
843.752	22812
843.889	22774
844.025	22801
844.162	22717
844.298	22774
844.435	22721
844.571	22584
844.708	22850
844.844	22889
844.98	22797
845.117	22778
845.253	22592
845.389	22577
845.525	22710
845.661	22504
845.798	22375
845.934	22599
846.07	22344
846.206	22348
846.342	22489
846.478	22325
846.614	22226
846.75	22116
846.886	22215
847.022	22280
847.158	22078
847.294	22048
847.429	22268
847.565	22169
847.701	22421
847.837	21880
847.972	21907
848.108	22101
848.244	21895
848.379	21770
848.515	21873
848.65	21652
848.786	21705
848.921	21747
849.057	21911
849.192	21728
849.328	21720
849.463	21793
849.598	21641
849.734	21652
849.869	21523
850.004	21462
850.14	21564
850.275	21564
850.41	21572
850.545	21466
850.68	21488
850.815	21473
850.95	21466
851.085	21755
851.22	21690
851.355	21599
851.49	21538
851.625	21469
851.76	21473
851.895	21469
852.03	21401
852.165	21595
852.299	21568
852.434	21713
852.569	21511
852.703	21660
852.838	21606
852.973	21694
853.107	21682
853.242	21405
853.376	21351
853.511	21252
853.645	21325
853.78	21504
853.914	21405
854.048	21173
854.183	21264
854.317	21359
854.451	21637
854.585	21370
854.72	21325
854.854	21336
854.988	21260
855.122	21389
855.256	21135
855.39	21340
855.524	21359
855.658	21389
855.792	21412
855.926	21294
856.06	21367
856.194	21424
856.327	21325
856.461	21370
856.595	21378
856.729	21355
856.862	21507
856.996	21359
857.13	21382
857.263	21344
857.397	21462
857.53	21332
857.664	21355
857.797	21313
857.931	21504
858.064	21348
858.197	21363
858.331	21374
858.464	21245
858.597	21203
858.731	21370
858.864	21157
858.997	21401
859.13	21207
859.263	21370
859.396	21424
859.529	21233
859.662	21268
859.795	21211
859.928	21313
860.061	21492
860.194	21477
860.327	21363
860.46	21241
860.592	21416
860.725	21625
860.858	21492
860.99	21329
861.123	21294
861.256	21367
861.388	21359
861.521	22173
861.653	21313
861.786	21264
861.918	21188
862.05	21211
862.183	21340
862.315	21173
862.447	21389
862.58	21325
862.712	21146
862.844	20963
862.976	21176
863.108	21119
863.24	21462
863.372	21039
863.504	21039
863.636	21047
863.768	21138
863.9	20994
864.032	20906
864.164	20921
864.296	21020
864.428	21074
864.559	21089
864.691	21062
864.823	21089
864.954	20956
865.086	21089
865.217	20975
865.349	20864
865.48	20830
865.612	20902
865.743	21039
865.875	20979
866.006	20868
866.137	20975
866.269	20891
866.4	20902
866.531	20880
866.662	20895
866.793	20929
866.924	20823
867.055	20891
867.186	20929
867.317	20857
867.448	20739
867.579	20857
867.71	20804
867.841	20720
867.972	20796
868.103	20876
868.233	20944
868.364	20845
868.495	20933
868.625	21211
868.756	21131
868.886	21028
869.017	21161
869.147	21203
869.278	21188
869.408	21142
869.539	21142
869.669	21233
869.799	20994
869.929	21294
870.06	21211
870.19	21450
870.32	21431
870.45	21454
870.58	21496
870.71	21530
870.84	21583
870.97	21462
871.1	21526
871.23	21705
871.36	21709
871.489	21637
871.619	21603
871.749	21660
871.879	21724
872.008	21720
872.138	21789
872.267	21694
872.397	21606
872.526	21485
872.656	21610
872.785	21713
872.915	21774
873.044	21804
873.173	21618
873.303	21770
873.432	21778
873.561	21816
873.69	21705
873.819	21682
873.948	21835
874.077	21679
874.206	21724
874.335	21690
874.464	21808
874.593	21857
874.722	21979
874.851	21987
874.979	22055
875.108	22040
875.237	22010
875.365	21766
875.494	21831
875.623	21915
875.751	21930
875.88	22021
876.008	22181
876.136	22173
876.265	22443
876.393	22481
876.521	22398
876.65	22371
876.778	22417
876.906	22261
877.034	22367
877.162	22436
877.29	22363
877.418	22352
877.546	22363
877.674	22272
877.802	22306
877.93	22318
878.058	22261
878.185	22139
878.313	22276
878.441	22341
878.568	22044
878.696	22268
878.824	22386
878.951	22386
879.079	22462
879.206	22546
879.333	22405
879.461	22306
879.588	22443
879.715	22424
879.842	22508
879.97	22348
880.097	22059
880.224	22051
880.351	22048
880.478	22135
880.605	22105
880.732	22048
880.859	22344
880.986	22139
881.112	22169
881.239	22040
881.366	21770
881.493	21861
881.619	21694
881.746	21671
881.872	21728
881.999	21633
882.125	21736
882.252	21698
882.378	21648
882.505	21755
882.631	21557
882.757	21363
882.883	21469
883.01	21435
883.136	21401
883.262	21389
883.388	21199
883.514	21393
883.64	21355
883.766	21340
883.892	21233
884.018	21283
884.143	21408
884.269	21401
884.395	21127
884.52	21009
884.646	20998
884.772	20960
884.897	20986
885.023	20982
885.148	21161
885.274	21218
885.399	21154
885.524	21013
885.65	21024
885.775	20982
885.9	21028
886.025	21108
886.15	20937
886.275	20979
886.4	20937
886.525	20902
886.65	20929
886.775	21058
886.9	21203
887.025	21226
887.149	20994
887.274	20811
887.399	20864
887.523	20762
887.648	20796
887.773	20667
887.897	20842
888.021	20807
888.146	20727
888.27	20750
888.395	20815
888.519	20781
888.643	20758
888.767	20872
888.891	20781
889.015	20655
889.139	20613
889.263	20625
889.387	20777
889.511	20781
889.635	20765
889.759	20705
889.883	20632
890.006	20621
890.13	20632
890.254	20492
890.377	20552
890.501	20286
890.624	20282
890.748	20370
890.871	20225
890.995	20252
891.118	20077
891.241	20172
891.364	20176
891.488	20355
891.611	20157
891.734	20183
891.857	20225
891.98	20168
892.103	20221
892.226	20176
892.349	20180
892.471	20062
892.594	20046
892.717	20016
892.839	20008
892.962	19978
893.085	20145
893.207	20077
893.33	20202
893.452	19894
893.575	20183
893.697	20062
893.819	20172
893.941	20214
894.064	20138
894.186	19993
894.308	20058
894.43	20153
894.552	20149
894.674	20176
894.796	20035
894.918	20012
895.04	19928
895.161	20122
895.283	20065
895.405	20111
895.526	20073
895.648	20050
895.769	20046
895.891	20271
896.012	20130
896.134	20176
896.255	20088
896.376	20024
896.498	20084
896.619	20126
896.74	20084
896.861	20100
896.982	20393
897.103	20533
897.224	20320
897.345	20385
897.466	20210
897.587	20317
897.708	20343
897.828	20237
897.949	20271
898.07	20134
898.19	20218
898.311	20385
898.431	20218
898.552	20256
898.672	20218
898.792	20366
898.913	20290
899.033	20298
899.153	20020
899.273	20008
899.393	20081
899.513	20069
899.633	20157
899.753	20100
899.873	20012
899.993	19982
900.113	19967
900.232	19978
900.352	19955
900.472	19890
900.591	19803
900.711	19830
900.83	19780
900.95	19970
901.069	19883
901.189	19868
901.308	19521
901.427	19419
901.546	19464
901.665	19422
901.784	19510
901.904	19282
902.023	19118
902.141	19088
902.26	18852
902.379	19107
902.498	18916
902.617	18932
902.735	19065
902.854	18928
902.973	18932
903.091	18642
903.21	18585
903.328	18623
903.446	18388
903.565	18426
903.683	18357
903.801	18315
903.919	18380
904.038	18292
904.156	18243
904.274	18270
904.392	18174
904.51	18190
904.627	18106
904.745	18228
904.863	18239
904.981	17923
905.098	17817
905.216	17802
905.334	17901
905.451	17851
905.569	17843
905.686	17946
905.803	17813
905.921	17707
906.038	17775
906.155	17695
906.272	17505
906.389	17573
906.506	17410
906.623	17318
906.74	17429
906.857	17212
906.974	17231
907.091	17452
907.208	17414
907.324	17425
907.441	17296
907.557	17109
907.674	17060
907.79	16995
907.907	17014
908.023	17166
908.139	17075
908.256	17052
908.372	17022
908.488	16900
908.604	16908
908.72	16820
908.836	16847
908.952	16759
909.068	16831
909.184	16915
909.3	16816
909.415	16904
909.531	16759
909.647	16535
909.762	16558
909.878	16497
909.993	16478
910.108	16569
910.224	16493
910.339	16489
910.454	16375
910.57	16417
910.685	16230
910.8	16527
910.915	16474
911.03	16341
911.145	16101
911.259	16112
911.374	16086
911.489	16063
911.604	16036
911.718	15888
911.833	15911
911.947	15713
912.062	15690
912.176	15892
912.291	15781
912.405	15717
912.519	15975
912.633	16055
912.748	15880
912.862	15850
912.976	15717
913.09	15549
913.204	15637
913.318	15587
913.431	15789
913.545	15743
913.659	15705
913.772	15599
913.886	15580
914	15500
914.113	15507
914.226	15557
914.34	15534
914.453	15405
914.566	15462
914.68	15321
914.793	15340
914.906	15203
915.019	15100
915.132	15070
915.245	15157
915.358	15043
915.47	15051
915.583	15138
915.696	15192
915.809	15154
915.921	15245
916.034	15020
916.146	15074
916.259	14994
916.371	15032
916.483	15043
916.595	14899
916.708	14921
916.82	14941
916.932	14872
917.044	14876
917.156	14921
917.268	14769
917.38	14735
917.491	14781
917.603	14746
917.715	14800
917.826	14746
917.938	14739
918.049	14545
918.161	14648
918.272	14781
918.384	14746
918.495	14708
918.606	14457
918.717	14423
918.828	14579
918.939	14571
919.05	14423
919.161	14499
919.272	14263
919.383	14332
919.494	14526
919.604	14727
919.715	14511
919.826	14446
919.936	14427
920.047	14495
920.157	14454
920.267	14727
920.378	14514
920.488	14442
920.598	14644
920.708	14693
920.818	14598
920.928	14568
921.038	14743
921.148	14686
921.258	14431
921.368	14286
921.477	14263
921.587	14206
921.697	14054
921.806	14138
921.916	14054
922.025	13944
922.134	13856
922.244	13845
922.353	13757
922.462	13704
922.571	13666
922.68	13480
922.789	13609
922.898	13464
923.007	13339
923.116	13582
923.224	13434
923.333	13476
923.442	13411
923.55	13308
923.659	13346
923.767	13396
923.876	13293
923.984	13304
924.092	13156
924.201	13202
924.309	13312
924.417	13198
924.525	13126
924.633	13274
924.741	13830
924.849	12966
924.956	13095
925.064	12993
925.172	12886
925.279	12852
925.387	12913
925.494	12958
925.602	12985
925.709	12939
925.816	12848
925.924	12875
926.031	12947
926.138	12901
926.245	12928
926.352	12711
926.459	12920
926.566	12932
926.673	12757
926.779	12703
926.886	12589
926.993	12528
927.099	12433
927.206	12445
927.312	12513
927.419	12456
927.525	12494
927.631	12471
927.737	12361
927.843	12311
927.95	12194
928.056	12251
928.162	12304
928.267	12399
928.373	13080
928.479	12399
928.585	12186
928.69	12315
928.796	12365
928.901	12155
929.007	12003
929.112	12152
929.218	12098
929.323	12079
929.428	11980
929.533	12159
929.638	11942
929.743	11984
929.848	12015
929.953	12007
930.058	11889
930.163	11699
930.267	11661
930.372	11771
930.477	11718
930.581	11977
930.685	11764
930.79	11623
930.894	11619
930.998	11581
931.103	11718
931.207	11391
931.311	11349
931.415	11223
931.519	10991
931.623	11022
