Data from test_V78500241_1623.txt Node
Date: Fri Mar 25 15:21:09 CST 2022
User: usil
Spectrometer: V785-0024
Trigger mode: 0
Integration Time (sec): 4.000000E-1
Scans to average: 1
Nonlinearity correction enabled: false
Boxcar width: 0
Storing dark spectrum: false
XAxis mode: Wavelengths
Number of Pixels in Spectrum: 1024
>>>>>Begin Spectral Data<<<<<
801.071	27876
801.214	27766
801.356	27739
801.499	27519
801.641	27382
801.783	27477
801.926	27591
802.068	27435
802.211	27363
802.353	27241
802.496	27131
802.638	27173
802.78	27150
802.923	27074
803.065	26986
803.208	27093
803.35	27157
803.492	27268
803.635	27226
803.777	27165
803.919	27298
804.061	27599
804.204	27264
804.346	27233
804.488	27192
804.63	27405
804.773	27169
804.915	27260
805.057	27447
805.199	27386
805.341	27458
805.483	27564
805.626	27431
805.768	27363
805.91	27500
806.052	27313
806.194	27260
806.336	27534
806.478	27606
806.62	27351
806.762	27622
806.904	27580
807.046	27922
807.188	27914
807.33	27865
807.472	27835
807.614	27739
807.756	27884
807.898	27686
808.04	27663
808.182	27663
808.324	27648
808.465	27751
808.607	28051
808.749	28017
808.891	28040
809.033	28196
809.174	28101
809.316	27983
809.458	28025
809.6	28067
809.741	28303
809.883	28268
810.025	28363
810.166	28314
810.308	28257
810.45	28325
810.591	28325
810.733	28021
810.875	28093
811.016	28040
811.158	27991
811.299	28173
811.441	28287
811.582	28090
811.724	28090
811.865	28051
812.007	28017
812.148	27979
812.29	28154
812.431	28204
812.573	28401
812.714	28516
812.855	28500
812.997	28668
813.138	28862
813.279	28660
813.421	28580
813.562	28531
813.703	28405
813.845	28466
813.986	28169
814.127	27751
814.268	27774
814.41	27698
814.551	27755
814.692	27960
814.833	27675
814.974	27652
815.115	27857
815.256	27576
815.397	27690
815.539	27580
815.68	27614
815.821	27469
815.962	27568
816.103	27523
816.244	27329
816.385	27199
816.526	27332
816.666	27192
816.807	26990
816.948	27214
817.089	27138
817.23	27066
817.371	27062
817.512	27047
817.653	27070
817.793	26910
817.934	27058
818.075	27089
818.216	27028
818.356	27066
818.497	26937
818.638	26876
818.778	26902
818.919	26727
819.06	26834
819.2	26940
819.341	26944
819.481	27013
819.622	27222
819.762	27427
819.903	27336
820.043	27291
820.184	27135
820.324	27252
820.465	27256
820.605	27070
820.746	27218
820.886	26979
821.026	27150
821.167	27051
821.307	27150
821.447	27096
821.588	27024
821.728	26918
821.868	26587
822.008	26602
822.149	26552
822.289	26476
822.429	26290
822.569	26122
822.709	26084
822.849	26115
822.99	25970
823.13	25925
823.27	25852
823.41	25822
823.55	25712
823.69	25860
823.83	25894
823.97	25769
824.11	25662
824.25	25544
824.389	25715
824.529	25674
824.669	25647
824.809	25723
824.949	25769
825.089	25795
825.228	25628
825.368	25438
825.508	25605
825.648	25457
825.787	25601
825.927	25464
826.067	25506
826.206	25601
826.346	25567
826.485	25571
826.625	25552
826.765	25639
826.904	25533
827.044	25369
827.183	25415
827.323	25327
827.462	25331
827.601	25289
827.741	25358
827.88	25171
828.02	25137
828.159	25137
828.298	25304
828.437	25388
828.577	25156
828.716	25304
828.855	25190
828.994	24928
829.134	25027
829.273	25069
829.412	25015
829.551	24848
829.69	24920
829.829	24958
829.968	25080
830.107	25050
830.246	24932
830.385	25069
830.524	24924
830.663	24757
830.802	24635
830.941	24483
831.08	24490
831.219	24627
831.357	24760
831.496	24726
831.635	24486
831.774	24445
831.913	24422
832.051	24296
832.19	24369
832.329	24361
832.467	24292
832.606	24163
832.744	24102
832.883	24194
833.022	24057
833.16	24148
833.299	24228
833.437	24369
833.576	24353
833.714	24308
833.852	24315
833.991	24342
834.129	24353
834.267	24441
834.406	24186
834.544	24247
834.682	24232
834.821	24330
834.959	24426
835.097	24232
835.235	24327
835.373	24205
835.511	24213
835.65	24239
835.788	24182
835.926	24102
836.064	23961
836.202	23961
836.34	24148
836.478	24186
836.615	24068
836.753	24053
836.891	24273
837.029	24209
837.167	24148
837.305	24018
837.443	24015
837.58	23866
837.718	23984
837.856	23942
837.993	23977
838.131	23912
838.269	23802
838.406	23946
838.544	23908
838.681	23615
838.819	23611
838.956	23505
839.094	23459
839.231	23531
839.369	23604
839.506	23828
839.643	23703
839.781	23410
839.918	23284
840.055	23414
840.193	23383
840.33	23471
840.467	23455
840.604	23444
840.742	23649
840.879	23204
841.016	23315
841.153	23246
841.29	23414
841.427	23383
841.564	23436
841.701	23269
841.838	23406
841.975	23155
842.112	23372
842.249	23102
842.385	23079
842.522	23208
842.659	23136
842.796	22953
842.933	23090
843.069	22896
843.206	23212
843.343	23231
843.479	23041
843.616	23079
843.752	22854
843.889	22946
844.025	23185
844.162	22889
844.298	22995
844.435	22889
844.571	22885
844.708	22938
844.844	22991
844.98	23022
845.117	22839
845.253	22691
845.389	22774
845.525	22828
845.661	22683
845.798	22641
845.934	22668
846.07	22485
846.206	22672
846.342	22812
846.478	22569
846.614	22409
846.75	22375
846.886	22417
847.022	22500
847.158	22481
847.294	22409
847.429	22386
847.565	22303
847.701	22641
847.837	22169
847.972	22036
848.108	22242
848.244	22139
848.379	21930
848.515	22013
848.65	21960
848.786	21907
848.921	21983
849.057	22032
849.192	22078
849.328	22017
849.463	22040
849.598	21975
849.734	21736
849.869	21857
850.004	21660
850.14	21762
850.275	21873
850.41	21641
850.545	21667
850.68	21625
850.815	21747
850.95	21595
851.085	21762
851.22	21937
851.355	21812
851.49	21633
851.625	21644
851.76	21667
851.895	21492
852.03	21519
852.165	21755
852.299	21694
852.434	21812
852.569	21743
852.703	21751
852.838	21766
852.973	21785
853.107	21720
853.242	21500
853.376	21492
853.511	21359
853.645	21401
853.78	21473
853.914	21622
854.048	21515
854.183	21447
854.317	21515
854.451	21713
854.585	21466
854.72	21447
854.854	21652
854.988	21428
855.122	21561
855.256	21367
855.39	21561
855.524	21576
855.658	21458
855.792	21420
855.926	21443
856.06	21515
856.194	21591
856.327	21485
856.461	21431
856.595	21450
856.729	21496
856.862	21591
856.996	21481
857.13	21534
857.263	21698
857.397	21686
857.53	21591
857.664	21545
857.797	21648
857.931	21591
858.064	21500
858.197	21481
858.331	21485
858.464	21519
858.597	21439
858.731	21488
858.864	21576
858.997	21447
859.13	21424
859.263	21435
859.396	21682
859.529	21526
859.662	21412
859.795	21519
859.928	21507
860.061	21622
860.194	21713
860.327	21660
860.46	21492
860.592	21629
860.725	21663
860.858	21728
860.99	21603
861.123	21507
861.256	21462
861.388	21538
861.521	22272
861.653	21397
861.786	21306
861.918	21351
862.05	21325
862.183	21439
862.315	21488
862.447	21466
862.58	21454
862.712	21123
862.844	21127
862.976	21382
863.108	21302
863.24	21599
863.372	21066
863.504	21218
863.636	21112
863.768	21188
863.9	21188
864.032	21287
864.164	21146
864.296	21233
864.428	21336
864.559	21306
864.691	21249
864.823	21222
864.954	21211
865.086	21230
865.217	21211
865.349	21119
865.48	21028
865.612	21116
865.743	21211
865.875	21051
866.006	21237
866.137	21104
866.269	21119
866.4	20975
866.531	21161
866.662	21089
866.793	20982
866.924	21005
867.055	20933
867.186	21173
867.317	21013
867.448	20918
867.579	21074
867.71	20906
867.841	21036
867.972	20967
868.103	20986
868.233	21127
868.364	21020
868.495	21089
868.625	21306
868.756	21443
868.886	21192
869.017	21325
869.147	21336
869.278	21351
869.408	21283
869.539	21264
869.669	21416
869.799	21317
869.929	21439
870.06	21450
870.19	21526
870.32	21568
870.45	21629
870.58	21717
870.71	21671
870.84	21895
870.97	21717
871.1	21561
871.23	21876
871.36	21819
871.489	21739
871.619	21808
871.749	21895
871.879	21880
872.008	21922
872.138	22010
872.267	21884
872.397	21732
872.526	21728
872.656	21736
872.785	21686
872.915	21956
873.044	22006
873.173	21827
873.303	21915
873.432	21949
873.561	21949
873.69	21835
873.819	21899
873.948	22074
874.077	22006
874.206	21812
874.335	21793
874.464	21983
874.593	22105
874.722	22090
874.851	22181
874.979	22029
875.108	22154
875.237	22116
875.365	21994
875.494	22048
875.623	22204
875.751	22097
875.88	22097
876.008	22291
876.136	22523
876.265	22455
876.393	22618
876.521	22565
876.65	22710
876.778	22394
876.906	22382
877.034	22542
877.162	22440
877.29	22523
877.418	22497
877.546	22508
877.674	22497
877.802	22432
877.93	22379
878.058	22360
878.185	22379
878.313	22344
878.441	22500
878.568	22348
878.696	22531
878.824	22474
878.951	22493
879.079	22675
879.206	22668
879.333	22584
879.461	22573
879.588	22607
879.715	22645
879.842	22767
879.97	22542
880.097	22360
880.224	22257
880.351	22348
880.478	22303
880.605	22249
880.732	22322
880.859	22516
880.986	22371
881.112	22242
881.239	22226
881.366	22021
881.493	21953
881.619	21793
881.746	21846
881.872	21895
881.999	21838
882.125	21774
882.252	21842
882.378	21854
882.505	21899
882.631	21762
882.757	21542
882.883	21534
883.01	21469
883.136	21576
883.262	21382
883.388	21374
883.514	21545
883.64	21549
883.766	21447
883.892	21256
884.018	21378
884.143	21492
884.269	21625
884.395	21211
884.52	21089
884.646	21184
884.772	21150
884.897	21154
885.023	21226
885.148	21230
885.274	21424
885.399	21268
885.524	21340
885.65	21188
885.775	21176
885.9	21123
886.025	21245
886.15	21272
886.275	21142
886.4	21199
886.525	21070
886.65	21180
886.775	21085
886.9	21344
887.025	21401
887.149	21161
887.274	20944
887.399	20956
887.523	20880
887.648	20815
887.773	20864
887.897	21017
888.021	20967
888.146	20823
888.27	21146
888.395	21005
888.519	20899
888.643	20876
888.767	21017
888.891	20864
889.015	20682
889.139	20849
889.263	20834
889.387	20876
889.511	20918
889.635	20929
889.759	20788
889.883	20648
890.006	20667
890.13	20800
890.254	20644
890.377	20655
890.501	20473
890.624	20488
890.748	20594
890.871	20355
890.995	20351
891.118	20229
891.241	20313
891.364	20339
891.488	20434
891.611	20351
891.734	20358
891.857	20347
891.98	20461
892.103	20290
892.226	20431
892.349	20229
892.471	20183
892.594	20107
892.717	20214
892.839	20176
892.962	20206
893.085	20541
893.207	20183
893.33	20107
893.452	20088
893.575	20320
893.697	20309
893.819	20339
893.941	20419
894.064	20408
894.186	20214
894.308	20088
894.43	20248
894.552	20343
894.674	20324
894.796	20168
894.918	20164
895.04	20233
895.161	20214
895.283	20221
895.405	20119
895.526	20336
895.648	20138
895.769	20195
895.891	20153
896.012	20309
896.134	20336
896.255	20343
896.376	20107
896.498	20248
896.619	20233
896.74	20282
896.861	20317
896.982	20511
897.103	20746
897.224	20552
897.345	20450
897.466	20290
897.587	20495
897.708	20590
897.828	20427
897.949	20415
898.07	20332
898.19	20408
898.311	20552
898.431	20366
898.552	20343
898.672	20476
898.792	20446
898.913	20507
899.033	20313
899.153	20252
899.273	20153
899.393	20145
899.513	20206
899.633	20206
899.753	20252
899.873	20157
899.993	20157
900.113	20126
900.232	20145
900.352	20122
900.472	20024
900.591	19909
900.711	20065
900.83	19978
900.95	19963
901.069	19986
901.189	19856
901.308	19586
901.427	19480
901.546	19658
901.665	19620
901.784	19518
901.904	19343
902.023	19335
902.141	19152
902.26	19107
902.379	19091
902.498	19057
902.617	19080
902.735	19156
902.854	19126
902.973	18852
903.091	18692
903.21	18795
903.328	18696
903.446	18574
903.565	18654
903.683	18578
903.801	18350
903.919	18433
904.038	18437
904.156	18342
904.274	18422
904.392	18350
904.51	18304
904.627	18174
904.745	18422
904.863	18266
904.981	18144
905.098	17969
905.216	17942
905.334	17965
905.451	18030
905.569	17870
905.686	18072
905.803	17958
905.921	17668
906.038	17859
906.155	17779
906.272	17691
906.389	17775
906.506	17581
906.623	17406
906.74	17425
906.857	17345
906.974	17410
907.091	17490
907.208	17589
907.324	17539
907.441	17440
907.557	17181
907.674	17376
907.79	17086
907.907	17288
908.023	17398
908.139	17185
908.256	17143
908.372	17006
908.488	17166
908.604	16911
908.72	16946
908.836	17006
908.952	16824
909.068	17022
909.184	16942
909.3	16885
909.415	16915
909.531	16847
909.647	16759
909.762	16565
909.878	16577
909.993	16763
910.108	16554
910.224	16516
910.339	16649
910.454	16459
910.57	16451
910.685	16360
910.8	16615
910.915	16542
911.03	16421
911.145	16215
911.259	16268
911.374	16188
911.489	16196
911.604	16078
911.718	16002
911.833	16082
911.947	15800
912.062	15778
912.176	15953
912.291	15945
912.405	15816
912.519	16109
912.633	16017
912.748	15960
912.862	15831
912.976	15895
913.09	15766
913.204	15865
913.318	15743
913.431	15808
913.545	15766
913.659	15869
913.772	15736
913.886	15637
914	15557
914.113	15591
914.226	15633
914.34	15705
914.453	15485
914.566	15751
914.68	15538
914.793	15504
914.906	15203
915.019	15161
915.132	15142
915.245	15146
915.358	15218
915.47	15135
915.583	15180
915.696	15161
915.809	15294
915.921	15245
916.034	15112
916.146	15058
916.259	15097
916.371	15180
916.483	15104
916.595	15070
916.708	15017
916.82	14937
916.932	14933
917.044	14967
917.156	14979
917.268	14823
917.38	14891
917.491	14796
917.603	14826
917.715	14830
917.826	14872
917.938	14838
918.049	14731
918.161	14807
918.272	14887
918.384	14956
918.495	14853
918.606	14625
918.717	14495
918.828	14644
918.939	14640
919.05	14412
919.161	14602
919.272	14427
919.383	14469
919.494	14617
919.604	14777
919.715	14541
919.826	14461
919.936	14568
920.047	14644
920.157	14564
920.267	14727
920.378	14533
920.488	14549
920.598	14724
920.708	14792
920.818	14606
920.928	14659
921.038	14781
921.148	14765
921.258	14419
921.368	14389
921.477	14286
921.587	14275
921.697	14142
921.806	14259
921.916	14069
922.025	14058
922.134	13963
922.244	13890
922.353	14058
922.462	13890
922.571	13666
922.68	13689
922.789	13540
922.898	13571
923.007	13521
923.116	13662
923.224	13616
923.333	13476
923.442	13438
923.55	13415
923.659	13392
923.767	13430
923.876	13343
923.984	13419
924.092	13255
924.201	13388
924.309	13320
924.417	13346
924.525	13206
924.633	13213
924.741	14161
924.849	13110
924.956	13126
925.064	13069
925.172	12947
925.279	13008
925.387	13019
925.494	12932
925.602	13080
925.709	13061
925.816	12875
925.924	12954
926.031	13072
926.138	12962
926.245	12985
926.352	12886
926.459	12973
926.566	13012
926.673	12905
926.779	12787
926.886	12707
926.993	12623
927.099	12719
927.206	12494
927.312	12456
927.419	12589
927.525	12521
927.631	12506
927.737	12441
927.843	12490
927.95	12338
928.056	12300
928.162	12376
928.267	12388
928.373	12993
928.479	12506
928.585	12205
928.69	12277
928.796	12395
928.901	12197
929.007	12076
929.112	12251
929.218	12182
929.323	12140
929.428	12049
929.533	12220
929.638	11980
929.743	12060
929.848	12106
929.953	12041
930.058	11893
930.163	11824
930.267	11847
930.372	11954
930.477	11764
930.581	11889
930.685	11847
930.79	11642
930.894	11688
930.998	11642
931.103	11771
931.207	11421
931.311	11356
931.415	11277
931.519	11014
931.623	10995
