Data from test_V78500241_417.txt Node
Date: Fri Mar 25 15:12:45 CST 2022
User: usil
Spectrometer: V785-0024
Trigger mode: 0
Integration Time (sec): 4.000000E-1
Scans to average: 1
Nonlinearity correction enabled: false
Boxcar width: 0
Storing dark spectrum: false
XAxis mode: Wavelengths
Number of Pixels in Spectrum: 1024
>>>>>Begin Spectral Data<<<<<
801.071	27104
801.214	27116
801.356	26864
801.499	26804
801.641	26716
801.783	26716
801.926	26750
802.068	26659
802.211	26621
802.353	26537
802.496	26362
802.638	26446
802.78	26294
802.923	26218
803.065	26298
803.208	26282
803.35	26324
803.492	26476
803.635	26419
803.777	26412
803.919	26492
804.061	26773
804.204	26549
804.346	26366
804.488	26453
804.63	26366
804.773	26347
804.915	26606
805.057	26568
805.199	26488
805.341	26667
805.483	26651
805.626	26613
805.768	26423
805.91	26533
806.052	26674
806.194	26568
806.336	26868
806.478	26720
806.62	26621
806.762	26659
806.904	26868
807.046	27108
807.188	26963
807.33	26948
807.472	27100
807.614	26906
807.756	27020
807.898	26845
808.04	26674
808.182	26819
808.324	26731
808.465	26868
808.607	27013
808.749	27264
808.891	27313
809.033	27294
809.174	27249
809.316	27184
809.458	27165
809.6	27051
809.741	27176
809.883	27207
810.025	27504
810.166	27462
810.308	27561
810.45	27359
810.591	27405
810.733	27230
810.875	27142
811.016	27070
811.158	27032
811.299	27207
811.441	27351
811.582	27287
811.724	27066
811.865	27123
812.007	27157
812.148	27260
812.29	27211
812.431	27199
812.573	27477
812.714	27606
812.855	27618
812.997	27781
813.138	27903
813.279	27800
813.421	27766
813.562	27679
813.703	27542
813.845	27447
813.986	27005
814.127	26952
814.268	26861
814.41	26876
814.551	26708
814.692	26857
814.833	26826
814.974	26678
815.115	26788
815.256	26686
815.397	26587
815.539	26640
815.68	26522
815.821	26613
815.962	26568
816.103	26507
816.244	26560
816.385	26362
816.526	26385
816.666	26084
816.807	26111
816.948	26271
817.089	26168
817.23	26187
817.371	26138
817.512	26134
817.653	26103
817.793	26088
817.934	26122
818.075	26153
818.216	26100
818.356	26035
818.497	26031
818.638	25830
818.778	25898
818.919	25738
819.06	25860
819.2	25951
819.341	26024
819.481	26005
819.622	26195
819.762	26355
819.903	26324
820.043	26305
820.184	26252
820.324	26195
820.465	26450
820.605	26313
820.746	26237
820.886	26092
821.026	26282
821.167	26168
821.307	26275
821.447	26046
821.588	25970
821.728	25849
821.868	25689
822.008	25647
822.149	25658
822.289	25578
822.429	25373
822.569	25354
822.709	25164
822.849	25069
822.99	24973
823.13	25000
823.27	24951
823.41	24939
823.55	24745
823.69	24954
823.83	24875
823.97	24719
824.11	24620
824.25	24646
824.389	24688
824.529	24817
824.669	24703
824.809	24776
824.949	24814
825.089	24909
825.228	24677
825.368	24505
825.508	24593
825.648	24525
825.787	24585
825.927	24601
826.067	24517
826.206	24456
826.346	24639
826.485	24585
826.625	24635
826.765	24608
826.904	24555
827.044	24380
827.183	24414
827.323	24262
827.462	24338
827.601	24311
827.741	24247
827.88	24273
828.02	24235
828.159	24315
828.298	24213
828.437	24311
828.577	24292
828.716	24376
828.855	24296
828.994	24011
829.134	24022
829.273	24018
829.412	23942
829.551	23828
829.69	23935
829.829	24034
829.968	24095
830.107	24076
830.246	23980
830.385	23942
830.524	23931
830.663	23870
830.802	23714
830.941	23604
831.08	23615
831.219	23748
831.357	23592
831.496	23870
831.635	23467
831.774	23429
831.913	23539
832.051	23566
832.19	23512
832.329	23391
832.467	23277
832.606	23223
832.744	23311
832.883	23265
833.022	23269
833.16	23421
833.299	23360
833.437	23356
833.576	23387
833.714	23368
833.852	23421
833.991	23440
834.129	23486
834.267	23406
834.406	23337
834.544	23436
834.682	23292
834.821	23421
834.959	23592
835.097	23246
835.235	23474
835.373	23284
835.511	23448
835.65	23318
835.788	23277
835.926	23170
836.064	22972
836.202	22991
836.34	23254
836.478	23235
836.615	23147
836.753	23280
836.891	23334
837.029	23273
837.167	23033
837.305	23216
837.443	23132
837.58	23189
837.718	23075
837.856	23132
837.993	23060
838.131	23102
838.269	23018
838.406	22965
838.544	22828
838.681	22725
838.819	22687
838.956	22527
839.094	22508
839.231	22474
839.369	22771
839.506	22805
839.643	22679
839.781	22573
839.918	22500
840.055	22596
840.193	22569
840.33	22386
840.467	22523
840.604	22523
840.742	22778
840.879	22352
841.016	22428
841.153	22402
841.29	22554
841.427	22542
841.564	22622
841.701	22577
841.838	22489
841.975	22455
842.112	22489
842.249	22249
842.385	22238
842.522	22497
842.659	22268
842.796	22371
842.933	22253
843.069	22192
843.206	22204
843.343	22299
843.479	22268
843.616	22295
843.752	22101
843.889	22044
844.025	22226
844.162	22040
844.298	22090
844.435	22078
844.571	22010
844.708	22074
844.844	22268
844.98	22112
845.117	22173
845.253	21949
845.389	21884
845.525	21934
845.661	21892
845.798	21713
845.934	21827
846.07	21633
846.206	21808
846.342	21835
846.478	21690
846.614	21564
846.75	21454
846.886	21496
847.022	21675
847.158	21386
847.294	21458
847.429	21568
847.565	21504
847.701	21816
847.837	21245
847.972	21226
848.108	21340
848.244	21363
848.379	21275
848.515	20990
848.65	20910
848.786	21043
848.921	21214
849.057	21173
849.192	21211
849.328	21188
849.463	21123
849.598	21001
849.734	21070
849.869	20952
850.004	20861
850.14	20887
850.275	20880
850.41	20845
850.545	20701
850.68	20857
850.815	20941
850.95	20781
851.085	21077
851.22	20830
851.355	20883
851.49	20876
851.625	20807
851.76	20788
851.895	20705
852.03	20746
852.165	20857
852.299	20944
852.434	20902
852.569	20864
852.703	20861
852.838	20944
852.973	20956
853.107	20952
853.242	20754
853.376	20606
853.511	20556
853.645	20667
853.78	20743
853.914	20590
854.048	20659
854.183	20655
854.317	20682
854.451	20785
854.585	20743
854.72	20644
854.854	20743
854.988	20571
855.122	20708
855.256	20526
855.39	20644
855.524	20792
855.658	20667
855.792	20682
855.926	20727
856.06	20693
856.194	20834
856.327	20785
856.461	20609
856.595	20632
856.729	20758
856.862	20739
856.996	20754
857.13	20663
857.263	20804
857.397	20781
857.53	20758
857.664	20758
857.797	20781
857.931	20883
858.064	20689
858.197	20781
858.331	20560
858.464	20708
858.597	20533
858.731	20693
858.864	20636
858.997	20746
859.13	20686
859.263	20724
859.396	20682
859.529	20689
859.662	20575
859.795	20613
859.928	20716
860.061	20769
860.194	20883
860.327	20621
860.46	20689
860.592	20861
860.725	20842
860.858	20845
860.99	20762
861.123	20632
861.256	20629
861.388	20667
861.521	21329
861.653	20648
861.786	20530
861.918	20446
862.05	20594
862.183	20484
862.315	20678
862.447	20693
862.58	20670
862.712	20400
862.844	20457
862.976	20583
863.108	20438
863.24	20925
863.372	20259
863.504	20366
863.636	20434
863.768	20541
863.9	20457
864.032	20347
864.164	20305
864.296	20343
864.428	20526
864.559	20503
864.691	20419
864.823	20347
864.954	20305
865.086	20377
865.217	20267
865.349	20214
865.48	20317
865.612	20347
865.743	20469
865.875	20309
866.006	20305
866.137	20419
866.269	20172
866.4	20195
866.531	20256
866.662	20088
866.793	20221
866.924	20233
867.055	20199
867.186	20218
867.317	20202
867.448	20058
867.579	20134
867.71	20176
867.841	20126
867.972	20286
868.103	20237
868.233	20275
868.364	20286
868.495	20290
868.625	20488
868.756	20495
868.886	20381
869.017	20537
869.147	20564
869.278	20606
869.408	20400
869.539	20419
869.669	20590
869.799	20454
869.929	20606
870.06	20644
870.19	20872
870.32	20796
870.45	20853
870.58	20823
870.71	20960
870.84	20899
870.97	20864
871.1	20868
871.23	21142
871.36	21150
871.489	21020
871.619	20941
871.749	20982
871.879	21001
872.008	21199
872.138	20933
872.267	20979
872.397	20872
872.526	20921
872.656	20834
872.785	20864
872.915	21214
873.044	21093
873.173	21123
873.303	21093
873.432	21112
873.561	21199
873.69	21112
873.819	21058
873.948	21077
874.077	21123
874.206	21051
874.335	21062
874.464	21195
874.593	21275
874.722	21325
874.851	21272
874.979	21431
875.108	21363
875.237	21332
875.365	21256
875.494	21382
875.623	21370
875.751	21260
875.88	21466
876.008	21420
876.136	21629
876.265	21644
876.393	21789
876.521	21755
876.65	21857
876.778	21701
876.906	21652
877.034	21553
877.162	21747
877.29	21709
877.418	21644
877.546	21819
877.674	21648
877.802	21694
877.93	21587
878.058	21728
878.185	21652
878.313	21759
878.441	21679
878.568	21561
878.696	21587
878.824	21682
878.951	21903
879.079	21838
879.206	21816
879.333	21846
879.461	21747
879.588	21861
879.715	21865
879.842	21979
879.97	21774
880.097	21492
880.224	21488
880.351	21557
880.478	21530
880.605	21519
880.732	21561
880.859	21652
880.986	21618
881.112	21656
881.239	21370
881.366	21291
881.493	21249
881.619	20948
881.746	21074
881.872	21256
881.999	21024
882.125	20975
882.252	21226
882.378	21081
882.505	21264
882.631	20944
882.757	20883
882.883	20910
883.01	20826
883.136	20625
883.262	20682
883.388	20701
883.514	20765
883.64	20826
883.766	20765
883.892	20625
884.018	20659
884.143	20830
884.269	20880
884.395	20560
884.52	20473
884.646	20454
884.772	20336
884.897	20339
885.023	20492
885.148	20625
885.274	20560
885.399	20545
885.524	20476
885.65	20465
885.775	20511
885.9	20305
886.025	20590
886.15	20556
886.275	20412
886.4	20370
886.525	20370
886.65	20324
886.775	20393
886.9	20549
887.025	20575
887.149	20313
887.274	20195
887.399	20339
887.523	20244
887.648	20134
887.773	20153
887.897	20286
888.021	20267
888.146	20077
888.27	20339
888.395	20278
888.519	20320
888.643	20221
888.767	20183
888.891	20161
889.015	20035
889.139	20119
889.263	20001
889.387	20164
889.511	20187
889.635	20103
889.759	19928
889.883	20005
890.006	20142
890.13	20176
890.254	19932
890.377	19947
890.501	19742
890.624	19719
890.748	19799
890.871	19704
890.995	19715
891.118	19556
891.241	19624
891.364	19624
891.488	19696
891.611	19537
891.734	19556
891.857	19746
891.98	19719
892.103	19723
892.226	19601
892.349	19575
892.471	19358
892.594	19552
892.717	19616
892.839	19567
892.962	19643
893.085	19567
893.207	19525
893.33	19297
893.452	19396
893.575	19609
893.697	19559
893.819	19677
893.941	19753
894.064	19723
894.186	19502
894.308	19468
894.43	19624
894.552	19620
894.674	19677
894.796	19499
894.918	19647
895.04	19548
895.161	19601
895.283	19556
895.405	19578
895.526	19476
895.648	19521
895.769	19540
895.891	19514
896.012	19628
896.134	19483
896.255	19495
896.376	19403
896.498	19582
896.619	19472
896.74	19605
896.861	19719
896.982	19822
897.103	19963
897.224	19814
897.345	19624
897.466	19666
897.587	19807
897.708	19894
897.828	19674
897.949	19738
898.07	19601
898.19	19723
898.311	19791
898.431	19715
898.552	19734
898.672	19784
898.792	19864
898.913	19769
899.033	19658
899.153	19537
899.273	19491
899.393	19582
899.513	19590
899.633	19419
899.753	19559
899.873	19464
899.993	19559
900.113	19468
900.232	19510
900.352	19377
900.472	19381
900.591	19213
900.711	19304
900.83	19312
900.95	19335
901.069	19445
901.189	19278
901.308	19015
901.427	18837
901.546	18829
901.665	18920
901.784	18947
901.904	18791
902.023	18738
902.141	18437
902.26	18380
902.379	18566
902.498	18433
902.617	18426
902.735	18452
902.854	18395
902.973	18342
903.091	18190
903.21	18110
903.328	18053
903.446	17977
903.565	17832
903.683	17889
903.801	17821
903.919	17828
904.038	17832
904.156	17653
904.274	17752
904.392	17596
904.51	17695
904.627	17741
904.745	17703
904.863	17684
904.981	17634
905.098	17315
905.216	17387
905.334	17452
905.451	17436
905.569	17315
905.686	17467
905.803	17360
905.921	17155
906.038	17151
906.155	17178
906.272	17010
906.389	17022
906.506	16858
906.623	16881
906.74	16850
906.857	16786
906.974	16820
907.091	17086
907.208	17083
907.324	17014
907.441	16782
907.557	16645
907.674	16702
907.79	16527
907.907	16565
908.023	16599
908.139	16538
908.256	16599
908.372	16592
908.488	16500
908.604	16375
908.72	16356
908.836	16367
908.952	16367
909.068	16363
909.184	16367
909.3	16265
909.415	16360
909.531	16280
909.647	16093
909.762	16082
909.878	16105
909.993	16071
910.108	16044
910.224	15960
910.339	16017
910.454	15960
910.57	15831
910.685	15804
910.8	16021
910.915	15945
911.03	15846
911.145	15686
911.259	15682
911.374	15709
911.489	15652
911.604	15568
911.718	15367
911.833	15481
911.947	15355
912.062	15321
912.176	15401
912.291	15431
912.405	15408
912.519	15572
912.633	15614
912.748	15397
912.862	15439
912.976	15211
913.09	15051
913.204	15176
913.318	15138
913.431	15302
913.545	15283
913.659	15184
913.772	15180
913.886	14979
914	14960
914.113	15138
914.226	15207
914.34	15112
914.453	14948
914.566	15070
914.68	14849
914.793	14853
914.906	14701
915.019	14663
915.132	14575
915.245	14602
915.358	14674
915.47	14629
915.583	14762
915.696	14750
915.809	14746
915.921	14689
916.034	14560
916.146	14587
916.259	14492
916.371	14663
916.483	14575
916.595	14556
916.708	14518
916.82	14488
916.932	14484
917.044	14427
917.156	14396
917.268	14286
917.38	14286
917.491	14275
917.603	14282
917.715	14514
917.826	14431
917.938	14290
918.049	14126
918.161	14320
918.272	14438
918.384	14366
918.495	14221
918.606	14191
918.717	14073
918.828	14111
918.939	14100
919.05	14043
919.161	14073
919.272	13875
919.383	14005
919.494	14168
919.604	14358
919.715	14088
919.826	14024
919.936	14039
920.047	14191
920.157	14123
920.267	14298
920.378	14123
920.488	13936
920.598	14301
920.708	14434
920.818	14187
920.928	14210
921.038	14343
921.148	14275
921.258	13982
921.368	13944
921.477	13947
921.587	13811
921.697	13674
921.806	13799
921.916	13643
922.025	13495
922.134	13445
922.244	13506
922.353	13377
922.462	13285
922.571	13274
922.68	13095
922.789	13088
922.898	13179
923.007	12958
923.116	13080
923.224	13072
923.333	13110
923.442	13042
923.55	12932
923.659	12996
923.767	12989
923.876	12913
923.984	12970
924.092	12840
924.201	12825
924.309	12852
924.417	12875
924.525	12787
924.633	12810
924.741	13628
924.849	12654
924.956	12779
925.064	12585
925.172	12506
925.279	12483
925.387	12604
925.494	12547
925.602	12639
925.709	12608
925.816	12559
925.924	12448
926.031	12585
926.138	12566
926.245	12570
926.352	12441
926.459	12585
926.566	12608
926.673	12403
926.779	12403
926.886	12216
926.993	12232
927.099	12102
927.206	12064
927.312	12163
927.419	12163
927.525	12114
927.631	12155
927.737	12030
927.843	11965
927.95	11912
928.056	11950
928.162	11889
928.267	12072
928.373	12555
928.479	12045
928.585	11889
928.69	11882
928.796	11885
928.901	11817
929.007	11710
929.112	11817
929.218	11813
929.323	11729
929.428	11745
929.533	11737
929.638	11646
929.743	11676
929.848	11680
929.953	11596
930.058	11592
930.163	11383
930.267	11467
930.372	11547
930.477	11345
930.581	11623
930.685	11520
930.79	11376
930.894	11269
930.998	11280
931.103	11341
931.207	11056
931.311	11010
931.415	10930
931.519	10668
931.623	10603
