Data from test_V78500241_3193.txt Node
Date: Fri Mar 25 15:32:05 CST 2022
User: usil
Spectrometer: V785-0024
Trigger mode: 0
Integration Time (sec): 4.000000E-1
Scans to average: 1
Nonlinearity correction enabled: false
Boxcar width: 0
Storing dark spectrum: false
XAxis mode: Wavelengths
Number of Pixels in Spectrum: 1024
>>>>>Begin Spectral Data<<<<<
801.071	26929
801.214	26933
801.356	26670
801.499	26568
801.641	26442
801.783	26442
801.926	26400
802.068	26469
802.211	26355
802.353	26282
802.496	26164
802.638	26195
802.78	26084
802.923	25993
803.065	25989
803.208	25986
803.35	26065
803.492	26142
803.635	26126
803.777	26111
803.919	26221
804.061	26461
804.204	26290
804.346	26313
804.488	26016
804.63	26237
804.773	26271
804.915	26313
805.057	26301
805.199	26157
805.341	26305
805.483	26374
805.626	26240
805.768	26225
805.91	26393
806.052	26309
806.194	26195
806.336	26488
806.478	26324
806.62	26313
806.762	26305
806.904	26526
807.046	26727
807.188	26811
807.33	26746
807.472	26746
807.614	26560
807.756	26682
807.898	26583
808.04	26541
808.182	26393
808.324	26469
808.465	26598
808.607	26838
808.749	26956
808.891	26819
809.033	27077
809.174	26887
809.316	26834
809.458	26910
809.6	26861
809.741	26910
809.883	27001
810.025	27089
810.166	27081
810.308	27203
810.45	27089
810.591	27009
810.733	26864
810.875	26906
811.016	26670
811.158	26823
811.299	26948
811.441	27020
811.582	27039
811.724	26823
811.865	26830
812.007	26952
812.148	26868
812.29	26842
812.431	26918
812.573	27165
812.714	27199
812.855	27264
812.997	27477
813.138	27473
813.279	27397
813.421	27382
813.562	27310
813.703	27218
813.845	27161
813.986	26796
814.127	26598
814.268	26613
814.41	26366
814.551	26446
814.692	26503
814.833	26423
814.974	26450
815.115	26461
815.256	26377
815.397	26389
815.539	26480
815.68	26358
815.821	26210
815.962	26244
816.103	26210
816.244	26100
816.385	26100
816.526	25963
816.666	25871
816.807	25704
816.948	25742
817.089	25753
817.23	25894
817.371	25845
817.512	25753
817.653	25696
817.793	25761
817.934	25696
818.075	25769
818.216	25864
818.356	25597
818.497	25628
818.638	25441
818.778	25487
818.919	25616
819.06	25502
819.2	25662
819.341	25753
819.481	25746
819.622	25951
819.762	26126
819.903	25997
820.043	25970
820.184	25883
820.324	25871
820.465	25940
820.605	25925
820.746	25769
820.886	25704
821.026	25864
821.167	25909
821.307	25875
821.447	25734
821.588	25624
821.728	25609
821.868	25445
822.008	25312
822.149	25053
822.289	25225
822.429	25000
822.569	25019
822.709	24840
822.849	24802
822.99	24677
823.13	24616
823.27	24627
823.41	24475
823.55	24414
823.69	24551
823.83	24513
823.97	24426
824.11	24327
824.25	24235
824.389	24395
824.529	24391
824.669	24346
824.809	24426
824.949	24399
825.089	24437
825.228	24369
825.368	24251
825.508	24251
825.648	24296
825.787	24266
825.927	24289
826.067	24144
826.206	24083
826.346	24281
826.485	24220
826.625	24258
826.765	24376
826.904	24228
827.044	24011
827.183	24034
827.323	23843
827.462	23935
827.601	23878
827.741	23821
827.88	24015
828.02	23920
828.159	23882
828.298	23935
828.437	23965
828.577	23824
828.716	24079
828.855	23756
828.994	23722
829.134	23680
829.273	23638
829.412	23463
829.551	23703
829.69	23817
829.829	23596
829.968	23752
830.107	23718
830.246	23695
830.385	23600
830.524	23558
830.663	23547
830.802	23337
830.941	23277
831.08	23246
831.219	23490
831.357	23307
831.496	23440
831.635	23143
831.774	23197
831.913	23041
832.051	23086
832.19	23056
832.329	23056
832.467	22877
832.606	22850
832.744	22755
832.883	22980
833.022	22831
833.16	22854
833.299	23086
833.437	22854
833.576	22980
833.714	22968
833.852	23044
833.991	23136
834.129	23033
834.267	22927
834.406	22968
834.544	22949
834.682	23071
834.821	23033
834.959	23254
835.097	22828
835.235	23083
835.373	23048
835.511	22915
835.65	22892
835.788	22759
835.926	22637
836.064	22660
836.202	22607
836.34	22767
836.478	22892
836.615	22828
836.753	22683
836.891	22881
837.029	22942
837.167	22733
837.305	22748
837.443	22672
837.58	22782
837.718	22896
837.856	22843
837.993	22691
838.131	22569
838.269	22599
838.406	22630
838.544	22512
838.681	22421
838.819	22276
838.956	22173
839.094	22150
839.231	22230
839.369	22352
839.506	22573
839.643	22371
839.781	22101
839.918	22177
840.055	22120
840.193	22120
840.33	22055
840.467	22226
840.604	22238
840.742	22478
840.879	21949
841.016	21934
841.153	22051
841.29	22223
841.427	22120
841.564	22166
841.701	22109
841.838	22090
841.975	21998
842.112	22051
842.249	21968
842.385	21873
842.522	22177
842.659	21865
842.796	21964
842.933	21808
843.069	21873
843.206	21759
843.343	21945
843.479	21842
843.616	21762
843.752	21679
843.889	21732
844.025	21854
844.162	21698
844.298	21797
844.435	21587
844.571	21641
844.708	21797
844.844	21736
844.98	21819
845.117	21652
845.253	21656
845.389	21511
845.525	21568
845.661	21496
845.798	21351
845.934	21526
846.07	21359
846.206	21454
846.342	21496
846.478	21313
846.614	21218
846.75	21176
846.886	21203
847.022	21313
847.158	21161
847.294	21131
847.429	21192
847.565	21233
847.701	21363
847.837	20929
847.972	20864
848.108	20956
848.244	20952
848.379	20823
848.515	20663
848.65	20579
848.786	20743
848.921	20762
849.057	20796
849.192	20914
849.328	20743
849.463	20606
849.598	20545
849.734	20640
849.869	20617
850.004	20537
850.14	20579
850.275	20526
850.41	20343
850.545	20492
850.68	20454
850.815	20575
850.95	20598
851.085	20655
851.22	20575
851.355	20499
851.49	20412
851.625	20393
851.76	20427
851.895	20294
852.03	20328
852.165	20412
852.299	20587
852.434	20526
852.569	20613
852.703	20537
852.838	20621
852.973	20659
853.107	20678
853.242	20427
853.376	20343
853.511	20172
853.645	20252
853.78	20450
853.914	20286
854.048	20374
854.183	20336
854.317	20309
854.451	20404
854.585	20294
854.72	20343
854.854	20351
854.988	20237
855.122	20332
855.256	20286
855.39	20164
855.524	20320
855.658	20412
855.792	20419
855.926	20324
856.06	20377
856.194	20389
856.327	20320
856.461	20218
856.595	20214
856.729	20244
856.862	20374
856.996	20324
857.13	20336
857.263	20533
857.397	20431
857.53	20362
857.664	20415
857.797	20370
857.931	20404
858.064	20229
858.197	20385
858.331	20259
858.464	20225
858.597	20229
858.731	20286
858.864	20275
858.997	20275
859.13	20298
859.263	20343
859.396	20446
859.529	20290
859.662	20259
859.795	20301
859.928	20301
860.061	20434
860.194	20484
860.327	20389
860.46	20412
860.592	20419
860.725	20583
860.858	20404
860.99	20206
861.123	20157
861.256	20233
861.388	20237
861.521	20857
861.653	20157
861.786	20084
861.918	20195
862.05	20259
862.183	20278
862.315	20275
862.447	20320
862.58	20294
862.712	19959
862.844	19883
862.976	20065
863.108	20187
863.24	20469
863.372	20005
863.504	19997
863.636	20054
863.768	20035
863.9	19982
864.032	19951
864.164	19928
864.296	20024
864.428	20130
864.559	20176
864.691	20119
864.823	19936
864.954	20062
865.086	20046
865.217	19921
865.349	19849
865.48	19921
865.612	19951
865.743	20001
865.875	19997
866.006	19723
866.137	19906
866.269	19906
866.4	19864
866.531	19909
866.662	19700
866.793	19936
866.924	19951
867.055	19818
867.186	19967
867.317	19928
867.448	19913
867.579	19898
867.71	19772
867.841	19852
867.972	19818
868.103	19811
868.233	19932
868.364	19940
868.495	19955
868.625	20126
868.756	20336
868.886	20020
869.017	20259
869.147	20259
869.278	20218
869.408	20092
869.539	20122
869.669	20134
869.799	20161
869.929	20187
870.06	20202
870.19	20393
870.32	20431
870.45	20556
870.58	20632
870.71	20617
870.84	20560
870.97	20545
871.1	20560
871.23	20651
871.36	20716
871.489	20689
871.619	20701
871.749	20765
871.879	20758
872.008	20777
872.138	20792
872.267	20674
872.397	20636
872.526	20804
872.656	20522
872.785	20571
872.915	20811
873.044	20765
873.173	20724
873.303	20819
873.432	20876
873.561	20785
873.69	20830
873.819	20845
873.948	20796
874.077	20743
874.206	20754
874.335	20842
874.464	20868
874.593	20918
874.722	21028
874.851	21047
874.979	21123
875.108	20979
875.237	20921
875.365	20887
875.494	20971
875.623	21100
875.751	20902
875.88	21085
876.008	21302
876.136	21252
876.265	21428
876.393	21561
876.521	21576
876.65	21454
876.778	21336
876.906	21298
877.034	21359
877.162	21332
877.29	21367
877.418	21325
877.546	21359
877.674	21348
877.802	21336
877.93	21351
878.058	21294
878.185	21184
878.313	21302
878.441	21439
878.568	21203
878.696	21355
878.824	21370
878.951	21363
879.079	21648
879.206	21641
879.333	21488
879.461	21412
879.588	21523
879.715	21553
879.842	21587
879.97	21481
880.097	21241
880.224	21233
880.351	21264
880.478	21230
880.605	21256
880.732	21169
880.859	21405
880.986	21184
881.112	21306
881.239	21100
881.366	20895
881.493	20925
881.619	20792
881.746	20842
881.872	20739
881.999	20670
882.125	20743
882.252	20826
882.378	20781
882.505	20845
882.631	20674
882.757	20442
882.883	20651
883.01	20503
883.136	20488
883.262	20336
883.388	20286
883.514	20594
883.64	20522
883.766	20374
883.892	20202
884.018	20301
884.143	20419
884.269	20503
884.395	20240
884.52	20195
884.646	20145
884.772	20069
884.897	19997
885.023	20256
885.148	20457
885.274	20431
885.399	20252
885.524	20084
885.65	20218
885.775	20096
885.9	20210
886.025	20298
886.15	20320
886.275	20206
886.4	20077
886.525	20142
886.65	20001
886.775	20035
886.9	20221
887.025	20343
887.149	20199
887.274	19974
887.399	19864
887.523	19887
887.648	19837
887.773	19830
887.897	19993
888.021	19879
888.146	19868
888.27	20016
888.395	19989
888.519	19989
888.643	19841
888.767	19989
888.891	19849
889.015	19734
889.139	19791
889.263	19704
889.387	19715
889.511	19830
889.635	19856
889.759	19639
889.883	19769
890.006	19799
890.13	19841
890.254	19662
890.377	19605
890.501	19537
890.624	19483
890.748	19331
890.871	19316
890.995	19274
891.118	19209
891.241	19282
891.364	19457
891.488	19388
891.611	19346
891.734	19346
891.857	19350
891.98	19388
892.103	19415
892.226	19384
892.349	19289
892.471	19141
892.594	19259
892.717	19259
892.839	19217
892.962	19301
893.085	19415
893.207	19209
893.33	19141
893.452	19122
893.575	19236
893.697	19137
893.819	19331
893.941	19445
894.064	19419
894.186	19221
894.308	19206
894.43	19388
894.552	19426
894.674	19335
894.796	19171
894.918	19274
895.04	19202
895.161	19251
895.283	19327
895.405	19183
895.526	19251
895.648	19285
895.769	19270
895.891	19187
896.012	19381
896.134	19228
896.255	19255
896.376	19266
896.498	19168
896.619	19190
896.74	19316
896.861	19297
896.982	19662
897.103	19609
897.224	19487
897.345	19438
897.466	19453
897.587	19460
897.708	19586
897.828	19392
897.949	19468
898.07	19316
898.19	19384
898.311	19586
898.431	19460
898.552	19533
898.672	19556
898.792	19449
898.913	19544
899.033	19388
899.153	19274
899.273	19152
899.393	19221
899.513	19278
899.633	19263
899.753	19331
899.873	19202
899.993	19251
900.113	19236
900.232	19126
900.352	19129
900.472	19110
900.591	18966
900.711	19061
900.83	19027
900.95	19129
901.069	19103
901.189	18973
901.308	18715
901.427	18563
901.546	18658
901.665	18593
901.784	18654
901.904	18517
902.023	18433
902.141	18224
902.26	18216
902.379	18194
902.498	18239
902.617	18171
902.735	18148
902.854	17992
902.973	18072
903.091	17893
903.21	17935
903.328	17741
903.446	17745
903.565	17707
903.683	17707
903.801	17486
903.919	17592
904.038	17615
904.156	17474
904.274	17387
904.392	17417
904.51	17452
904.627	17345
904.745	17395
904.863	17421
904.981	17132
905.098	17159
905.216	17037
905.334	17147
905.451	17124
905.569	17025
905.686	17178
905.803	17083
905.921	16923
906.038	17048
906.155	16930
906.272	16778
906.389	16786
906.506	16618
906.623	16630
906.74	16554
906.857	16493
906.974	16561
907.091	16687
907.208	16778
907.324	16767
907.441	16493
907.557	16265
907.674	16360
907.79	16276
907.907	16287
908.023	16371
908.139	16413
908.256	16375
908.372	16272
908.488	16120
908.604	16067
908.72	16051
908.836	16139
908.952	16086
909.068	16131
909.184	16063
909.3	16082
909.415	16040
909.531	16169
909.647	15793
909.762	15812
909.878	15724
909.993	15762
910.108	15831
910.224	15770
910.339	15713
910.454	15717
910.57	15622
910.685	15542
910.8	15857
910.915	15698
911.03	15595
911.145	15386
911.259	15435
911.374	15378
911.489	15325
911.604	15268
911.718	15093
911.833	15188
911.947	15142
912.062	14986
912.176	15180
912.291	15146
912.405	15359
912.519	15340
912.633	15367
912.748	15188
912.862	15062
912.976	15028
913.09	15001
913.204	14929
913.318	14921
913.431	15077
913.545	15062
913.659	15017
913.772	14914
913.886	14785
914	14769
914.113	14982
914.226	14883
914.34	14929
914.453	14762
914.566	14868
914.68	14720
914.793	14670
914.906	14431
915.019	14522
915.132	14377
915.245	14393
915.358	14366
915.47	14423
915.583	14415
915.696	14480
915.809	14518
915.921	14552
916.034	14396
916.146	14324
916.259	14256
916.371	14454
916.483	14294
916.595	14328
916.708	14408
916.82	14320
916.932	14229
917.044	14206
917.156	14248
917.268	14172
917.38	14077
917.491	14123
917.603	14092
917.715	14187
917.826	14153
917.938	14020
918.049	13898
918.161	14187
918.272	14161
918.384	14202
918.495	13974
918.606	13883
918.717	13784
918.828	13833
918.939	13925
919.05	13670
919.161	13852
919.272	13647
919.383	13791
919.494	13875
919.604	14073
919.715	13902
919.826	13780
919.936	13887
920.047	13898
920.157	13932
920.267	14142
920.378	13963
920.488	13799
920.598	13989
920.708	14210
920.818	14005
920.928	14096
921.038	14187
921.148	14161
921.258	13852
921.368	13750
921.477	13620
921.587	13636
921.697	13483
921.806	13578
921.916	13411
922.025	13297
922.134	13312
922.244	13107
922.353	13282
922.462	13046
922.571	13103
922.68	12882
922.789	12890
922.898	12981
923.007	12901
923.116	12996
923.224	12856
923.333	12909
923.442	12810
923.55	12749
923.659	12798
923.767	12768
923.876	12658
923.984	12802
924.092	12681
924.201	12696
924.309	12658
924.417	12688
924.525	12513
924.633	12654
924.741	13514
924.849	12353
924.956	12521
925.064	12418
925.172	12334
925.279	12292
925.387	12372
925.494	12395
925.602	12445
925.709	12426
925.816	12262
925.924	12247
926.031	12422
926.138	12334
926.245	12273
926.352	12281
926.459	12399
926.566	12388
926.673	12247
926.779	12102
926.886	12091
926.993	11988
927.099	11958
927.206	11961
927.312	11866
927.419	12038
927.525	11992
927.631	12053
927.737	11866
927.843	11752
927.95	11668
928.056	11756
928.162	11775
928.267	11870
928.373	12437
928.479	11836
928.585	11619
928.69	11691
928.796	11707
928.901	11566
929.007	11452
929.112	11646
929.218	11661
929.323	11528
929.428	11474
929.533	11665
929.638	11554
929.743	11452
929.848	11532
929.953	11417
930.058	11478
930.163	11216
930.267	11246
930.372	11448
930.477	11155
930.581	11376
930.685	11258
930.79	11201
930.894	11185
930.998	11109
931.103	11181
931.207	10881
931.311	10759
931.415	10759
931.519	10558
931.623	10451
