Data from test_V78500241_164.txt Node
Date: Fri Mar 25 15:11:00 CST 2022
User: usil
Spectrometer: V785-0024
Trigger mode: 0
Integration Time (sec): 4.000000E-1
Scans to average: 1
Nonlinearity correction enabled: false
Boxcar width: 0
Storing dark spectrum: false
XAxis mode: Wavelengths
Number of Pixels in Spectrum: 1024
>>>>>Begin Spectral Data<<<<<
801.071	28029
801.214	27850
801.356	27770
801.499	27679
801.641	27412
801.783	27447
801.926	27557
802.068	27332
802.211	27348
802.353	27378
802.496	27154
802.638	27203
802.78	27131
802.923	26906
803.065	26971
803.208	26963
803.35	27112
803.492	27089
803.635	27093
803.777	27093
803.919	27211
804.061	27580
804.204	27237
804.346	27108
804.488	27013
804.63	27116
804.773	27020
804.915	27074
805.057	27184
805.199	27096
805.341	27150
805.483	27370
805.626	27291
805.768	27230
805.91	27245
806.052	27275
806.194	27157
806.336	27492
806.478	27150
806.62	27161
806.762	27176
806.904	27416
807.046	27701
807.188	27515
807.33	27648
807.472	27728
807.614	27614
807.756	27652
807.898	27519
808.04	27325
808.182	27245
808.324	27401
808.465	27443
808.607	27709
808.749	27622
808.891	27880
809.033	27907
809.174	27926
809.316	27762
809.458	27755
809.6	27625
809.741	27835
809.883	27869
810.025	27979
810.166	28010
810.308	27873
810.45	27953
810.591	27960
810.733	27808
810.875	27648
811.016	27583
811.158	27622
811.299	27701
811.441	27770
811.582	27804
811.724	27694
811.865	27610
812.007	27667
812.148	27709
812.29	27739
812.431	27991
812.573	28135
812.714	28158
812.855	28238
812.997	28257
813.138	28367
813.279	28291
813.421	28230
813.562	28196
813.703	28158
813.845	27926
813.986	27614
814.127	27481
814.268	27416
814.41	27256
814.551	27344
814.692	27359
814.833	27393
814.974	27252
815.115	27351
815.256	27024
815.397	27180
815.539	27173
815.68	27188
815.821	26944
815.962	27169
816.103	27100
816.244	27013
816.385	26815
816.526	26815
816.666	26644
816.807	26549
816.948	26552
817.089	26674
817.23	26419
817.371	26560
817.512	26419
817.653	26488
817.793	26598
817.934	26442
818.075	26499
818.216	26453
818.356	26377
818.497	26552
818.638	26077
818.778	26263
818.919	26050
819.06	26366
819.2	26370
819.341	26423
819.481	26492
819.622	26556
819.762	26708
819.903	26735
820.043	26590
820.184	26488
820.324	26427
820.465	26682
820.605	26686
820.746	26415
820.886	26332
821.026	26461
821.167	26507
821.307	26404
821.447	26374
821.588	26259
821.728	26229
821.868	25982
822.008	25845
822.149	25898
822.289	25807
822.429	25655
822.569	25662
822.709	25582
822.849	25263
822.99	25331
823.13	25346
823.27	25148
823.41	25266
823.55	25110
823.69	25118
823.83	25080
823.97	25156
824.11	24882
824.25	24973
824.389	24989
824.529	24973
824.669	24970
824.809	25042
824.949	24943
825.089	25019
825.228	24989
825.368	24760
825.508	24837
825.648	24703
825.787	24848
825.927	24916
826.067	24700
826.206	24692
826.346	24719
826.485	24730
826.625	24783
826.765	24825
826.904	24753
827.044	24426
827.183	24452
827.323	24426
827.462	24479
827.601	24399
827.741	24289
827.88	24448
828.02	24251
828.159	24410
828.298	24460
828.437	24578
828.577	24205
828.716	24559
828.855	24429
828.994	24140
829.134	24076
829.273	24140
829.412	24106
829.551	24034
829.69	24079
829.829	24121
829.968	24087
830.107	24209
830.246	24087
830.385	24060
830.524	24057
830.663	23866
830.802	23672
830.941	23638
831.08	23748
831.219	23794
831.357	23733
831.496	23847
831.635	23657
831.774	23604
831.913	23535
832.051	23433
832.19	23425
832.329	23509
832.467	23433
832.606	23353
832.744	23433
832.883	23296
833.022	23395
833.16	23376
833.299	23292
833.437	23429
833.576	23455
833.714	23459
833.852	23395
833.991	23474
834.129	23566
834.267	23463
834.406	23376
834.544	23406
834.682	23277
834.821	23299
834.959	23467
835.097	23284
835.235	23421
835.373	23395
835.511	23341
835.65	23162
835.788	23147
835.926	23079
836.064	23048
836.202	23003
836.34	23239
836.478	23261
836.615	23098
836.753	23128
836.891	23296
837.029	23170
837.167	23128
837.305	23094
837.443	22976
837.58	23006
837.718	23044
837.856	23056
837.993	22987
838.131	23090
838.269	23029
838.406	22949
838.544	22896
838.681	22554
838.819	22599
838.956	22428
839.094	22341
839.231	22538
839.369	22691
839.506	22938
839.643	22755
839.781	22409
839.918	22409
840.055	22481
840.193	22440
840.33	22360
840.467	22344
840.604	22432
840.742	22645
840.879	22272
841.016	22223
841.153	22287
841.29	22440
841.427	22409
841.564	22379
841.701	22390
841.838	22348
841.975	22405
842.112	22238
842.249	22185
842.385	22074
842.522	22280
842.659	22154
842.796	22051
842.933	22139
843.069	22044
843.206	21964
843.343	22128
843.479	22143
843.616	22078
843.752	21850
843.889	21838
844.025	22067
844.162	21895
844.298	21918
844.435	21812
844.571	21732
844.708	21873
844.844	21945
844.98	21998
845.117	21880
845.253	21755
845.389	21599
845.525	21797
845.661	21663
845.798	21534
845.934	21488
846.07	21481
846.206	21622
846.342	21724
846.478	21515
846.614	21306
846.75	21214
846.886	21233
847.022	21412
847.158	21294
847.294	21344
847.429	21233
847.565	21279
847.701	21481
847.837	20975
847.972	21013
848.108	21089
848.244	21028
848.379	20948
848.515	20781
848.65	20834
848.786	20868
848.921	20864
849.057	21066
849.192	21013
849.328	20887
849.463	20979
849.598	20785
849.734	20667
849.869	20762
850.004	20640
850.14	20602
850.275	20583
850.41	20541
850.545	20503
850.68	20644
850.815	20598
850.95	20530
851.085	20693
851.22	20735
851.355	20568
851.49	20655
851.625	20739
851.76	20602
851.895	20476
852.03	20469
852.165	20488
852.299	20594
852.434	20549
852.569	20644
852.703	20541
852.838	20655
852.973	20701
853.107	20670
853.242	20663
853.376	20404
853.511	20298
853.645	20366
853.78	20465
853.914	20381
854.048	20328
854.183	20450
854.317	20374
854.451	20545
854.585	20377
854.72	20385
854.854	20541
854.988	20328
855.122	20438
855.256	20248
855.39	20313
855.524	20473
855.658	20450
855.792	20355
855.926	20415
856.06	20400
856.194	20564
856.327	20339
856.461	20381
856.595	20415
856.729	20313
856.862	20438
856.996	20461
857.13	20442
857.263	20362
857.397	20385
857.53	20415
857.664	20492
857.797	20492
857.931	20514
858.064	20442
858.197	20533
858.331	20370
858.464	20271
858.597	20309
858.731	20385
858.864	20309
858.997	20374
859.13	20351
859.263	20370
859.396	20336
859.529	20248
859.662	20442
859.795	20412
859.928	20457
860.061	20446
860.194	20476
860.327	20404
860.46	20370
860.592	20484
860.725	20484
860.858	20492
860.99	20427
861.123	20290
861.256	20290
861.388	20233
861.521	21028
861.653	20320
861.786	20248
861.918	20202
862.05	20305
862.183	20400
862.315	20461
862.447	20427
862.58	20252
862.712	20142
862.844	20168
862.976	20103
863.108	20119
863.24	20404
863.372	19917
863.504	19982
863.636	20100
863.768	20073
863.9	20001
864.032	19898
864.164	20054
864.296	20054
864.428	20115
864.559	19970
864.691	20210
864.823	20092
864.954	20107
865.086	19894
865.217	20012
865.349	19784
865.48	19951
865.612	19887
865.743	20016
865.875	19986
866.006	19967
866.137	20035
866.269	19909
866.4	19967
866.531	19883
866.662	19856
866.793	19879
866.924	19887
867.055	19970
867.186	19875
867.317	19795
867.448	19807
867.579	19917
867.71	19868
867.841	19746
867.972	19814
868.103	19898
868.233	19925
868.364	19986
868.495	20138
868.625	20005
868.756	20252
868.886	19989
869.017	20115
869.147	20282
869.278	20275
869.408	20214
869.539	20149
869.669	20183
869.799	20210
869.929	20248
870.06	20271
870.19	20530
870.32	20381
870.45	20438
870.58	20431
870.71	20708
870.84	20606
870.97	20579
871.1	20571
871.23	20731
871.36	20819
871.489	20629
871.619	20552
871.749	20731
871.879	20689
872.008	20765
872.138	20602
872.267	20705
872.397	20705
872.526	20473
872.656	20549
872.785	20602
872.915	20613
873.044	20762
873.173	20754
873.303	20769
873.432	20716
873.561	20857
873.69	20765
873.819	20902
873.948	20819
874.077	20743
874.206	20689
874.335	20872
874.464	20838
874.593	20944
874.722	20952
874.851	21001
874.979	21070
875.108	21055
875.237	20990
875.365	20834
875.494	20956
875.623	21074
875.751	20971
875.88	21104
876.008	21211
876.136	21116
876.265	21397
876.393	21511
876.521	21488
876.65	21473
876.778	21405
876.906	21412
877.034	21450
877.162	21405
877.29	21306
877.418	21306
877.546	21386
877.674	21321
877.802	21412
877.93	21408
878.058	21245
878.185	21272
878.313	21359
878.441	21336
878.568	21165
878.696	21412
878.824	21325
878.951	21507
879.079	21679
879.206	21652
879.333	21591
879.461	21538
879.588	21435
879.715	21576
879.842	21770
879.97	21530
880.097	21188
880.224	21138
880.351	21291
880.478	21188
880.605	21180
880.732	21230
880.859	21408
880.986	21127
881.112	21230
881.239	21157
881.366	20933
881.493	20967
881.619	20838
881.746	20769
881.872	20819
881.999	20800
882.125	20750
882.252	20918
882.378	20724
882.505	20891
882.631	20590
882.757	20670
882.883	20583
883.01	20640
883.136	20571
883.262	20366
883.388	20408
883.514	20644
883.64	20583
883.766	20499
883.892	20355
884.018	20415
884.143	20552
884.269	20697
884.395	20282
884.52	20332
884.646	20187
884.772	20096
884.897	20176
885.023	20176
885.148	20275
885.274	20290
885.399	20168
885.524	20164
885.65	20214
885.775	20199
885.9	20058
886.025	20305
886.15	20191
886.275	20210
886.4	20115
886.525	20107
886.65	20107
886.775	20081
886.9	20355
887.025	20309
887.149	20115
887.274	20001
887.399	19883
887.523	19951
887.648	19913
887.773	19799
887.897	19978
888.021	19928
888.146	19944
888.27	19997
888.395	20073
888.519	19993
888.643	19951
888.767	20039
888.891	19890
889.015	19643
889.139	19852
889.263	19620
889.387	19750
889.511	19906
889.635	19864
889.759	19700
889.883	19807
890.006	19776
890.13	19784
890.254	19635
890.377	19613
890.501	19464
890.624	19312
890.748	19514
890.871	19369
890.995	19350
891.118	19164
891.241	19293
891.364	19282
891.488	19464
891.611	19304
891.734	19350
891.857	19487
891.98	19320
892.103	19419
892.226	19255
892.349	19209
892.471	19091
892.594	19160
892.717	19198
892.839	19228
892.962	19263
893.085	19251
893.207	19270
893.33	19225
893.452	19282
893.575	19255
893.697	19175
893.819	19308
893.941	19430
894.064	19324
894.186	19118
894.308	19148
894.43	19369
894.552	19377
894.674	19320
894.796	19209
894.918	19187
895.04	19175
895.161	19278
895.283	19293
895.405	19183
895.526	19259
895.648	19289
895.769	19236
895.891	19346
896.012	19343
896.134	19278
896.255	19209
896.376	19244
896.498	19251
896.619	19343
896.74	19263
896.861	19392
896.982	19556
897.103	19693
897.224	19605
897.345	19571
897.466	19476
897.587	19601
897.708	19590
897.828	19609
897.949	19362
898.07	19171
898.19	19464
898.311	19586
898.431	19506
898.552	19491
898.672	19453
898.792	19540
898.913	19472
899.033	19407
899.153	19202
899.273	19114
899.393	19225
899.513	19202
899.633	19202
899.753	19175
899.873	19168
899.993	19282
900.113	19187
900.232	19221
900.352	19213
900.472	19141
900.591	19038
900.711	18989
900.83	18985
900.95	19129
901.069	18947
901.189	19019
901.308	18722
901.427	18692
901.546	18696
901.665	18688
901.784	18601
901.904	18467
902.023	18479
902.141	18163
902.26	18133
902.379	18266
902.498	18117
902.617	18053
902.735	18133
902.854	18117
902.973	18186
903.091	17821
903.21	17824
903.328	17779
903.446	17710
903.565	17581
903.683	17562
903.801	17547
903.919	17585
904.038	17608
904.156	17448
904.274	17372
904.392	17372
904.51	17376
904.627	17478
904.745	17425
904.863	17395
904.981	17242
905.098	16968
905.216	17052
905.334	17086
905.451	17014
905.569	17025
905.686	17094
905.803	17067
905.921	16866
906.038	16957
906.155	16816
906.272	16805
906.389	16653
906.506	16618
906.623	16546
906.74	16649
906.857	16523
906.974	16466
907.091	16622
907.208	16721
907.324	16580
907.441	16558
907.557	16379
907.674	16242
907.79	16192
907.907	16314
908.023	16265
908.139	16344
908.256	16226
908.372	16204
908.488	16166
908.604	16063
908.72	15964
908.836	15998
908.952	15915
909.068	16051
909.184	16090
909.3	15991
909.415	16021
909.531	16040
909.647	15785
909.762	15713
909.878	15595
909.993	15755
910.108	15732
910.224	15629
910.339	15694
910.454	15603
910.57	15576
910.685	15405
910.8	15705
910.915	15694
911.03	15485
911.145	15317
911.259	15397
911.374	15443
911.489	15291
911.604	15169
911.718	15009
911.833	15055
911.947	14921
912.062	14868
912.176	14990
912.291	14956
912.405	15013
912.519	15169
912.633	15310
912.748	15180
912.862	14956
912.976	14857
913.09	14773
913.204	14815
913.318	14796
913.431	15009
913.545	15024
913.659	14998
913.772	14804
913.886	14754
914	14667
914.113	14807
914.226	14750
914.34	14758
914.453	14499
914.566	14708
914.68	14613
914.793	14621
914.906	14358
915.019	14400
915.132	14267
915.245	14286
915.358	14328
915.47	14396
915.583	14271
915.696	14336
915.809	14526
915.921	14438
916.034	14263
916.146	14221
916.259	14271
916.371	14358
916.483	14309
916.595	14100
916.708	14259
916.82	14233
916.932	14084
917.044	14107
917.156	14065
917.268	13928
917.38	13993
917.491	13909
917.603	14035
917.715	14058
917.826	14103
917.938	13909
918.049	13860
918.161	14043
918.272	14111
918.384	14065
918.495	13951
918.606	13791
918.717	13666
918.828	13818
918.939	13780
919.05	13643
919.161	13670
919.272	13563
919.383	13677
919.494	13696
919.604	13944
919.715	13734
919.826	13677
919.936	13666
920.047	13734
920.157	13696
920.267	13856
920.378	13734
920.488	13719
920.598	13784
920.708	14050
920.818	13887
920.928	13849
921.038	13989
921.148	14027
921.258	13651
921.368	13578
921.477	13556
921.587	13453
921.697	13400
921.806	13510
921.916	13308
922.025	13164
922.134	13206
922.244	13084
922.353	13107
922.462	12924
922.571	12837
922.68	12848
922.789	12631
922.898	12772
923.007	12734
923.116	12791
923.224	12764
923.333	12734
923.442	12604
923.55	12593
923.659	12616
923.767	12669
923.876	12631
923.984	12608
924.092	12483
924.201	12502
924.309	12509
924.417	12414
924.525	12490
924.633	12502
924.741	13171
924.849	12315
924.956	12334
925.064	12251
925.172	12136
925.279	12148
925.387	12216
925.494	12247
925.602	12304
925.709	12292
925.816	12205
925.924	12171
926.031	12270
926.138	12175
926.245	12216
926.352	12098
926.459	12235
926.566	12258
926.673	12087
926.779	12026
926.886	11999
926.993	11897
927.099	11843
927.206	11813
927.312	11737
927.419	11866
927.525	11832
927.631	11718
927.737	11729
927.843	11649
927.95	11547
928.056	11676
928.162	11665
928.267	11691
928.373	12224
928.479	11699
928.585	11524
928.69	11577
928.796	11638
928.901	11551
929.007	11311
929.112	11505
929.218	11505
929.323	11444
929.428	11368
929.533	11448
929.638	11288
929.743	11292
929.848	11387
929.953	11322
930.058	11292
930.163	11136
930.267	11029
930.372	11166
930.477	11025
930.581	11292
930.685	11170
930.79	10927
930.894	10976
930.998	10934
931.103	11025
931.207	10672
931.311	10645
931.415	10546
931.519	10352
931.623	10352
