Data from test_V78500241_2559.txt Node
Date: Fri Mar 25 15:27:40 CST 2022
User: usil
Spectrometer: V785-0024
Trigger mode: 0
Integration Time (sec): 4.000000E-1
Scans to average: 1
Nonlinearity correction enabled: false
Boxcar width: 0
Storing dark spectrum: false
XAxis mode: Wavelengths
Number of Pixels in Spectrum: 1024
>>>>>Begin Spectral Data<<<<<
801.071	27306
801.214	27287
801.356	26952
801.499	26940
801.641	26842
801.783	26960
801.926	26853
802.068	26861
802.211	26743
802.353	26606
802.496	26518
802.638	26427
802.78	26469
802.923	26370
803.065	26351
803.208	26503
803.35	26476
803.492	26571
803.635	26667
803.777	26503
803.919	26632
804.061	27005
804.204	26739
804.346	26617
804.488	26533
804.63	26682
804.773	26526
804.915	26541
805.057	26746
805.199	26583
805.341	26655
805.483	26796
805.626	26716
805.768	26689
805.91	26769
806.052	26750
806.194	26708
806.336	26864
806.478	26792
806.62	26762
806.762	26929
806.904	26937
807.046	27176
807.188	27222
807.33	27214
807.472	27165
807.614	26982
807.756	27116
807.898	26971
808.04	26769
808.182	26940
808.324	27096
808.465	26979
808.607	27283
808.749	27340
808.891	27469
809.033	27504
809.174	27427
809.316	27211
809.458	27161
809.6	27363
809.741	27462
809.883	27420
810.025	27591
810.166	27842
810.308	27500
810.45	27511
810.591	27458
810.733	27348
810.875	27370
811.016	27108
811.158	27321
811.299	27458
811.441	27485
811.582	27405
811.724	27283
811.865	27355
812.007	27142
812.148	27332
812.29	27344
812.431	27488
812.573	27694
812.714	27762
812.855	27789
812.997	27895
813.138	28002
813.279	27876
813.421	27903
813.562	27747
813.703	27576
813.845	27641
813.986	27382
814.127	26929
814.268	27047
814.41	27009
814.551	26986
814.692	27066
814.833	26979
814.974	26918
815.115	26990
815.256	26845
815.397	26674
815.539	26849
815.68	26777
815.821	26712
815.962	26834
816.103	26701
816.244	26590
816.385	26686
816.526	26453
816.666	26423
816.807	26328
816.948	26362
817.089	26339
817.23	26328
817.371	26100
817.512	26298
817.653	26244
817.793	26221
817.934	26183
818.075	26263
818.216	26294
818.356	26282
818.497	26168
818.638	25849
818.778	26024
818.919	26024
819.06	26024
819.2	26050
819.341	26187
819.481	26282
819.622	26259
819.762	26507
819.903	26530
820.043	26358
820.184	26309
820.324	26320
820.465	26393
820.605	26339
820.746	26377
820.886	26240
821.026	26423
821.167	26339
821.307	26240
821.447	26248
821.588	26088
821.728	25955
821.868	25894
822.008	25689
822.149	25791
822.289	25738
822.429	25381
822.569	25247
822.709	25369
822.849	25266
822.99	25133
823.13	25198
823.27	25312
823.41	25145
823.55	25000
823.69	25251
823.83	24966
823.97	24977
824.11	24772
824.25	24821
824.389	24726
824.529	24848
824.669	24741
824.809	25053
824.949	24825
825.089	25000
825.228	24871
825.368	24837
825.508	24692
825.648	24707
825.787	24806
825.927	24707
826.067	24703
826.206	24753
826.346	24738
826.485	24833
826.625	24764
826.765	24825
826.904	24745
827.044	24452
827.183	24505
827.323	24380
827.462	24509
827.601	24483
827.741	24380
827.88	24334
828.02	24327
828.159	24353
828.298	24467
828.437	24494
828.577	24479
828.716	24582
828.855	24365
828.994	24194
829.134	24140
829.273	24163
829.412	24106
829.551	24034
829.69	24174
829.829	24155
829.968	24186
830.107	24216
830.246	24182
830.385	24102
830.524	24011
830.663	23828
830.802	23882
830.941	23684
831.08	23760
831.219	23840
831.357	23866
831.496	23904
831.635	23703
831.774	23726
831.913	23653
832.051	23589
832.19	23573
832.329	23608
832.467	23554
832.606	23448
832.744	23368
832.883	23376
833.022	23330
833.16	23524
833.299	23551
833.437	23455
833.576	23497
833.714	23577
833.852	23611
833.991	23520
834.129	23619
834.267	23676
834.406	23543
834.544	23600
834.682	23421
834.821	23600
834.959	23657
835.097	23478
835.235	23585
835.373	23531
835.511	23520
835.65	23455
835.788	23410
835.926	23273
836.064	23227
836.202	23193
836.34	23398
836.478	23509
836.615	23398
836.753	23330
836.891	23471
837.029	23414
837.167	23387
837.305	23212
837.443	23315
837.58	23235
837.718	23242
837.856	23246
837.993	23273
838.131	23155
838.269	23143
838.406	23132
838.544	23140
838.681	22873
838.819	22801
838.956	22721
839.094	22755
839.231	22729
839.369	22869
839.506	23147
839.643	22805
839.781	22744
839.918	22698
840.055	22733
840.193	22672
840.33	22645
840.467	22618
840.604	22656
840.742	23029
840.879	22622
841.016	22561
841.153	22592
841.29	22740
841.427	22561
841.564	22694
841.701	22607
841.838	22557
841.975	22546
842.112	22466
842.249	22512
842.385	22466
842.522	22721
842.659	22626
842.796	22284
842.933	22363
843.069	22363
843.206	22356
843.343	22455
843.479	22382
843.616	22447
843.752	22314
843.889	22086
844.025	22428
844.162	21979
844.298	22367
844.435	22109
844.571	22226
844.708	22185
844.844	22322
844.98	22375
845.117	22238
845.253	22185
845.389	21987
845.525	22048
845.661	22090
845.798	21903
845.934	21937
846.07	21827
846.206	21934
846.342	22090
846.478	21911
846.614	21770
846.75	21614
846.886	21618
847.022	21827
847.158	21663
847.294	21743
847.429	21720
847.565	21625
847.701	21747
847.837	21412
847.972	21382
848.108	21553
848.244	21469
848.379	21321
848.515	21260
848.65	21283
848.786	21287
848.921	21169
849.057	21294
849.192	21317
849.328	21302
849.463	21230
849.598	21108
849.734	21165
849.869	21135
850.004	21062
850.14	21123
850.275	20941
850.41	20986
850.545	20971
850.68	21116
850.815	21020
850.95	20933
851.085	21230
851.22	20937
851.355	20921
851.49	21051
851.625	20937
851.76	20925
851.895	20906
852.03	20906
852.165	21127
852.299	21055
852.434	21032
852.569	21017
852.703	21013
852.838	21051
852.973	21135
853.107	21009
853.242	20872
853.376	20952
853.511	20781
853.645	20750
853.78	20929
853.914	20788
854.048	20746
854.183	20758
854.317	20861
854.451	21039
854.585	20880
854.72	20712
854.854	20902
854.988	20819
855.122	20758
855.256	20773
855.39	20800
855.524	20762
855.658	20967
855.792	20845
855.926	20811
856.06	20868
856.194	20849
856.327	20868
856.461	20716
856.595	20823
856.729	20872
856.862	20948
856.996	20834
857.13	20853
857.263	20880
857.397	20887
857.53	20887
857.664	20921
857.797	20887
857.931	20960
858.064	20891
858.197	20842
858.331	20826
858.464	20750
858.597	20792
858.731	20823
858.864	20792
858.997	20769
859.13	20826
859.263	20823
859.396	20872
859.529	20830
859.662	20708
859.795	20826
859.928	20807
860.061	21009
860.194	20952
860.327	20887
860.46	20792
860.592	20864
860.725	20933
860.858	21013
860.99	20857
861.123	20705
861.256	20838
861.388	20861
861.521	21466
861.653	20667
861.786	20594
861.918	20533
862.05	20727
862.183	20720
862.315	20861
862.447	20918
862.58	20781
862.712	20648
862.844	20469
862.976	20499
863.108	20526
863.24	21100
863.372	20602
863.504	20560
863.636	20461
863.768	20617
863.9	20533
864.032	20495
864.164	20560
864.296	20530
864.428	20724
864.559	20682
864.691	20716
864.823	20530
864.954	20571
865.086	20571
865.217	20465
865.349	20469
865.48	20381
865.612	20476
865.743	20659
865.875	20549
866.006	20415
866.137	20404
866.269	20484
866.4	20339
866.531	20332
866.662	20332
866.793	20461
866.924	20465
867.055	20385
867.186	20298
867.317	20298
867.448	20221
867.579	20187
867.71	20275
867.841	20347
867.972	20434
868.103	20328
868.233	20457
868.364	20484
868.495	20484
868.625	20590
868.756	20621
868.886	20568
869.017	20590
869.147	20712
869.278	20754
869.408	20609
869.539	20617
869.669	20667
869.799	20788
869.929	20724
870.06	20785
870.19	20952
870.32	20967
870.45	20971
870.58	21024
870.71	21157
870.84	21146
870.97	20967
871.1	21013
871.23	21192
871.36	21287
871.489	21157
871.619	21146
871.749	21207
871.879	21287
872.008	21389
872.138	21184
872.267	21123
872.397	21176
872.526	21085
872.656	21123
872.785	21096
872.915	21218
873.044	21287
873.173	21249
873.303	21294
873.432	21207
873.561	21408
873.69	21306
873.819	21264
873.948	21378
874.077	21241
874.206	21157
874.335	21298
874.464	21275
874.593	21507
874.722	21370
874.851	21580
874.979	21515
875.108	21538
875.237	21561
875.365	21458
875.494	21443
875.623	21568
875.751	21523
875.88	21553
876.008	21690
876.136	21690
876.265	21930
876.393	21960
876.521	21930
876.65	22135
876.778	21953
876.906	21812
877.034	21903
877.162	21918
877.29	21850
877.418	21823
877.546	21880
877.674	21915
877.802	21816
877.93	21888
878.058	21793
878.185	21656
878.313	21774
878.441	21911
878.568	21755
878.696	21770
878.824	21884
878.951	21953
879.079	22036
879.206	22261
879.333	21998
879.461	21907
879.588	21915
879.715	21964
879.842	22105
879.97	21884
880.097	21819
880.224	21759
880.351	21728
880.478	21610
880.605	21625
880.732	21682
880.859	22051
880.986	21720
881.112	21648
881.239	21568
881.366	21420
881.493	21420
881.619	21268
881.746	21332
881.872	21370
881.999	21142
882.125	21279
882.252	21203
882.378	21230
882.505	21408
882.631	21161
882.757	20883
882.883	20998
883.01	21077
883.136	20891
883.262	20796
883.388	20937
883.514	20967
883.64	20944
883.766	20899
883.892	20686
884.018	20754
884.143	20838
884.269	20826
884.395	20651
884.52	20575
884.646	20632
884.772	20640
884.897	20511
885.023	20678
885.148	20754
885.274	20655
885.399	20754
885.524	20537
885.65	20716
885.775	20651
885.9	20579
886.025	20746
886.15	20697
886.275	20492
886.4	20457
886.525	20587
886.65	20541
886.775	20564
886.9	20625
887.025	20811
887.149	20678
887.274	20393
887.399	20450
887.523	20434
887.648	20267
887.773	20237
887.897	20442
888.021	20484
888.146	20339
888.27	20431
888.395	20389
888.519	20358
888.643	20374
888.767	20438
888.891	20263
889.015	20157
889.139	20347
889.263	20164
889.387	20317
889.511	20313
889.635	20358
889.759	20244
889.883	20225
890.006	20050
890.13	20366
890.254	20046
890.377	20035
890.501	19909
890.624	19902
890.748	20073
890.871	19788
890.995	19685
891.118	19651
891.241	19776
891.364	19742
891.488	19936
891.611	19799
891.734	19784
891.857	19864
891.98	19898
892.103	19799
892.226	19799
892.349	19605
892.471	19457
892.594	19639
892.717	19708
892.839	19620
892.962	19666
893.085	19761
893.207	19708
893.33	19578
893.452	19575
893.575	19685
893.697	19658
893.819	19784
893.941	19913
894.064	19807
894.186	19658
894.308	19666
894.43	19852
894.552	19791
894.674	19624
894.796	19674
894.918	19544
895.04	19605
895.161	19677
895.283	19727
895.405	19556
895.526	19632
895.648	19666
895.769	19708
895.891	19632
896.012	19776
896.134	19780
896.255	19658
896.376	19696
896.498	19658
896.619	19662
896.74	19712
896.861	19674
896.982	20005
897.103	20119
897.224	19959
897.345	19906
897.466	19807
897.587	19852
897.708	20043
897.828	20043
897.949	19677
898.07	19788
898.19	19811
898.311	19951
898.431	19936
898.552	19852
898.672	19967
898.792	20005
898.913	19974
899.033	19807
899.153	19814
899.273	19567
899.393	19658
899.513	19647
899.633	19609
899.753	19674
899.873	19502
899.993	19693
900.113	19556
900.232	19734
900.352	19609
900.472	19434
900.591	19464
900.711	19540
900.83	19369
900.95	19449
901.069	19655
901.189	19289
901.308	19031
901.427	18958
901.546	19031
901.665	18989
901.784	18962
901.904	18878
902.023	18810
902.141	18582
902.26	18471
902.379	18551
902.498	18532
902.617	18544
902.735	18566
902.854	18547
902.973	18441
903.091	18228
903.21	18201
903.328	18228
903.446	18144
903.565	18064
903.683	18129
903.801	17916
903.919	18049
904.038	17950
904.156	17843
904.274	17859
904.392	17783
904.51	17866
904.627	17859
904.745	17798
904.863	17783
904.981	17630
905.098	17532
905.216	17455
905.334	17566
905.451	17585
905.569	17425
905.686	17478
905.803	17444
905.921	17303
906.038	17345
906.155	17200
906.272	17204
906.389	17189
906.506	17064
906.623	16987
906.74	16984
906.857	16965
906.974	16984
907.091	17155
907.208	17174
907.324	17086
907.441	16847
907.557	16752
907.674	16755
907.79	16710
907.907	16755
908.023	16763
908.139	16694
908.256	16713
908.372	16596
908.488	16592
908.604	16523
908.72	16443
908.836	16474
908.952	16485
909.068	16592
909.184	16607
909.3	16413
909.415	16527
909.531	16447
909.647	16272
909.762	16242
909.878	16109
909.993	16177
910.108	16147
910.224	16086
910.339	16143
910.454	16116
910.57	15953
910.685	15922
910.8	16265
910.915	16109
911.03	15979
911.145	15854
911.259	15755
911.374	15789
911.489	15739
911.604	15686
911.718	15485
911.833	15553
911.947	15450
912.062	15428
912.176	15591
912.291	15587
912.405	15584
912.519	15751
912.633	15736
912.748	15557
912.862	15466
912.976	15336
913.09	15252
913.204	15199
913.318	15431
913.431	15500
913.545	15332
913.659	15420
913.772	15279
913.886	15241
914	15211
914.113	15184
914.226	15180
914.34	15104
914.453	15119
914.566	15157
914.68	14960
914.793	14979
914.906	14845
915.019	14796
915.132	14708
915.245	14785
915.358	14712
915.47	14663
915.583	14785
915.696	14769
915.809	14891
915.921	14861
916.034	14750
916.146	14541
916.259	14594
916.371	14754
916.483	14708
916.595	14606
916.708	14579
916.82	14575
916.932	14556
917.044	14579
917.156	14522
917.268	14381
917.38	14419
917.491	14377
917.603	14465
917.715	14530
917.826	14473
917.938	14412
918.049	14252
918.161	14328
918.272	14476
918.384	14541
918.495	14427
918.606	14343
918.717	14142
918.828	14202
918.939	14271
919.05	14054
919.161	14153
919.272	13978
919.383	14031
919.494	14172
919.604	14419
919.715	14282
919.826	14027
919.936	14157
920.047	14313
920.157	14199
920.267	14374
920.378	14183
920.488	14119
920.598	14278
920.708	14514
920.818	14267
920.928	14202
921.038	14492
921.148	14476
921.258	14176
921.368	13982
921.477	13944
921.587	13894
921.697	13734
921.806	13928
921.916	13826
922.025	13578
922.134	13578
922.244	13476
922.353	13597
922.462	13472
922.571	13396
922.68	13255
922.789	13251
922.898	13198
923.007	13160
923.116	13270
923.224	13168
923.333	13126
923.442	13038
923.55	13050
923.659	13046
923.767	13129
923.876	12951
923.984	13118
924.092	12977
924.201	12935
924.309	13004
924.417	12947
924.525	12867
924.633	12859
924.741	13856
924.849	12753
924.956	12875
925.064	12700
925.172	12585
925.279	12563
925.387	12749
925.494	12646
925.602	12760
925.709	12730
925.816	12566
925.924	12559
926.031	12639
926.138	12544
926.245	12677
926.352	12467
926.459	12574
926.566	12696
926.673	12456
926.779	12414
926.886	12369
926.993	12262
927.099	12224
927.206	12216
927.312	12144
927.419	12247
927.525	12201
927.631	12175
927.737	12110
927.843	12030
927.95	11973
928.056	12133
928.162	12045
928.267	12003
928.373	12681
928.479	12117
928.585	11912
928.69	12003
928.796	12030
928.901	11977
929.007	11771
929.112	11847
929.218	11920
929.323	11855
929.428	11794
929.533	11847
929.638	11695
929.743	11672
929.848	11760
929.953	11767
930.058	11726
930.163	11444
930.267	11551
930.372	11646
930.477	11273
930.581	11688
930.685	11520
930.79	11330
930.894	11417
930.998	11345
931.103	11493
931.207	11083
931.311	11056
931.415	10976
931.519	10782
931.623	10801
