Data from test_V78500241_2943.txt Node
Date: Fri Mar 25 15:30:21 CST 2022
User: usil
Spectrometer: V785-0024
Trigger mode: 0
Integration Time (sec): 4.000000E-1
Scans to average: 1
Nonlinearity correction enabled: false
Boxcar width: 0
Storing dark spectrum: false
XAxis mode: Wavelengths
Number of Pixels in Spectrum: 1024
>>>>>Begin Spectral Data<<<<<
801.071	27051
801.214	27036
801.356	26948
801.499	26819
801.641	26735
801.783	26746
801.926	26731
802.068	26705
802.211	26621
802.353	26629
802.496	26393
802.638	26389
802.78	26305
802.923	26229
803.065	26187
803.208	26142
803.35	26294
803.492	26381
803.635	26358
803.777	26377
803.919	26511
804.061	26743
804.204	26476
804.346	26404
804.488	26320
804.63	26503
804.773	26377
804.915	26446
805.057	26492
805.199	26393
805.341	26457
805.483	26621
805.626	26549
805.768	26461
805.91	26632
806.052	26617
806.194	26453
806.336	26712
806.478	26457
806.62	26545
806.762	26739
806.904	26872
807.046	27127
807.188	26880
807.33	27077
807.472	27001
807.614	26895
807.756	26956
807.898	26788
808.04	26777
808.182	26857
808.324	26883
808.465	26849
808.607	27001
808.749	27199
808.891	27260
809.033	27374
809.174	27367
809.316	27241
809.458	27096
809.6	27047
809.741	27329
809.883	27386
810.025	27576
810.166	27473
810.308	27405
810.45	27447
810.591	27477
810.733	27131
810.875	27180
811.016	26982
811.158	27131
811.299	27203
811.441	27245
811.582	27374
811.724	27165
811.865	27104
812.007	27241
812.148	27195
812.29	27180
812.431	27344
812.573	27504
812.714	27652
812.855	27618
812.997	27800
813.138	27907
813.279	27755
813.421	27694
813.562	27587
813.703	27351
813.845	27332
813.986	27051
814.127	27009
814.268	26735
814.41	26796
814.551	26990
814.692	26838
814.833	26712
814.974	26952
815.115	26796
815.256	26674
815.397	26629
815.539	26697
815.68	26632
815.821	26545
815.962	26560
816.103	26575
816.244	26366
816.385	26328
816.526	26377
816.666	26259
816.807	26046
816.948	26176
817.089	26081
817.23	25997
817.371	26005
817.512	26145
817.653	26035
817.793	26046
817.934	25974
818.075	26001
818.216	26024
818.356	26062
818.497	25761
818.638	25818
818.778	25822
818.919	25818
819.06	25917
819.2	26153
819.341	26065
819.481	26062
819.622	26187
819.762	26343
819.903	26438
820.043	26233
820.184	26164
820.324	26100
820.465	26259
820.605	26214
820.746	26206
820.886	25936
821.026	26164
821.167	25993
821.307	26161
821.447	26054
821.588	26065
821.728	25814
821.868	25567
822.008	25510
822.149	25487
822.289	25441
822.429	25213
822.569	25217
822.709	25244
822.849	25088
822.99	25095
823.13	24878
823.27	24772
823.41	24779
823.55	24722
823.69	24848
823.83	24852
823.97	24776
824.11	24661
824.25	24490
824.389	24631
824.529	24768
824.669	24677
824.809	24810
824.949	24730
825.089	24772
825.228	24555
825.368	24540
825.508	24479
825.648	24494
825.787	24384
825.927	24555
826.067	24464
826.206	24399
826.346	24486
826.485	24505
826.625	24464
826.765	24559
826.904	24589
827.044	24289
827.183	24441
827.323	24144
827.462	24106
827.601	24117
827.741	24144
827.88	24148
828.02	24144
828.159	24072
828.298	24174
828.437	24254
828.577	24114
828.716	24243
828.855	24072
828.994	24022
829.134	23969
829.273	23996
829.412	23882
829.551	23836
829.69	23847
829.829	24022
829.968	23980
830.107	23939
830.246	23863
830.385	23836
830.524	23802
830.663	23756
830.802	23608
830.941	23501
831.08	23448
831.219	23585
831.357	23646
831.496	23741
831.635	23448
831.774	23391
831.913	23292
832.051	23269
832.19	23178
832.329	23376
832.467	23292
832.606	23197
832.744	23223
832.883	23178
833.022	23159
833.16	23159
833.299	23208
833.437	23056
833.576	23299
833.714	23128
833.852	23376
833.991	23258
834.129	23261
834.267	23220
834.406	23261
834.544	23296
834.682	23220
834.821	23318
834.959	23395
835.097	23117
835.235	23448
835.373	23288
835.511	23117
835.65	23132
835.788	23094
835.926	23064
836.064	22850
836.202	22824
836.34	23060
836.478	23060
836.615	23071
836.753	23041
836.891	23041
837.029	23083
837.167	22987
837.305	22991
837.443	22892
837.58	22930
837.718	23056
837.856	22835
837.993	22771
838.131	22965
838.269	22782
838.406	22820
838.544	22717
838.681	22546
838.819	22371
838.956	22474
839.094	22402
839.231	22550
839.369	22485
839.506	22736
839.643	22603
839.781	22455
839.918	22295
840.055	22402
840.193	22394
840.33	22436
840.467	22363
840.604	22386
840.742	22622
840.879	22196
841.016	22348
841.153	22276
841.29	22242
841.427	22265
841.564	22295
841.701	22249
841.838	22303
841.975	22261
842.112	22234
842.249	22010
842.385	22059
842.522	22303
842.659	22147
842.796	22101
842.933	22097
843.069	21994
843.206	22059
843.343	22059
843.479	22059
843.616	22025
843.752	21831
843.889	21873
844.025	21983
844.162	21915
844.298	21903
844.435	21800
844.571	21755
844.708	21861
844.844	22051
844.98	22002
845.117	21880
845.253	21846
845.389	21660
845.525	21785
845.661	21694
845.798	21591
845.934	21591
846.07	21587
846.206	21564
846.342	21690
846.478	21614
846.614	21420
846.75	21294
846.886	21359
847.022	21386
847.158	21264
847.294	21412
847.429	21249
847.565	21230
847.701	21641
847.837	21066
847.972	20956
848.108	21165
848.244	21199
848.379	20929
848.515	20906
848.65	20887
848.786	20914
848.921	20998
849.057	21096
849.192	21032
849.328	20883
849.463	20979
849.598	20743
849.734	20811
849.869	20731
850.004	20689
850.14	20655
850.275	20746
850.41	20613
850.545	20648
850.68	20579
850.815	20617
850.95	20590
851.085	20857
851.22	20826
851.355	20674
851.49	20606
851.625	20571
851.76	20644
851.895	20556
852.03	20575
852.165	20640
852.299	20724
852.434	20823
852.569	20724
852.703	20815
852.838	20769
852.973	20815
853.107	20701
853.242	20545
853.376	20590
853.511	20419
853.645	20480
853.78	20594
853.914	20404
854.048	20465
854.183	20450
854.317	20564
854.451	20674
854.585	20461
854.72	20442
854.854	20545
854.988	20396
855.122	20545
855.256	20412
855.39	20415
855.524	20625
855.658	20549
855.792	20583
855.926	20492
856.06	20507
856.194	20526
856.327	20507
856.461	20412
856.595	20404
856.729	20476
856.862	20613
856.996	20484
857.13	20564
857.263	20571
857.397	20705
857.53	20537
857.664	20579
857.797	20587
857.931	20545
858.064	20621
858.197	20522
858.331	20495
858.464	20438
858.597	20412
858.731	20324
858.864	20454
858.997	20423
859.13	20541
859.263	20560
859.396	20526
859.529	20465
859.662	20511
859.795	20408
859.928	20579
860.061	20674
860.194	20663
860.327	20442
860.46	20549
860.592	20651
860.725	20648
860.858	20701
860.99	20507
861.123	20507
861.256	20457
861.388	20507
861.521	21013
861.653	20434
861.786	20267
861.918	20290
862.05	20389
862.183	20511
862.315	20309
862.447	20480
862.58	20454
862.712	20176
862.844	20282
862.976	20267
863.108	20176
863.24	20632
863.372	20202
863.504	20328
863.636	20164
863.768	20218
863.9	20225
864.032	20153
864.164	20229
864.296	20172
864.428	20320
864.559	20237
864.691	20320
864.823	20396
864.954	20202
865.086	20240
865.217	20054
865.349	20054
865.48	20039
865.612	20008
865.743	20221
865.875	20122
866.006	20084
866.137	20115
866.269	20183
866.4	20180
866.531	20187
866.662	20012
866.793	20077
866.924	20058
867.055	20046
867.186	20172
867.317	20035
867.448	19951
867.579	20005
867.71	20035
867.841	20058
867.972	20115
868.103	20096
868.233	20096
868.364	20122
868.495	20225
868.625	20309
868.756	20442
868.886	20358
869.017	20244
869.147	20412
869.278	20362
869.408	20282
869.539	20298
869.669	20427
869.799	20393
869.929	20488
870.06	20488
870.19	20636
870.32	20689
870.45	20750
870.58	20609
870.71	20785
870.84	20807
870.97	20697
871.1	20708
871.23	20807
871.36	20864
871.489	20849
871.619	20937
871.749	21039
871.879	20845
872.008	21039
872.138	20804
872.267	20788
872.397	20739
872.526	20731
872.656	20686
872.785	20743
872.915	20849
873.044	20921
873.173	20895
873.303	20944
873.432	20929
873.561	21043
873.69	20967
873.819	20963
873.948	20986
874.077	21020
874.206	20773
874.335	20929
874.464	20944
874.593	21222
874.722	21199
874.851	21264
874.979	21252
875.108	21123
875.237	21131
875.365	21104
875.494	21119
875.623	21207
875.751	21138
875.88	21173
876.008	21230
876.136	21348
876.265	21595
876.393	21857
876.521	21644
876.65	21625
876.778	21538
876.906	21462
877.034	21481
877.162	21473
877.29	21447
877.418	21583
877.546	21526
877.674	21511
877.802	21557
877.93	21519
878.058	21549
878.185	21370
878.313	21564
878.441	21481
878.568	21351
878.696	21492
878.824	21599
878.951	21618
879.079	21580
879.206	21736
879.333	21736
879.461	21591
879.588	21538
879.715	21751
879.842	21755
879.97	21542
880.097	21401
880.224	21363
880.351	21469
880.478	21336
880.605	21439
880.732	21367
880.859	21641
880.986	21310
881.112	21359
881.239	21241
881.366	21055
881.493	21077
881.619	20956
881.746	20956
881.872	20925
881.999	20887
882.125	20887
882.252	21062
882.378	20845
882.505	20986
882.631	20895
882.757	20708
882.883	20777
883.01	20476
883.136	20522
883.262	20457
883.388	20537
883.514	20632
883.64	20693
883.766	20590
883.892	20381
884.018	20385
884.143	20518
884.269	20598
884.395	20355
884.52	20259
884.646	20305
884.772	20168
884.897	20130
885.023	20381
885.148	20324
885.274	20431
885.399	20374
885.524	20240
885.65	20343
885.775	20248
885.9	20480
886.025	20355
886.15	20309
886.275	20210
886.4	20221
886.525	20328
886.65	20206
886.775	20153
886.9	20339
887.025	20355
887.149	20252
887.274	20092
887.399	20088
887.523	20050
887.648	20046
887.773	20024
887.897	20084
888.021	20103
888.146	20122
888.27	20100
888.395	20138
888.519	20157
888.643	20122
888.767	20191
888.891	19902
889.015	19928
889.139	19993
889.263	19902
889.387	19982
889.511	20065
889.635	19928
889.759	19864
889.883	19746
890.006	19765
890.13	19909
890.254	19795
890.377	19902
890.501	19746
890.624	19651
890.748	19719
890.871	19639
890.995	19472
891.118	19453
891.241	19457
891.364	19438
891.488	19552
891.611	19403
891.734	19396
891.857	19495
891.98	19540
892.103	19605
892.226	19430
892.349	19468
892.471	19175
892.594	19373
892.717	19438
892.839	19392
892.962	19373
893.085	19441
893.207	19354
893.33	19304
893.452	19411
893.575	19472
893.697	19304
893.819	19502
893.941	19480
894.064	19411
894.186	19403
894.308	19312
894.43	19483
894.552	19518
894.674	19525
894.796	19350
894.918	19308
895.04	19419
895.161	19426
895.283	19430
895.405	19449
895.526	19316
895.648	19396
895.769	19491
895.891	19460
896.012	19430
896.134	19529
896.255	19537
896.376	19335
896.498	19377
896.619	19441
896.74	19343
896.861	19506
896.982	19704
897.103	19845
897.224	19628
897.345	19700
897.466	19624
897.587	19632
897.708	19738
897.828	19563
897.949	19616
898.07	19377
898.19	19605
898.311	19620
898.431	19632
898.552	19651
898.672	19750
898.792	19647
898.913	19613
899.033	19514
899.153	19449
899.273	19308
899.393	19388
899.513	19502
899.633	19339
899.753	19472
899.873	19358
899.993	19335
900.113	19240
900.232	19350
900.352	19266
900.472	19297
900.591	19080
900.711	19148
900.83	19160
900.95	19297
901.069	19282
901.189	19175
901.308	18806
901.427	18722
901.546	18871
901.665	18768
901.784	18779
901.904	18760
902.023	18612
902.141	18414
902.26	18304
902.379	18346
902.498	18315
902.617	18273
902.735	18266
902.854	18247
902.973	18174
903.091	18034
903.21	17866
903.328	17942
903.446	17904
903.565	17729
903.683	17836
903.801	17623
903.919	17767
904.038	17710
904.156	17661
904.274	17558
904.392	17596
904.51	17490
904.627	17471
904.745	17630
904.863	17600
904.981	17284
905.098	17189
905.216	17178
905.334	17208
905.451	17223
905.569	17159
905.686	17223
905.803	17261
905.921	17018
906.038	17128
906.155	16995
906.272	16965
906.389	16919
906.506	16778
906.623	16801
906.74	16744
906.857	16653
906.974	16611
907.091	16729
907.208	16900
907.324	16698
907.441	16618
907.557	16531
907.674	16508
907.79	16390
907.907	16569
908.023	16599
908.139	16527
908.256	16481
908.372	16390
908.488	16371
908.604	16341
908.72	16295
908.836	16238
908.952	16257
909.068	16188
909.184	16329
909.3	16238
909.415	16105
909.531	16204
909.647	15991
909.762	16010
909.878	15926
909.993	15975
910.108	15838
910.224	15937
910.339	15918
910.454	15835
910.57	15732
910.685	15660
910.8	15930
910.915	15968
911.03	15743
911.145	15641
911.259	15447
911.374	15523
911.489	15378
911.604	15378
911.718	15294
911.833	15389
911.947	15230
912.062	15161
912.176	15416
912.291	15291
912.405	15294
912.519	15370
912.633	15443
912.748	15344
912.862	15192
912.976	15066
913.09	15032
913.204	14990
913.318	15119
913.431	15241
913.545	15195
913.659	15321
913.772	15116
913.886	14937
914	14998
914.113	14963
914.226	15085
914.34	14937
914.453	14724
914.566	14899
914.68	14750
914.793	14781
914.906	14587
915.019	14537
915.132	14503
915.245	14556
915.358	14522
915.47	14518
915.583	14552
915.696	14507
915.809	14659
915.921	14689
916.034	14450
916.146	14602
916.259	14473
916.371	14522
916.483	14446
916.595	14446
916.708	14393
916.82	14370
916.932	14339
917.044	14347
917.156	14355
917.268	14240
917.38	14256
917.491	14096
917.603	14172
917.715	14324
917.826	14252
917.938	14164
918.049	13986
918.161	14130
918.272	14298
918.384	14237
918.495	14195
918.606	13959
918.717	13982
918.828	13871
918.939	14088
919.05	13947
919.161	13989
919.272	13791
919.383	13826
919.494	13986
919.604	14267
919.715	14050
919.826	13860
919.936	13883
920.047	13932
920.157	13978
920.267	14058
920.378	13963
920.488	13963
920.598	14130
920.708	14221
920.818	14100
920.928	14084
921.038	14161
921.148	14218
921.258	13970
921.368	13849
921.477	13738
921.587	13693
921.697	13521
921.806	13681
921.916	13480
922.025	13468
922.134	13373
922.244	13339
922.353	13464
922.462	13285
922.571	13213
922.68	13057
922.789	13008
922.898	13034
923.007	13012
923.116	13027
923.224	13053
923.333	13015
923.442	12859
923.55	12825
923.659	12890
923.767	12894
923.876	12700
923.984	12844
924.092	12658
924.201	12776
924.309	12776
924.417	12677
924.525	12734
924.633	12707
924.741	13464
924.849	12483
924.956	12658
925.064	12376
925.172	12410
925.279	12372
925.387	12494
925.494	12475
925.602	12563
925.709	12486
925.816	12292
925.924	12471
926.031	12426
926.138	12376
926.245	12536
926.352	12323
926.459	12517
926.566	12532
926.673	12273
926.779	12308
926.886	12220
926.993	12041
927.099	12015
927.206	12072
927.312	11954
927.419	12102
927.525	12034
927.631	12152
927.737	11946
927.843	11958
927.95	11710
928.056	11874
928.162	11893
928.267	11961
928.373	12608
928.479	11885
928.585	11699
928.69	11885
928.796	11821
928.901	11859
929.007	11604
929.112	11813
929.218	11794
929.323	11691
929.428	11646
929.533	11714
929.638	11604
929.743	11573
929.848	11630
929.953	11532
930.058	11478
930.163	11391
930.267	11311
930.372	11490
930.477	11242
930.581	11551
930.685	11360
930.79	11235
930.894	11181
930.998	11170
931.103	11334
931.207	11022
931.311	10885
931.415	10850
931.519	10599
931.623	10637
