Data from test_V78500241_297.txt Node
Date: Fri Mar 25 15:11:55 CST 2022
User: usil
Spectrometer: V785-0024
Trigger mode: 0
Integration Time (sec): 4.000000E-1
Scans to average: 1
Nonlinearity correction enabled: false
Boxcar width: 0
Storing dark spectrum: false
XAxis mode: Wavelengths
Number of Pixels in Spectrum: 1024
>>>>>Begin Spectral Data<<<<<
801.071	27660
801.214	27614
801.356	27260
801.499	27237
801.641	27279
801.783	27291
801.926	27207
802.068	27089
802.211	27070
802.353	26967
802.496	26914
802.638	26895
802.78	26781
802.923	26807
803.065	26613
803.208	26758
803.35	26762
803.492	26933
803.635	26994
803.777	26655
803.919	27051
804.061	27272
804.204	26971
804.346	26857
804.488	26880
804.63	26952
804.773	26773
804.915	26811
805.057	27028
805.199	26849
805.341	27024
805.483	27169
805.626	26887
805.768	27047
805.91	26990
806.052	27066
806.194	26914
806.336	27146
806.478	27077
806.62	27020
806.762	27131
806.904	27283
807.046	27427
807.188	27363
807.33	27393
807.472	27450
807.614	27332
807.756	27348
807.898	27298
808.04	27070
808.182	27108
808.324	27131
808.465	27165
808.607	27405
808.749	27622
808.891	27766
809.033	27774
809.174	27622
809.316	27507
809.458	27663
809.6	27515
809.741	27755
809.883	27709
810.025	27797
810.166	27690
810.308	27770
810.45	27888
810.591	27739
810.733	27610
810.875	27564
811.016	27504
811.158	27447
811.299	27553
811.441	27728
811.582	27720
811.724	27393
811.865	27485
812.007	27477
812.148	27603
812.29	27545
812.431	27564
812.573	27857
812.714	27842
812.855	28044
812.997	28120
813.138	28337
813.279	28204
813.421	27960
813.562	28109
813.703	27888
813.845	27797
813.986	27397
814.127	27116
814.268	27161
814.41	27188
814.551	27119
814.692	27230
814.833	27112
814.974	27077
815.115	27119
815.256	27017
815.397	27020
815.539	27017
815.68	27036
815.821	26899
815.962	27013
816.103	26918
816.244	26731
816.385	26693
816.526	26663
816.666	26488
816.807	26415
816.948	26434
817.089	26480
817.23	26453
817.371	26457
817.512	26347
817.653	26343
817.793	26526
817.934	26415
818.075	26362
818.216	26450
818.356	26400
818.497	26275
818.638	26119
818.778	26092
818.919	26016
819.06	26214
819.2	26313
819.341	26176
819.481	26317
819.622	26457
819.762	26648
819.903	26716
820.043	26606
820.184	26484
820.324	26442
820.465	26438
820.605	26339
820.746	26317
820.886	26298
821.026	26358
821.167	26537
821.307	26453
821.447	26275
821.588	26355
821.728	26149
821.868	25932
822.008	25879
822.149	25868
822.289	25890
822.429	25529
822.569	25506
822.709	25578
822.849	25247
822.99	25304
823.13	25324
823.27	25240
823.41	25145
823.55	25053
823.69	25080
823.83	25179
823.97	25110
824.11	24886
824.25	24859
824.389	24882
824.529	24878
824.669	24894
824.809	24916
824.949	25000
825.089	25107
825.228	24928
825.368	24715
825.508	24681
825.648	24924
825.787	24798
825.927	24688
826.067	24574
826.206	24768
826.346	24749
826.485	24821
826.625	24734
826.765	24920
826.904	24749
827.044	24399
827.183	24433
827.323	24376
827.462	24502
827.601	24395
827.741	24376
827.88	24433
828.02	24384
828.159	24327
828.298	24441
828.437	24532
828.577	24407
828.716	24448
828.855	24334
828.994	24224
829.134	24178
829.273	24239
829.412	24129
829.551	24072
829.69	24182
829.829	24106
829.968	24232
830.107	24270
830.246	24038
830.385	23882
830.524	23942
830.663	23942
830.802	23828
830.941	23695
831.08	23687
831.219	23737
831.357	23874
831.496	23904
831.635	23699
831.774	23551
831.913	23630
832.051	23452
832.19	23395
832.329	23528
832.467	23505
832.606	23425
832.744	23421
832.883	23490
833.022	23372
833.16	23379
833.299	23505
833.437	23383
833.576	23687
833.714	23471
833.852	23516
833.991	23570
834.129	23505
834.267	23577
834.406	23402
834.544	23444
834.682	23482
834.821	23387
834.959	23790
835.097	23391
835.235	23661
835.373	23337
835.511	23406
835.65	23307
835.788	23334
835.926	23246
836.064	23060
836.202	23193
836.34	23322
836.478	23372
836.615	23239
836.753	23311
836.891	23376
837.029	23349
837.167	23254
837.305	23242
837.443	23208
837.58	23090
837.718	23246
837.856	23105
837.993	23124
838.131	23086
838.269	22995
838.406	23117
838.544	23041
838.681	22706
838.819	22752
838.956	22603
839.094	22588
839.231	22592
839.369	22820
839.506	22976
839.643	22755
839.781	22519
839.918	22519
840.055	22485
840.193	22637
840.33	22493
840.467	22485
840.604	22538
840.742	22713
840.879	22291
841.016	22436
841.153	22424
841.29	22596
841.427	22436
841.564	22569
841.701	22519
841.838	22504
841.975	22390
842.112	22295
842.249	22318
842.385	22265
842.522	22493
842.659	22329
842.796	22185
842.933	22162
843.069	22173
843.206	22150
843.343	22261
843.479	22188
843.616	22314
843.752	22078
843.889	22013
844.025	22158
844.162	21983
844.298	22006
844.435	22204
844.571	21968
844.708	22093
844.844	22086
844.98	22070
845.117	22139
845.253	21994
845.389	21857
845.525	21934
845.661	21892
845.798	21751
845.934	21759
846.07	21675
846.206	21622
846.342	21888
846.478	21705
846.614	21576
846.75	21363
846.886	21492
847.022	21633
847.158	21496
847.294	21405
847.429	21580
847.565	21393
847.701	21618
847.837	21374
847.972	21150
848.108	21268
848.244	21294
848.379	21104
848.515	21112
848.65	21089
848.786	21112
848.921	20956
849.057	21066
849.192	21009
849.328	21001
849.463	21013
849.598	21142
849.734	20925
849.869	20876
850.004	20853
850.14	20777
850.275	20864
850.41	20773
850.545	20731
850.68	20746
850.815	20834
850.95	20769
851.085	21039
851.22	20925
851.355	20849
851.49	20762
851.625	20777
851.76	20731
851.895	20686
852.03	20705
852.165	20731
852.299	20743
852.434	20845
852.569	20838
852.703	20842
852.838	20845
852.973	20948
853.107	20918
853.242	20781
853.376	20705
853.511	20568
853.645	20636
853.78	20697
853.914	20602
854.048	20541
854.183	20545
854.317	20556
854.451	20724
854.585	20708
854.72	20636
854.854	20533
854.988	20549
855.122	20712
855.256	20526
855.39	20587
855.524	20552
855.658	20659
855.792	20625
855.926	20750
856.06	20682
856.194	20686
856.327	20526
856.461	20587
856.595	20473
856.729	20541
856.862	20743
856.996	20613
857.13	20659
857.263	20629
857.397	20621
857.53	20514
857.664	20598
857.797	20644
857.931	20682
858.064	20514
858.197	20625
858.331	20621
858.464	20594
858.597	20545
858.731	20613
858.864	20602
858.997	20541
859.13	20609
859.263	20522
859.396	20708
859.529	20556
859.662	20640
859.795	20495
859.928	20651
860.061	20648
860.194	20769
860.327	20537
860.46	20541
860.592	20625
860.725	20712
860.858	20705
860.99	20594
861.123	20571
861.256	20541
861.388	20522
861.521	21157
861.653	20461
861.786	20347
861.918	20419
862.05	20564
862.183	20511
862.315	20629
862.447	20731
862.58	20617
862.712	20381
862.844	20317
862.976	20450
863.108	20343
863.24	20830
863.372	20187
863.504	20218
863.636	20267
863.768	20282
863.9	20328
864.032	20138
864.164	20339
864.296	20259
864.428	20271
864.559	20358
864.691	20347
864.823	20328
864.954	20324
865.086	20324
865.217	20153
865.349	20134
865.48	20161
865.612	20206
865.743	20309
865.875	20176
866.006	20122
866.137	20031
866.269	20240
866.4	20157
866.531	20062
866.662	20103
866.793	20187
866.924	20126
867.055	20088
867.186	20199
867.317	20077
867.448	20054
867.579	20176
867.71	19944
867.841	20142
867.972	20073
868.103	20138
868.233	20001
868.364	20100
868.495	20252
868.625	20256
868.756	20389
868.886	20206
869.017	20415
869.147	20461
869.278	20594
869.408	20389
869.539	20328
869.669	20393
869.799	20362
869.929	20530
870.06	20492
870.19	20762
870.32	20701
870.45	20800
870.58	20735
870.71	20842
870.84	20929
870.97	20678
871.1	20758
871.23	20929
871.36	20899
871.489	20994
871.619	20883
871.749	21020
871.879	21001
872.008	21066
872.138	20944
872.267	20994
872.397	20792
872.526	20651
872.656	20830
872.785	20769
872.915	21051
873.044	21009
873.173	20895
873.303	21013
873.432	20944
873.561	21165
873.69	20998
873.819	20944
873.948	21039
874.077	20967
874.206	21024
874.335	20971
874.464	21039
874.593	21199
874.722	21310
874.851	21279
874.979	21275
875.108	21252
875.237	21272
875.365	21214
875.494	21264
875.623	21135
875.751	21218
875.88	21298
876.008	21382
876.136	21435
876.265	21682
876.393	21682
876.521	21720
876.65	21686
876.778	21580
876.906	21523
877.034	21561
877.162	21618
877.29	21614
877.418	21610
877.546	21603
877.674	21622
877.802	21599
877.93	21568
878.058	21583
878.185	21447
878.313	21545
878.441	21583
878.568	21359
878.696	21424
878.824	21774
878.951	21663
879.079	21732
879.206	21861
879.333	21759
879.461	21538
879.588	21648
879.715	21797
879.842	21941
879.97	21618
880.097	21374
880.224	21348
880.351	21538
880.478	21389
880.605	21302
880.732	21458
880.859	21652
880.986	21454
881.112	21534
881.239	21176
881.366	21142
881.493	21112
881.619	21051
881.746	21005
881.872	21074
881.999	20948
882.125	20849
882.252	20876
882.378	20990
882.505	21123
882.631	20929
882.757	20678
882.883	20864
883.01	20731
883.136	20727
883.262	20545
883.388	20625
883.514	20777
883.64	20769
883.766	20651
883.892	20526
884.018	20503
884.143	20689
884.269	20769
884.395	20476
884.52	20381
884.646	20412
884.772	20267
884.897	20305
885.023	20396
885.148	20560
885.274	20503
885.399	20545
885.524	20457
885.65	20248
885.775	20358
885.9	20301
886.025	20518
886.15	20434
886.275	20415
886.4	20248
886.525	20339
886.65	20404
886.775	20328
886.9	20511
887.025	20560
887.149	20332
887.274	20084
887.399	20214
887.523	20168
887.648	20176
887.773	20008
887.897	20199
888.021	20248
888.146	20191
888.27	20244
888.395	20122
888.519	20187
888.643	20122
888.767	20298
888.891	19875
889.015	19997
889.139	20012
889.263	19906
889.387	20103
889.511	20187
889.635	20103
889.759	19909
889.883	19909
890.006	19909
890.13	20012
890.254	19708
890.377	19978
890.501	19761
890.624	19586
890.748	19753
890.871	19620
890.995	19476
891.118	19518
891.241	19407
891.364	19499
891.488	19590
891.611	19616
891.734	19525
891.857	19476
891.98	19590
892.103	19620
892.226	19575
892.349	19502
892.471	19240
892.594	19495
892.717	19506
892.839	19415
892.962	19400
893.085	19499
893.207	19392
893.33	19240
893.452	19384
893.575	19502
893.697	19327
893.819	19582
893.941	19628
894.064	19491
894.186	19255
894.308	19316
894.43	19529
894.552	19525
894.674	19499
894.796	19388
894.918	19259
895.04	19400
895.161	19521
895.283	19365
895.405	19346
895.526	19407
895.648	19396
895.769	19377
895.891	19506
896.012	19544
896.134	19430
896.255	19441
896.376	19335
896.498	19373
896.619	19449
896.74	19464
896.861	19449
896.982	19719
897.103	19898
897.224	19693
897.345	19601
897.466	19666
897.587	19597
897.708	19776
897.828	19662
897.949	19643
898.07	19510
898.19	19658
898.311	19753
898.431	19601
898.552	19620
898.672	19677
898.792	19746
898.913	19674
899.033	19495
899.153	19415
899.273	19392
899.393	19259
899.513	19480
899.633	19468
899.753	19377
899.873	19392
899.993	19468
900.113	19236
900.232	19289
900.352	19369
900.472	19183
900.591	19175
900.711	19304
900.83	19034
900.95	19362
901.069	19308
901.189	19133
901.308	18924
901.427	18772
901.546	18779
901.665	18852
901.784	18738
901.904	18585
902.023	18544
902.141	18422
902.26	18365
902.379	18445
902.498	18186
902.617	18262
902.735	18258
902.854	18315
902.973	18194
903.091	17954
903.21	18015
903.328	17889
903.446	17859
903.565	17832
903.683	17855
903.801	17646
903.919	17672
904.038	17638
904.156	17619
904.274	17638
904.392	17543
904.51	17627
904.627	17528
904.745	17714
904.863	17661
904.981	17330
905.098	17261
905.216	17208
905.334	17231
905.451	17265
905.569	17258
905.686	17288
905.803	17269
905.921	17128
906.038	17136
906.155	17121
906.272	16953
906.389	16942
906.506	16809
906.623	16801
906.74	16812
906.857	16717
906.974	16706
907.091	16835
907.208	16923
907.324	16778
907.441	16626
907.557	16508
907.674	16599
907.79	16489
907.907	16386
908.023	16519
908.139	16405
908.256	16405
908.372	16352
908.488	16360
908.604	16265
908.72	16139
908.836	16162
908.952	16162
909.068	16249
909.184	16352
909.3	16230
909.415	16196
909.531	16268
909.647	15983
909.762	15937
909.878	15797
909.993	15854
910.108	15899
910.224	15892
910.339	15941
910.454	15831
910.57	15762
910.685	15553
910.8	15998
910.915	15846
911.03	15679
911.145	15610
911.259	15454
911.374	15462
911.489	15431
911.604	15481
911.718	15226
911.833	15218
911.947	15165
912.062	15085
912.176	15249
912.291	15279
912.405	15230
912.519	15454
912.633	15450
912.748	15283
912.862	15317
912.976	15131
913.09	15001
913.204	15112
913.318	15123
913.431	15192
913.545	15123
913.659	15097
913.772	14948
913.886	14921
914	14849
914.113	15009
914.226	15005
914.34	14979
914.453	14758
914.566	14880
914.68	14765
914.793	14701
914.906	14602
915.019	14488
915.132	14461
915.245	14526
915.358	14457
915.47	14511
915.583	14499
915.696	14461
915.809	14613
915.921	14606
916.034	14431
916.146	14454
916.259	14404
916.371	14564
916.483	14568
916.595	14381
916.708	14400
916.82	14328
916.932	14259
917.044	14282
917.156	14248
917.268	14210
917.38	14202
917.491	14142
917.603	14305
917.715	14339
917.826	14244
917.938	14103
918.049	13982
918.161	14233
918.272	14229
918.384	14206
918.495	14123
918.606	13932
918.717	13849
918.828	13925
918.939	14008
919.05	13841
919.161	13993
919.272	13723
919.383	13814
919.494	13936
919.604	14115
919.715	13963
919.826	13811
919.936	13887
920.047	13974
920.157	13761
920.267	14195
920.378	13917
920.488	13883
920.598	14115
920.708	14138
920.818	13993
920.928	14031
921.038	14214
921.148	14153
921.258	13894
921.368	13776
921.477	13761
921.587	13624
921.697	13487
921.806	13655
921.916	13548
922.025	13301
922.134	13312
922.244	13312
922.353	13343
922.462	13217
922.571	13133
922.68	13015
922.789	12932
922.898	12989
923.007	12951
923.116	12981
923.224	12958
923.333	12909
923.442	12726
923.55	12783
923.659	12821
923.767	12886
923.876	12787
923.984	12840
924.092	12681
924.201	12829
924.309	12722
924.417	12734
924.525	12684
924.633	12673
924.741	13392
924.849	12464
924.956	12608
925.064	12486
925.172	12384
925.279	12410
925.387	12486
925.494	12467
925.602	12555
925.709	12422
925.816	12300
925.924	12338
926.031	12441
926.138	12304
926.245	12395
926.352	12342
926.459	12327
926.566	12422
926.673	12281
926.779	12209
926.886	12178
926.993	12041
927.099	11939
927.206	11969
927.312	11931
927.419	11992
927.525	11958
927.631	12022
927.737	11828
927.843	11863
927.95	11752
928.056	11783
928.162	11809
928.267	11821
928.373	12525
928.479	11920
928.585	11665
928.69	11729
928.796	11764
928.901	11665
929.007	11459
929.112	11592
929.218	11646
929.323	11653
929.428	11528
929.533	11748
929.638	11562
929.743	11570
929.848	11566
929.953	11520
930.058	11429
930.163	11223
930.267	11284
930.372	11398
930.477	11178
930.581	11429
930.685	11341
930.79	11212
930.894	11113
930.998	11201
931.103	11307
931.207	10847
931.311	10908
931.415	10733
931.519	10527
931.623	10561
