Data from test_V78500241_188.txt Node
Date: Fri Mar 25 15:11:10 CST 2022
User: usil
Spectrometer: V785-0024
Trigger mode: 0
Integration Time (sec): 4.000000E-1
Scans to average: 1
Nonlinearity correction enabled: false
Boxcar width: 0
Storing dark spectrum: false
XAxis mode: Wavelengths
Number of Pixels in Spectrum: 1024
>>>>>Begin Spectral Data<<<<<
801.071	27854
801.214	27778
801.356	27606
801.499	27488
801.641	27435
801.783	27439
801.926	27500
802.068	27283
802.211	27176
802.353	27237
802.496	27009
802.638	26998
802.78	27089
802.923	26868
803.065	26845
803.208	26891
803.35	27024
803.492	27020
803.635	26956
803.777	26937
803.919	27131
804.061	27275
804.204	27146
804.346	26948
804.488	26948
804.63	27135
804.773	26838
804.915	27058
805.057	27096
805.199	26967
805.341	27135
805.483	27112
805.626	27138
805.768	27062
805.91	26982
806.052	27176
806.194	27062
806.336	27351
806.478	27230
806.62	27074
806.762	27169
806.904	27249
807.046	27587
807.188	27355
807.33	27447
807.472	27622
807.614	27370
807.756	27466
807.898	27317
808.04	27363
808.182	27237
808.324	27355
808.465	27275
808.607	27386
808.749	27530
808.891	27804
809.033	27736
809.174	27804
809.316	27610
809.458	27648
809.6	27618
809.741	27747
809.883	27625
810.025	27854
810.166	27922
810.308	27899
810.45	27812
810.591	27789
810.733	27557
810.875	27507
811.016	27568
811.158	27515
811.299	27675
811.441	27770
811.582	27869
811.724	27614
811.865	27435
812.007	27603
812.148	27412
812.29	27686
812.431	27637
812.573	27960
812.714	27968
812.855	28063
812.997	28246
813.138	28166
813.279	28242
813.421	28128
813.562	28082
813.703	27812
813.845	27899
813.986	27458
814.127	27230
814.268	27192
814.41	27192
814.551	27112
814.692	27249
814.833	27135
814.974	27291
815.115	27161
815.256	26986
815.397	27085
815.539	27043
815.68	26895
815.821	26918
815.962	26918
816.103	27051
816.244	26834
816.385	26857
816.526	26724
816.666	26575
816.807	26393
816.948	26457
817.089	26476
817.23	26412
817.371	26450
817.512	26434
817.653	26317
817.793	26339
817.934	26374
818.075	26423
818.216	26317
818.356	26347
818.497	26168
818.638	26115
818.778	26077
818.919	26043
819.06	25997
819.2	26294
819.341	26259
819.481	26244
819.622	26317
819.762	26556
819.903	26571
820.043	26457
820.184	26313
820.324	26385
820.465	26507
820.605	26320
820.746	26514
820.886	26134
821.026	26366
821.167	26294
821.307	26473
821.447	26282
821.588	26153
821.728	26103
821.868	25955
822.008	25658
822.149	25803
822.289	25776
822.429	25445
822.569	25377
822.709	25426
822.849	25194
822.99	25244
823.13	25129
823.27	25148
823.41	25023
823.55	25042
823.69	25088
823.83	25023
823.97	24962
824.11	24764
824.25	24863
824.389	24779
824.529	24928
824.669	24821
824.809	24795
824.949	24856
825.089	24833
825.228	24837
825.368	24696
825.508	24677
825.648	24677
825.787	24681
825.927	24612
826.067	24574
826.206	24665
826.346	24802
826.485	24741
826.625	24730
826.765	24703
826.904	24639
827.044	24251
827.183	24323
827.323	24289
827.462	24338
827.601	24384
827.741	24277
827.88	24380
828.02	24190
828.159	24254
828.298	24353
828.437	24327
828.577	24281
828.716	24460
828.855	24254
828.994	24022
829.134	23988
829.273	24064
829.412	23950
829.551	23969
829.69	23942
829.829	23988
829.968	24133
830.107	24015
830.246	23855
830.385	23927
830.524	23920
830.663	23855
830.802	23665
830.941	23657
831.08	23551
831.219	23691
831.357	23627
831.496	23840
831.635	23493
831.774	23452
831.913	23410
832.051	23303
832.19	23368
832.329	23322
832.467	23269
832.606	23204
832.744	23223
832.883	23181
833.022	23212
833.16	23269
833.299	23197
833.437	23151
833.576	23102
833.714	23296
833.852	23326
833.991	23364
834.129	23444
834.267	23414
834.406	23231
834.544	23288
834.682	23250
834.821	23200
834.959	23345
835.097	23239
835.235	23345
835.373	23261
835.511	23261
835.65	23208
835.788	23143
835.926	23018
836.064	22965
836.202	22889
836.34	23067
836.478	23185
836.615	22885
836.753	23102
836.891	23223
837.029	23155
837.167	23033
837.305	23018
837.443	22961
837.58	22949
837.718	22961
837.856	22976
837.993	22866
838.131	22934
838.269	22691
838.406	22679
838.544	22626
838.681	22561
838.819	22428
838.956	22508
839.094	22466
839.231	22489
839.369	22443
839.506	22843
839.643	22641
839.781	22348
839.918	22375
840.055	22424
840.193	22249
840.33	22287
840.467	22379
840.604	22485
840.742	22573
840.879	22109
841.016	22284
841.153	22158
841.29	22375
841.427	22234
841.564	22226
841.701	22287
841.838	22143
841.975	22200
842.112	22078
842.249	22067
842.385	21994
842.522	22238
842.659	22090
842.796	21888
842.933	22093
843.069	22078
843.206	22051
843.343	22021
843.479	22036
843.616	22010
843.752	21800
843.889	21682
844.025	21892
844.162	21778
844.298	21835
844.435	21918
844.571	21755
844.708	21743
844.844	21857
844.98	21846
845.117	21838
845.253	21861
845.389	21614
845.525	21557
845.661	21663
845.798	21530
845.934	21530
846.07	21378
846.206	21637
846.342	21804
846.478	21504
846.614	21416
846.75	21100
846.886	21214
847.022	21298
847.158	21245
847.294	21233
847.429	21321
847.565	21275
847.701	21542
847.837	20921
847.972	20902
848.108	21104
848.244	20998
848.379	20773
848.515	20746
848.65	20758
848.786	20826
848.921	20849
849.057	21028
849.192	20857
849.328	20762
849.463	20743
849.598	20708
849.734	20686
849.869	20575
850.004	20465
850.14	20629
850.275	20560
850.41	20366
850.545	20431
850.68	20465
850.815	20438
850.95	20507
851.085	20788
851.22	20613
851.355	20499
851.49	20446
851.625	20415
851.76	20537
851.895	20343
852.03	20377
852.165	20617
852.299	20598
852.434	20693
852.569	20495
852.703	20621
852.838	20495
852.973	20720
853.107	20606
853.242	20457
853.376	20415
853.511	20347
853.645	20351
853.78	20503
853.914	20355
854.048	20450
854.183	20328
854.317	20442
854.451	20400
854.585	20298
854.72	20294
854.854	20366
854.988	20240
855.122	20164
855.256	20027
855.39	20271
855.524	20393
855.658	20294
855.792	20408
855.926	20450
856.06	20374
856.194	20469
856.327	20286
856.461	20218
856.595	20240
856.729	20305
856.862	20408
856.996	20332
857.13	20415
857.263	20575
857.397	20370
857.53	20332
857.664	20362
857.797	20385
857.931	20396
858.064	20396
858.197	20419
858.331	20233
858.464	20206
858.597	20180
858.731	20309
858.864	20324
858.997	20183
859.13	20218
859.263	20320
859.396	20336
859.529	20233
859.662	20126
859.795	20218
859.928	20282
860.061	20385
860.194	20484
860.327	20286
860.46	20229
860.592	20294
860.725	20355
860.858	20294
860.99	20210
861.123	20214
861.256	20233
861.388	20377
861.521	21009
861.653	20111
861.786	20122
861.918	20062
862.05	20377
862.183	20218
862.315	20286
862.447	20393
862.58	20271
862.712	20103
862.844	19947
862.976	20282
863.108	20153
863.24	20473
863.372	19989
863.504	19970
863.636	19879
863.768	20012
863.9	19963
864.032	19993
864.164	19894
864.296	19936
864.428	20096
864.559	20084
864.691	20077
864.823	20058
864.954	19970
865.086	20077
865.217	19871
865.349	19784
865.48	19875
865.612	19887
865.743	19993
865.875	19909
866.006	19750
866.137	19902
866.269	19852
866.4	19989
866.531	19978
866.662	19742
866.793	19811
866.924	19776
867.055	19811
867.186	19826
867.317	19822
867.448	19776
867.579	19845
867.71	19704
867.841	19856
867.972	19788
868.103	19830
868.233	19803
868.364	19837
868.495	19989
868.625	20005
868.756	20199
868.886	19963
869.017	20050
869.147	20065
869.278	20142
869.408	20103
869.539	20103
869.669	20218
869.799	20202
869.929	20164
870.06	20210
870.19	20377
870.32	20351
870.45	20286
870.58	20415
870.71	20522
870.84	20587
870.97	20556
871.1	20419
871.23	20629
871.36	20735
871.489	20473
871.619	20689
871.749	20530
871.879	20727
872.008	20785
872.138	20636
872.267	20701
872.397	20503
872.526	20518
872.656	20351
872.785	20476
872.915	20708
873.044	20712
873.173	20625
873.303	20659
873.432	20724
873.561	20682
873.69	20750
873.819	20670
873.948	20621
874.077	20606
874.206	20701
874.335	20655
874.464	20845
874.593	20971
874.722	20925
874.851	20960
874.979	20937
875.108	20975
875.237	20838
875.365	20872
875.494	20941
875.623	21013
875.751	20960
875.88	20876
876.008	21017
876.136	21230
876.265	21397
876.393	21545
876.521	21397
876.65	21374
876.778	21344
876.906	21283
877.034	21211
877.162	21359
877.29	21184
877.418	21370
877.546	21230
877.674	21252
877.802	21249
877.93	21241
878.058	21306
878.185	21161
878.313	21211
878.441	21192
878.568	21169
878.696	21218
878.824	21310
878.951	21317
879.079	21587
879.206	21511
879.333	21397
879.461	21222
879.588	21443
879.715	21382
879.842	21603
879.97	21431
880.097	21104
880.224	21081
880.351	21138
880.478	21180
880.605	20994
880.732	21051
880.859	21431
880.986	21199
881.112	21112
881.239	21005
881.366	20845
881.493	20731
881.619	20697
881.746	20781
881.872	20686
881.999	20556
882.125	20735
882.252	20807
882.378	20724
882.505	20750
882.631	20541
882.757	20541
882.883	20434
883.01	20374
883.136	20324
883.262	20240
883.388	20240
883.514	20415
883.64	20507
883.766	20275
883.892	20221
884.018	20286
884.143	20336
884.269	20499
884.395	20206
884.52	20130
884.646	20001
884.772	19936
884.897	19875
885.023	20062
885.148	20149
885.274	20142
885.399	20084
885.524	20035
885.65	20031
885.775	20107
885.9	20077
886.025	20161
886.15	20126
886.275	20035
886.4	19951
886.525	20008
886.65	20027
886.775	19997
886.9	20161
887.025	20275
887.149	20039
887.274	19856
887.399	19887
887.523	19742
887.648	19803
887.773	19742
887.897	20008
888.021	19860
888.146	19772
888.27	19940
888.395	19921
888.519	19921
888.643	19849
888.767	19807
888.891	19788
889.015	19666
889.139	19712
889.263	19556
889.387	19689
889.511	19841
889.635	19765
889.759	19632
889.883	19689
890.006	19643
890.13	19696
890.254	19518
890.377	19597
890.501	19388
890.624	19312
890.748	19362
890.871	19274
890.995	19217
891.118	19099
891.241	19213
891.364	19213
891.488	19346
891.611	19312
891.734	19228
891.857	19335
891.98	19324
892.103	19297
892.226	19327
892.349	19171
892.471	19034
892.594	19122
892.717	19266
892.839	19168
892.962	19152
893.085	19221
893.207	19110
893.33	19103
893.452	19213
893.575	19179
893.697	19118
893.819	19209
893.941	19403
894.064	19217
894.186	19004
894.308	19217
894.43	19175
894.552	19312
894.674	19236
894.796	19129
894.918	19175
895.04	19137
895.161	19179
895.283	19156
895.405	19110
895.526	19164
895.648	19202
895.769	19289
895.891	19179
896.012	19259
896.134	19240
896.255	19206
896.376	19183
896.498	19202
896.619	19247
896.74	19175
896.861	19244
896.982	19563
897.103	19712
897.224	19514
897.345	19510
897.466	19400
897.587	19464
897.708	19392
897.828	19419
897.949	19289
898.07	19194
898.19	19350
898.311	19483
898.431	19297
898.552	19407
898.672	19373
898.792	19491
898.913	19369
899.033	19343
899.153	19213
899.273	19050
899.393	19034
899.513	19133
899.633	19206
899.753	19198
899.873	19171
899.993	19171
900.113	19095
900.232	19114
900.352	19114
900.472	19091
900.591	18947
900.711	19008
900.83	18901
900.95	18951
901.069	19042
901.189	18837
901.308	18517
901.427	18570
901.546	18498
901.665	18536
901.784	18502
901.904	18433
902.023	18338
902.141	18003
902.26	18091
902.379	18159
902.498	18034
902.617	17950
902.735	18011
902.854	18026
902.973	18026
903.091	17691
903.21	17821
903.328	17596
903.446	17608
903.565	17455
903.683	17592
903.801	17360
903.919	17455
904.038	17356
904.156	17292
904.274	17326
904.392	17360
904.51	17315
904.627	17303
904.745	17334
904.863	17299
904.981	17227
905.098	16923
905.216	16896
905.334	17018
905.451	16953
905.569	16938
905.686	16972
905.803	16968
905.921	16691
906.038	16957
906.155	16854
906.272	16733
906.389	16729
906.506	16398
906.623	16523
906.74	16481
906.857	16398
906.974	16367
907.091	16500
907.208	16607
907.324	16546
907.441	16390
907.557	16246
907.674	16226
907.79	16116
907.907	16234
908.023	16242
908.139	16139
908.256	16253
908.372	16207
908.488	16120
908.604	15922
908.72	15895
908.836	15960
908.952	15823
909.068	15945
909.184	16048
909.3	15934
909.415	15956
909.531	15892
909.647	15705
909.762	15641
909.878	15663
909.993	15656
910.108	15633
910.224	15564
910.339	15679
910.454	15538
910.57	15462
910.685	15458
910.8	15591
910.915	15701
911.03	15332
911.145	15264
911.259	15275
911.374	15184
911.489	15165
911.604	15043
911.718	15017
911.833	14918
911.947	14941
912.062	14750
912.176	14906
912.291	14910
912.405	14868
912.519	15192
912.633	15146
912.748	15077
912.862	14937
912.976	14746
913.09	14644
913.204	14746
913.318	14811
913.431	14762
913.545	14960
913.659	14880
913.772	14777
913.886	14697
914	14522
914.113	14785
914.226	14762
914.34	14613
914.453	14492
914.566	14689
914.68	14621
914.793	14427
914.906	14355
915.019	14358
915.132	14142
915.245	14248
915.358	14305
915.47	14286
915.583	14408
915.696	14415
915.809	14427
915.921	14324
916.034	14298
916.146	14244
916.259	14100
916.371	14355
916.483	14278
916.595	14107
916.708	14119
916.82	14164
916.932	14138
917.044	14111
917.156	14088
917.268	13845
917.38	13963
917.491	13856
917.603	14005
917.715	14012
917.826	14065
917.938	14024
918.049	13837
918.161	13940
918.272	14145
918.384	14027
918.495	13936
918.606	13803
918.717	13685
918.828	13689
918.939	13780
919.05	13708
919.161	13643
919.272	13559
919.383	13620
919.494	13723
919.604	13894
919.715	13704
919.826	13681
919.936	13597
920.047	13822
920.157	13731
920.267	13849
920.378	13723
920.488	13727
920.598	13845
920.708	13993
920.818	13909
920.928	13780
921.038	13967
921.148	13890
921.258	13734
921.368	13506
921.477	13476
921.587	13407
921.697	13392
921.806	13487
921.916	13282
922.025	13168
922.134	13057
922.244	13091
922.353	13103
922.462	13000
922.571	12962
922.68	12753
922.789	12688
922.898	12662
923.007	12684
923.116	12776
923.224	12741
923.333	12658
923.442	12566
923.55	12467
923.659	12650
923.767	12673
923.876	12502
923.984	12642
924.092	12498
924.201	12502
924.309	12441
924.417	12509
924.525	12418
924.633	12456
924.741	13225
924.849	12270
924.956	12361
925.064	12311
925.172	12079
925.279	12175
925.387	12201
925.494	12152
925.602	12311
925.709	12342
925.816	12110
925.924	12159
926.031	12155
926.138	12159
926.245	12205
926.352	12095
926.459	12201
926.566	12243
926.673	12060
926.779	11965
926.886	12003
926.993	11843
927.099	11786
927.206	11729
927.312	11714
927.419	11805
927.525	11741
927.631	11851
927.737	11714
927.843	11649
927.95	11520
928.056	11562
928.162	11665
928.267	11688
928.373	12182
928.479	11672
928.585	11471
928.69	11630
928.796	11600
928.901	11623
929.007	11284
929.112	11459
929.218	11440
929.323	11364
929.428	11372
929.533	11505
929.638	11326
929.743	11307
929.848	11398
929.953	11379
930.058	11181
930.163	11094
930.267	11117
930.372	11231
930.477	11014
930.581	11235
930.685	11140
930.79	10995
930.894	11018
930.998	10847
931.103	11189
931.207	10729
931.311	10546
931.415	10535
931.519	10299
931.623	10375
