Data from test_V78500241_886.txt Node
Date: Fri Mar 25 15:16:01 CST 2022
User: usil
Spectrometer: V785-0024
Trigger mode: 0
Integration Time (sec): 4.000000E-1
Scans to average: 1
Nonlinearity correction enabled: false
Boxcar width: 0
Storing dark spectrum: false
XAxis mode: Wavelengths
Number of Pixels in Spectrum: 1024
>>>>>Begin Spectral Data<<<<<
801.071	28044
801.214	28105
801.356	27812
801.499	27888
801.641	27709
801.783	27698
801.926	27724
802.068	27679
802.211	27675
802.353	27686
802.496	27401
802.638	27374
802.78	27401
802.923	27412
803.065	27405
803.208	27420
803.35	27355
803.492	27614
803.635	27561
803.777	27427
803.919	27534
804.061	27789
804.204	27549
804.346	27485
804.488	27492
804.63	27591
804.773	27526
804.915	27629
805.057	27694
805.199	27656
805.341	27759
805.483	27690
805.626	27698
805.768	27652
805.91	27671
806.052	27751
806.194	27747
806.336	27937
806.478	27614
806.62	27720
806.762	27918
806.904	27876
807.046	28398
807.188	28147
807.33	28120
807.472	28215
807.614	28032
807.756	28147
807.898	28040
808.04	27964
808.182	28029
808.324	27899
808.465	28029
808.607	28215
808.749	28493
808.891	28432
809.033	28550
809.174	28344
809.316	28352
809.458	28310
809.6	28337
809.741	28409
809.883	28428
810.025	28618
810.166	28649
810.308	28622
810.45	28729
810.591	28645
810.733	28314
810.875	28371
811.016	28265
811.158	28394
811.299	28519
811.441	28592
811.582	28504
811.724	28481
811.865	28436
812.007	28398
812.148	28436
812.29	28363
812.431	28569
812.573	28702
812.714	28816
812.855	28847
812.997	29090
813.138	29018
813.279	29075
813.421	29010
813.562	28881
813.703	28786
813.845	28725
813.986	28421
814.127	28314
814.268	28188
814.41	28211
814.551	28090
814.692	28139
814.833	28120
814.974	28025
815.115	28124
815.256	27979
815.397	28124
815.539	28021
815.68	28002
815.821	27679
815.962	27846
816.103	27876
816.244	27671
816.385	27774
816.526	27686
816.666	27656
816.807	27416
816.948	27542
817.089	27488
817.23	27553
817.371	27427
817.512	27427
817.653	27408
817.793	27561
817.934	27412
818.075	27507
818.216	27443
818.356	27317
818.497	27279
818.638	27283
818.778	27039
818.919	27138
819.06	27332
819.2	27321
819.341	27485
819.481	27435
819.622	27618
819.762	27724
819.903	27610
820.043	27564
820.184	27538
820.324	27568
820.465	27618
820.605	27599
820.746	27648
820.886	27321
821.026	27443
821.167	27523
821.307	27591
821.447	27622
821.588	27260
821.728	27135
821.868	27024
822.008	26998
822.149	26708
822.289	26811
822.429	26571
822.569	26606
822.709	26579
822.849	26400
822.99	26446
823.13	26370
823.27	26469
823.41	26138
823.55	26077
823.69	26275
823.83	26278
823.97	26084
824.11	26100
824.25	26005
824.389	26016
824.529	26119
824.669	26142
824.809	26191
824.949	26069
825.089	26107
825.228	25986
825.368	25955
825.508	26043
825.648	25879
825.787	25803
825.927	26073
826.067	25864
826.206	25761
826.346	25925
826.485	25940
826.625	25966
826.765	26016
826.904	25970
827.044	25708
827.183	25708
827.323	25742
827.462	25811
827.601	25731
827.741	25632
827.88	25674
828.02	25597
828.159	25594
828.298	25651
828.437	25571
828.577	25628
828.716	25666
828.855	25578
828.994	25301
829.134	25499
829.273	25377
829.412	25289
829.551	25266
829.69	25346
829.829	25529
829.968	25438
830.107	25312
830.246	25369
830.385	25209
830.524	25206
830.663	25198
830.802	25084
830.941	24913
831.08	24958
831.219	24985
831.357	25118
831.496	25179
831.635	24863
831.774	24894
831.913	24924
832.051	24703
832.19	24772
832.329	24821
832.467	24639
832.606	24525
832.744	24639
832.883	24734
833.022	24627
833.16	24627
833.299	24768
833.437	24673
833.576	24772
833.714	24722
833.852	24848
833.991	24833
834.129	24802
834.267	24768
834.406	24730
834.544	24719
834.682	24669
834.821	24563
834.959	24973
835.097	24559
835.235	24749
835.373	24654
835.511	24612
835.65	24597
835.788	24760
835.926	24551
836.064	24194
836.202	24311
836.34	24532
836.478	24486
836.615	24627
836.753	24357
836.891	24620
837.029	24525
837.167	24429
837.305	24452
837.443	24311
837.58	24448
837.718	24448
837.856	24330
837.993	24300
838.131	24327
838.269	24171
838.406	24178
838.544	24125
838.681	23958
838.819	23992
838.956	23756
839.094	23927
839.231	24026
839.369	24034
839.506	24178
839.643	24129
839.781	23973
839.918	23726
840.055	23901
840.193	23756
840.33	23710
840.467	23657
840.604	23866
840.742	23984
840.879	23611
841.016	23748
841.153	23570
841.29	23695
841.427	23764
841.564	23710
841.701	23737
841.838	23707
841.975	23558
842.112	23551
842.249	23539
842.385	23562
842.522	23691
842.659	23573
842.796	23345
842.933	23505
843.069	23585
843.206	23471
843.343	23623
843.479	23486
843.616	23520
843.752	23372
843.889	23330
844.025	23490
844.162	23185
844.298	23376
844.435	23318
844.571	23372
844.708	23341
844.844	23414
844.98	23539
845.117	23421
845.253	23376
845.389	23041
845.525	23235
845.661	23284
845.798	23117
845.934	22968
846.07	22949
846.206	23048
846.342	22946
846.478	23041
846.614	22797
846.75	22687
846.886	22729
847.022	22904
847.158	22748
847.294	22752
847.429	22645
847.565	22740
847.701	22892
847.837	22516
847.972	22474
848.108	22557
848.244	22519
848.379	22295
848.515	22367
848.65	22322
848.786	22329
848.921	22413
849.057	22402
849.192	22428
849.328	22341
849.463	22432
849.598	22306
849.734	22169
849.869	22162
850.004	22162
850.14	22177
850.275	22188
850.41	22029
850.545	22032
850.68	22150
850.815	22036
850.95	22109
851.085	22257
851.22	22238
851.355	22044
851.49	22048
851.625	22070
851.76	21972
851.895	21975
852.03	21953
852.165	22021
852.299	22109
852.434	22204
852.569	22192
852.703	22139
852.838	22090
852.973	22207
853.107	22207
853.242	22124
853.376	22051
853.511	21888
853.645	21842
853.78	22055
853.914	21930
854.048	21964
854.183	21751
854.317	21876
854.451	22143
854.585	22010
854.72	21827
854.854	21911
854.988	21766
855.122	21934
855.256	21808
855.39	21895
855.524	21964
855.658	21937
855.792	21998
855.926	21960
856.06	22048
856.194	22036
856.327	21911
856.461	21819
856.595	21812
856.729	21747
856.862	21937
856.996	21937
857.13	21907
857.263	21998
857.397	21968
857.53	21899
857.664	22021
857.797	21926
857.931	21968
858.064	21956
858.197	21953
858.331	21884
858.464	21797
858.597	21800
858.731	21907
858.864	21835
858.997	21823
859.13	21850
859.263	21937
859.396	22013
859.529	21899
859.662	21903
859.795	21937
859.928	21953
860.061	21956
860.194	22116
860.327	22029
860.46	21831
860.592	22025
860.725	22044
860.858	22013
860.99	21880
861.123	21846
861.256	21926
861.388	21857
861.521	22656
861.653	21819
861.786	21743
861.918	21709
862.05	21850
862.183	21838
862.315	21793
862.447	21857
862.58	21835
862.712	21580
862.844	21686
862.976	21572
863.108	21629
863.24	21994
863.372	21614
863.504	21557
863.636	21603
863.768	21576
863.9	21648
864.032	21561
864.164	21416
864.296	21644
864.428	21557
864.559	21656
864.691	21682
864.823	21595
864.954	21705
865.086	21500
865.217	21534
865.349	21397
865.48	21530
865.612	21538
865.743	21660
865.875	21469
866.006	21515
866.137	21542
866.269	21545
866.4	21504
866.531	21443
866.662	21374
866.793	21466
866.924	21466
867.055	21378
867.186	21420
867.317	21386
867.448	21351
867.579	21348
867.71	21378
867.841	21199
867.972	21393
868.103	21420
868.233	21363
868.364	21378
868.495	21583
868.625	21656
868.756	21797
868.886	21568
869.017	21545
869.147	21720
869.278	21800
869.408	21724
869.539	21713
869.669	21800
869.799	21728
869.929	21812
870.06	21850
870.19	22169
870.32	22082
870.45	21979
870.58	21918
870.71	22154
870.84	22112
870.97	22067
871.1	22010
871.23	22112
871.36	22348
871.489	22215
871.619	22287
871.749	22268
871.879	22268
872.008	22303
872.138	22352
872.267	22223
872.397	22143
872.526	22051
872.656	22040
872.785	21994
872.915	22322
873.044	22333
873.173	22238
873.303	22219
873.432	22226
873.561	22360
873.69	22238
873.819	22272
873.948	22341
874.077	22280
874.206	22333
874.335	22230
874.464	22333
874.593	22485
874.722	22535
874.851	22546
874.979	22512
875.108	22470
875.237	22455
875.365	22363
875.494	22516
875.623	22535
875.751	22478
875.88	22497
876.008	22615
876.136	22588
876.265	22839
876.393	22889
876.521	22847
876.65	22850
876.778	22763
876.906	22816
877.034	22801
877.162	22862
877.29	22774
877.418	22835
877.546	22820
877.674	22877
877.802	22824
877.93	22839
878.058	22820
878.185	22801
878.313	22801
878.441	22793
878.568	22664
878.696	22885
878.824	22927
878.951	22934
879.079	22949
879.206	23151
879.333	22911
879.461	22843
879.588	23029
879.715	23090
879.842	23094
879.97	22820
880.097	22535
880.224	22577
880.351	22691
880.478	22687
880.605	22706
880.732	22538
880.859	22767
880.986	22580
881.112	22573
881.239	22565
881.366	22371
881.493	22230
881.619	22265
881.746	22291
881.872	22234
881.999	22082
882.125	22230
882.252	22246
882.378	22204
882.505	22215
882.631	22109
882.757	21911
882.883	21941
883.01	21918
883.136	21793
883.262	21797
883.388	21675
883.514	21804
883.64	22010
883.766	21743
883.892	21663
884.018	21800
884.143	21854
884.269	21865
884.395	21519
884.52	21595
884.646	21488
884.772	21507
884.897	21431
885.023	21572
885.148	21690
885.274	21644
885.399	21606
885.524	21538
885.65	21603
885.775	21526
885.9	21496
886.025	21622
886.15	21629
886.275	21500
886.4	21386
886.525	21530
886.65	21481
886.775	21538
886.9	21720
887.025	21827
887.149	21561
887.274	21424
887.399	21500
887.523	21302
887.648	21199
887.773	21184
887.897	21275
888.021	21188
888.146	21268
888.27	21469
888.395	21435
888.519	21329
888.643	21275
888.767	21329
888.891	21268
889.015	21188
889.139	21085
889.263	21047
889.387	21222
889.511	21207
889.635	21233
889.759	21226
889.883	21036
890.006	21116
890.13	21184
890.254	20982
890.377	21081
890.501	20785
890.624	20868
890.748	20785
890.871	20815
890.995	20594
891.118	20796
891.241	20682
891.364	20705
891.488	20754
891.611	20575
891.734	20556
891.857	20663
891.98	20598
892.103	20792
892.226	20625
892.349	20667
892.471	20492
892.594	20556
892.717	20705
892.839	20598
892.962	20552
893.085	20602
893.207	20499
893.33	20412
893.452	20495
893.575	20571
893.697	20564
893.819	20773
893.941	20838
894.064	20678
894.186	20503
894.308	20492
894.43	20693
894.552	20632
894.674	20724
894.796	20381
894.918	20488
895.04	20503
895.161	20651
895.283	20594
895.405	20408
895.526	20503
895.648	20575
895.769	20609
895.891	20663
896.012	20667
896.134	20564
896.255	20507
896.376	20480
896.498	20488
896.619	20469
896.74	20537
896.861	20442
896.982	20842
897.103	20925
897.224	20830
897.345	20777
897.466	20648
897.587	20811
897.708	20872
897.828	20765
897.949	20754
898.07	20663
898.19	20590
898.311	20758
898.431	20720
898.552	20781
898.672	20739
898.792	20758
898.913	20769
899.033	20731
899.153	20514
899.273	20461
899.393	20507
899.513	20549
899.633	20575
899.753	20457
899.873	20358
899.993	20552
900.113	20431
900.232	20560
900.352	20381
900.472	20313
900.591	20290
900.711	20271
900.83	20358
900.95	20317
901.069	20290
901.189	20122
901.308	19978
901.427	19811
901.546	19814
901.665	19913
901.784	19841
901.904	19685
902.023	19670
902.141	19464
902.26	19438
902.379	19476
902.498	19388
902.617	19297
902.735	19445
902.854	19225
902.973	19346
903.091	18989
903.21	19042
903.328	19027
903.446	18886
903.565	18856
903.683	18764
903.801	18684
903.919	18837
904.038	18703
904.156	18623
904.274	18616
904.392	18620
904.51	18536
904.627	18540
904.745	18574
904.863	18555
904.981	18346
905.098	18369
905.216	18357
905.334	18251
905.451	18369
905.569	18258
905.686	18213
905.803	18292
905.921	18057
906.038	18057
906.155	18022
906.272	17893
906.389	17950
906.506	17863
906.623	17824
906.74	17710
906.857	17699
906.974	17668
907.091	17878
907.208	17866
907.324	17912
907.441	17691
907.557	17562
907.674	17436
907.79	17383
907.907	17421
908.023	17554
908.139	17539
908.256	17452
908.372	17326
908.488	17364
908.604	17292
908.72	17147
908.836	17315
908.952	17185
909.068	17227
909.184	17315
909.3	17239
909.415	17334
909.531	17140
909.647	17041
909.762	16831
909.878	16828
909.993	16961
910.108	16991
910.224	16866
910.339	16778
910.454	16835
910.57	16805
910.685	16767
910.8	16820
910.915	16953
911.03	16691
911.145	16493
911.259	16599
911.374	16519
911.489	16436
911.604	16352
911.718	16386
911.833	16204
911.947	16200
912.062	15987
912.176	16154
912.291	16341
912.405	16192
912.519	16390
912.633	16367
912.748	16166
912.862	16234
912.976	16074
913.09	15903
913.204	15930
913.318	16048
913.431	16207
913.545	16158
913.659	16150
913.772	16006
913.886	15808
914	15911
914.113	15899
914.226	15926
914.34	15876
914.453	15743
914.566	15880
914.68	15857
914.793	15743
914.906	15572
915.019	15435
915.132	15408
915.245	15412
915.358	15443
915.47	15428
915.583	15492
915.696	15363
915.809	15542
915.921	15606
916.034	15469
916.146	15279
916.259	15252
916.371	15435
916.483	15321
916.595	15203
916.708	15226
916.82	15310
916.932	15237
917.044	15176
917.156	15142
917.268	15066
917.38	15131
917.491	15036
917.603	15100
917.715	15150
917.826	15157
917.938	15085
918.049	14788
918.161	15066
918.272	15135
918.384	15036
918.495	14948
918.606	14906
918.717	14815
918.828	14941
918.939	14925
919.05	14701
919.161	14811
919.272	14644
919.383	14727
919.494	14906
919.604	15024
919.715	14857
919.826	14727
919.936	14720
920.047	14883
920.157	14796
920.267	14937
920.378	14750
920.488	14686
920.598	15074
920.708	15169
920.818	14902
920.928	14811
921.038	15036
921.148	15058
921.258	14762
921.368	14632
921.477	14549
921.587	14522
921.697	14427
921.806	14419
921.916	14396
922.025	14244
922.134	14084
922.244	14176
922.353	14164
922.462	14012
922.571	13963
922.68	13841
922.789	13871
922.898	13913
923.007	13799
923.116	13761
923.224	13799
923.333	13776
923.442	13753
923.55	13613
923.659	13613
923.767	13715
923.876	13594
923.984	13731
924.092	13521
924.201	13616
924.309	13597
924.417	13525
924.525	13464
924.633	13521
924.741	14195
924.849	13213
924.956	13365
925.064	13266
925.172	13129
925.279	13198
925.387	13266
925.494	13202
925.602	13289
925.709	13324
925.816	13217
925.924	13175
926.031	13209
926.138	13149
926.245	13175
926.352	13088
926.459	13164
926.566	13217
926.673	13038
926.779	12947
926.886	13042
926.993	12833
927.099	12821
927.206	12635
927.312	12745
927.419	12791
927.525	12669
927.631	12673
927.737	12658
927.843	12620
927.95	12448
928.056	12570
928.162	12471
928.267	12654
928.373	13088
928.479	12665
928.585	12403
928.69	12612
928.796	12658
928.901	12391
929.007	12262
929.112	12456
929.218	12414
929.323	12270
929.428	12292
929.533	12380
929.638	12304
929.743	12140
929.848	12330
929.953	12308
930.058	12133
930.163	11954
930.267	11935
930.372	12114
930.477	12003
930.581	12232
930.685	12011
930.79	11859
930.894	11950
930.998	11798
931.103	12045
931.207	11581
931.311	11444
931.415	11501
931.519	11265
931.623	11326
