Data from test_V78500241_898.txt Node
Date: Fri Mar 25 15:16:06 CST 2022
User: usil
Spectrometer: V785-0024
Trigger mode: 0
Integration Time (sec): 4.000000E-1
Scans to average: 1
Nonlinearity correction enabled: false
Boxcar width: 0
Storing dark spectrum: false
XAxis mode: Wavelengths
Number of Pixels in Spectrum: 1024
>>>>>Begin Spectral Data<<<<<
801.071	28249
801.214	28253
801.356	28063
801.499	27869
801.641	27682
801.783	27880
801.926	27857
802.068	27766
802.211	27580
802.353	27633
802.496	27561
802.638	27542
802.78	27321
802.923	27454
803.065	27389
803.208	27412
803.35	27519
803.492	27743
803.635	27526
803.777	27523
803.919	27736
804.061	27937
804.204	27637
804.346	27511
804.488	27473
804.63	27618
804.773	27713
804.915	27679
805.057	27831
805.199	27648
805.341	27759
805.483	27892
805.626	27732
805.768	27762
805.91	27892
806.052	27831
806.194	27538
806.336	27991
806.478	28048
806.62	27808
806.762	28002
806.904	28097
807.046	28303
807.188	28154
807.33	28215
807.472	28306
807.614	28169
807.756	28196
807.898	28147
808.04	28150
808.182	28154
808.324	28017
808.465	28139
808.607	28356
808.749	28405
808.891	28470
809.033	28759
809.174	28512
809.316	28432
809.458	28531
809.6	28462
809.741	28588
809.883	28675
810.025	28641
810.166	28767
810.308	28713
810.45	28691
810.591	28668
810.733	28675
810.875	28519
811.016	28284
811.158	28344
811.299	28500
811.441	28649
811.582	28744
811.724	28443
811.865	28493
812.007	28436
812.148	28432
812.29	28603
812.431	28790
812.573	28968
812.714	28946
812.855	29018
812.997	29208
813.138	29132
813.279	29121
813.421	28923
813.562	29048
813.703	28961
813.845	28725
813.986	28493
814.127	28238
814.268	28303
814.41	28169
814.551	28158
814.692	28276
814.833	28112
814.974	28124
815.115	28303
815.256	28070
815.397	28025
815.539	27930
815.68	28074
815.821	27831
815.962	28036
816.103	28013
816.244	27762
816.385	27903
816.526	27690
816.666	27507
816.807	27485
816.948	27576
817.089	27656
817.23	27568
817.371	27405
817.512	27614
817.653	27439
817.793	27526
817.934	27652
818.075	27622
818.216	27545
818.356	27599
818.497	27378
818.638	27207
818.778	27359
818.919	27287
819.06	27249
819.2	27374
819.341	27564
819.481	27382
819.622	27587
819.762	27865
819.903	27846
820.043	27797
820.184	27610
820.324	27762
820.465	27603
820.605	27637
820.746	27705
820.886	27523
821.026	27698
821.167	27568
821.307	27515
821.447	27477
821.588	27405
821.728	27325
821.868	27104
822.008	27055
822.149	26963
822.289	26982
822.429	26674
822.569	26701
822.709	26552
822.849	26446
822.99	26556
823.13	26396
823.27	26438
823.41	26286
823.55	26294
823.69	26332
823.83	26385
823.97	26278
824.11	26142
824.25	26088
824.389	26046
824.529	26233
824.669	26168
824.809	26233
824.949	26317
825.089	26157
825.228	26282
825.368	26100
825.508	26005
825.648	25963
825.787	26126
825.927	26069
826.067	25959
826.206	26065
826.346	26088
826.485	26130
826.625	26008
826.765	26221
826.904	26001
827.044	25875
827.183	25826
827.323	25677
827.462	25761
827.601	25795
827.741	25647
827.88	25925
828.02	25727
828.159	25647
828.298	25841
828.437	25906
828.577	25761
828.716	25780
828.855	25670
828.994	25445
829.134	25559
829.273	25681
829.412	25365
829.551	25411
829.69	25460
829.829	25407
829.968	25491
830.107	25567
830.246	25487
830.385	25377
830.524	25377
830.663	25388
830.802	25080
830.941	25031
831.08	25076
831.219	25133
831.357	25099
831.496	25308
831.635	25118
831.774	25008
831.913	24996
832.051	24825
832.19	24875
832.329	24844
832.467	24703
832.606	24677
832.744	24715
832.883	24768
833.022	24616
833.16	24654
833.299	24772
833.437	24700
833.576	24837
833.714	24878
833.852	24897
833.991	24905
834.129	24928
834.267	24856
834.406	24840
834.544	24840
834.682	24715
834.821	24787
834.959	25015
835.097	24791
835.235	24901
835.373	24848
835.511	24787
835.65	24684
835.788	24688
835.926	24467
836.064	24437
836.202	24525
836.34	24684
836.478	24772
836.615	24620
836.753	24658
836.891	24658
837.029	24654
837.167	24578
837.305	24574
837.443	24467
837.58	24551
837.718	24631
837.856	24540
837.993	24448
838.131	24334
838.269	24395
838.406	24372
838.544	24308
838.681	24117
838.819	24087
838.956	24038
839.094	23840
839.231	24041
839.369	24064
839.506	24311
839.643	24114
839.781	23889
839.918	23946
840.055	24053
840.193	23775
840.33	23847
840.467	23939
840.604	23916
840.742	24064
840.879	23676
841.016	23821
841.153	23535
841.29	23977
841.427	23718
841.564	23939
841.701	23775
841.838	23714
841.975	23649
842.112	23661
842.249	23638
842.385	23551
842.522	23912
842.659	23783
842.796	23551
842.933	23547
843.069	23501
843.206	23486
843.343	23600
843.479	23604
843.616	23543
843.752	23490
843.889	23444
844.025	23512
844.162	23284
844.298	23478
844.435	23474
844.571	23288
844.708	23501
844.844	23596
844.98	23478
845.117	23448
845.253	23337
845.389	23220
845.525	23322
845.661	23227
845.798	23166
845.934	23143
846.07	23098
846.206	23090
846.342	23136
846.478	23166
846.614	22854
846.75	22873
846.886	22869
847.022	22915
847.158	22797
847.294	22873
847.429	22801
847.565	22889
847.701	23048
847.837	22497
847.972	22527
848.108	22634
848.244	22679
848.379	22592
848.515	22409
848.65	22440
848.786	22440
848.921	22436
849.057	22584
849.192	22455
849.328	22489
849.463	22455
849.598	22371
849.734	22352
849.869	22276
850.004	22253
850.14	22329
850.275	22010
850.41	22276
850.545	22215
850.68	22017
850.815	22192
850.95	21991
851.085	22462
851.22	22280
851.355	22185
851.49	22059
851.625	22185
851.76	22249
851.895	22120
852.03	22139
852.165	22040
852.299	22249
852.434	22363
852.569	22169
852.703	22234
852.838	22162
852.973	22405
853.107	22344
853.242	22181
853.376	21964
853.511	21842
853.645	21865
853.78	22044
853.914	22029
854.048	21960
854.183	21979
854.317	22036
854.451	22147
854.585	21926
854.72	22097
854.854	21953
854.988	22055
855.122	21994
855.256	21865
855.39	21865
855.524	22021
855.658	21972
855.792	21991
855.926	22055
856.06	22135
856.194	22112
856.327	21953
856.461	21930
856.595	21842
856.729	21945
856.862	22105
856.996	22017
857.13	22025
857.263	22116
857.397	22131
857.53	21941
857.664	22059
857.797	22097
857.931	22147
858.064	21930
858.197	22025
858.331	21964
858.464	21983
858.597	21850
858.731	22029
858.864	21979
858.997	21987
859.13	21937
859.263	22063
859.396	22097
859.529	21907
859.662	21979
859.795	21956
859.928	22093
860.061	22166
860.194	22230
860.327	21949
860.46	22006
860.592	22188
860.725	22059
860.858	22253
860.99	22002
861.123	21861
861.256	21816
861.388	22025
861.521	22736
861.653	21892
861.786	21869
861.918	21895
862.05	21785
862.183	21922
862.315	22051
862.447	22036
862.58	21884
862.712	21701
862.844	21751
862.976	21823
863.108	21823
863.24	21911
863.372	21705
863.504	21614
863.636	21709
863.768	21656
863.9	21671
864.032	21641
864.164	21591
864.296	21679
864.428	21781
864.559	21724
864.691	21690
864.823	21770
864.954	21705
865.086	21778
865.217	21625
865.349	21637
865.48	21568
865.612	21557
865.743	21759
865.875	21610
866.006	21591
866.137	21606
866.269	21485
866.4	21519
866.531	21542
866.662	21488
866.793	21447
866.924	21587
867.055	21416
867.186	21549
867.317	21542
867.448	21401
867.579	21469
867.71	21408
867.841	21374
867.972	21538
868.103	21374
868.233	21412
868.364	21507
868.495	21576
868.625	21679
868.756	21911
868.886	21663
869.017	21728
869.147	21819
869.278	21884
869.408	21713
869.539	21762
869.669	21880
869.799	21713
869.929	21873
870.06	21865
870.19	22078
870.32	21964
870.45	22078
870.58	22090
870.71	22177
870.84	22219
870.97	22242
871.1	22158
871.23	22325
871.36	22181
871.489	22253
871.619	22379
871.749	22367
871.879	22344
872.008	22432
872.138	22402
872.267	22325
872.397	22074
872.526	22204
872.656	22116
872.785	22105
872.915	22341
873.044	22462
873.173	22284
873.303	22405
873.432	22432
873.561	22382
873.69	22470
873.819	22238
873.948	22489
874.077	22398
874.206	22291
874.335	22348
874.464	22443
874.593	22554
874.722	22424
874.851	22527
874.979	22634
875.108	22656
875.237	22538
875.365	22409
875.494	22462
875.623	22630
875.751	22462
875.88	22679
876.008	22828
876.136	22698
876.265	22957
876.393	23181
876.521	23079
876.65	22976
876.778	23014
876.906	22995
877.034	23041
877.162	23025
877.29	22972
877.418	23056
877.546	22923
877.674	22942
877.802	22968
877.93	22877
878.058	22927
878.185	22763
878.313	22862
878.441	22885
878.568	22755
878.696	22850
878.824	22987
878.951	22976
879.079	23105
879.206	23277
879.333	23098
879.461	22999
879.588	23003
879.715	23048
879.842	23113
879.97	23052
880.097	22755
880.224	22641
880.351	22763
880.478	22790
880.605	22618
880.732	22687
880.859	22881
880.986	22725
881.112	22805
881.239	22592
881.366	22519
881.493	22272
881.619	22314
881.746	22394
881.872	22306
881.999	22249
882.125	22303
882.252	22421
882.378	22268
882.505	22348
882.631	22128
882.757	22082
882.883	22040
883.01	22059
883.136	21892
883.262	21823
883.388	21793
883.514	21915
883.64	21975
883.766	21835
883.892	21751
884.018	21831
884.143	21812
884.269	21975
884.395	21671
884.52	21572
884.646	21701
884.772	21736
884.897	21488
885.023	21583
885.148	21739
885.274	21759
885.399	21644
885.524	21671
885.65	21656
885.775	21610
885.9	21633
886.025	21705
886.15	21736
886.275	21580
886.4	21701
886.525	21603
886.65	21644
886.775	21679
886.9	21660
887.025	21835
887.149	21523
887.274	21306
887.399	21435
887.523	21473
887.648	21412
887.773	21355
887.897	21587
888.021	21473
888.146	21264
888.27	21496
888.395	21473
888.519	21412
888.643	21416
888.767	21420
888.891	21287
889.015	21291
889.139	21264
889.263	21043
889.387	21344
889.511	21325
889.635	21195
889.759	21043
889.883	21173
890.006	21138
890.13	21272
890.254	21005
890.377	21127
890.501	20861
890.624	20876
890.748	20910
890.871	20762
890.995	20785
891.118	20568
891.241	20583
891.364	20693
891.488	20773
891.611	20792
891.734	20792
891.857	20933
891.98	20708
892.103	20804
892.226	20655
892.349	20727
892.471	20598
892.594	20663
892.717	20716
892.839	20644
892.962	20693
893.085	20629
893.207	20701
893.33	20533
893.452	20518
893.575	20716
893.697	20712
893.819	20785
893.941	20876
894.064	20781
894.186	20644
894.308	20602
894.43	20590
894.552	20758
894.674	20659
894.796	20488
894.918	20594
895.04	20507
895.161	20613
895.283	20686
895.405	20484
895.526	20739
895.648	20663
895.769	20636
895.891	20670
896.012	20659
896.134	20655
896.255	20644
896.376	20670
896.498	20571
896.619	20621
896.74	20727
896.861	20674
896.982	21009
897.103	21108
897.224	20800
897.345	20765
897.466	20804
897.587	20876
897.708	21039
897.828	20937
897.949	20941
898.07	20693
898.19	20765
898.311	20918
898.431	20804
898.552	20758
898.672	20937
898.792	20842
898.913	20933
899.033	20663
899.153	20613
899.273	20499
899.393	20507
899.513	20697
899.633	20526
899.753	20640
899.873	20518
899.993	20545
900.113	20461
900.232	20693
900.352	20583
900.472	20419
900.591	20309
900.711	20412
900.83	20324
900.95	20423
901.069	20404
901.189	20237
901.308	19959
901.427	19955
901.546	19928
901.665	19951
901.784	19959
901.904	19780
902.023	19609
902.141	19632
902.26	19559
902.379	19476
902.498	19377
902.617	19278
902.735	19457
902.854	19392
902.973	19285
903.091	19118
903.21	19137
903.328	18962
903.446	19019
903.565	18875
903.683	18852
903.801	18749
903.919	18852
904.038	18833
904.156	18681
904.274	18772
904.392	18688
904.51	18658
904.627	18585
904.745	18616
904.863	18677
904.981	18483
905.098	18330
905.216	18388
905.334	18247
905.451	18350
905.569	18346
905.686	18410
905.803	18350
905.921	18232
906.038	18148
906.155	18148
906.272	18007
906.389	18159
906.506	17836
906.623	17939
906.74	17904
906.857	17726
906.974	17760
907.091	17821
907.208	17920
907.324	17824
907.441	17779
907.557	17554
907.674	17532
907.79	17509
907.907	17490
908.023	17512
908.139	17554
908.256	17570
908.372	17410
908.488	17444
908.604	17356
908.72	17242
908.836	17387
908.952	17246
909.068	17128
909.184	17368
909.3	17235
909.415	17216
909.531	17246
909.647	16934
909.762	17003
909.878	17010
909.993	16961
910.108	16953
910.224	16908
910.339	16949
910.454	16835
910.57	16839
910.685	16755
910.8	16972
910.915	16927
911.03	16729
911.145	16683
911.259	16584
911.374	16584
911.489	16508
911.604	16394
911.718	16226
911.833	16348
911.947	16306
912.062	16116
912.176	16341
912.291	16192
912.405	16204
912.519	16466
912.633	16424
912.748	16367
912.862	16325
912.976	16196
913.09	16040
913.204	16067
913.318	16101
913.431	16280
913.545	16284
913.659	16234
913.772	16063
913.886	15983
914	15846
914.113	15991
914.226	15975
914.34	16002
914.453	15926
914.566	15949
914.68	15823
914.793	15778
914.906	15557
915.019	15599
915.132	15420
915.245	15530
915.358	15466
915.47	15504
915.583	15454
915.696	15591
915.809	15736
915.921	15603
916.034	15515
916.146	15386
916.259	15332
916.371	15462
916.483	15625
916.595	15306
916.708	15363
916.82	15302
916.932	15279
917.044	15287
917.156	15245
917.268	15142
917.38	15260
917.491	15123
917.603	15119
917.715	15218
917.826	15279
917.938	15028
918.049	14967
918.161	15032
918.272	15214
918.384	15199
918.495	15062
918.606	14979
918.717	14906
918.828	14887
918.939	14975
919.05	14750
919.161	14876
919.272	14735
919.383	14762
919.494	14967
919.604	15032
919.715	14910
919.826	14811
919.936	14921
920.047	14864
920.157	14842
920.267	15058
920.378	14792
920.488	14716
920.598	15013
920.708	15001
920.818	14941
920.928	14952
921.038	15066
921.148	15176
921.258	14804
921.368	14750
921.477	14602
921.587	14606
921.697	14412
921.806	14533
921.916	14412
922.025	14317
922.134	14286
922.244	14191
922.353	14240
922.462	14062
922.571	14020
922.68	13928
922.789	13849
922.898	13898
923.007	13780
923.116	13814
923.224	13868
923.333	13799
923.442	13704
923.55	13689
923.659	13715
923.767	13738
923.876	13609
923.984	13719
924.092	13571
924.201	13616
924.309	13624
924.417	13521
924.525	13636
924.633	13540
924.741	14225
924.849	13331
924.956	13422
925.064	13236
925.172	13278
925.279	13240
925.387	13270
925.494	13255
925.602	13373
925.709	13339
925.816	13122
925.924	13164
926.031	13293
926.138	13133
926.245	13285
926.352	13141
926.459	13270
926.566	13171
926.673	13114
926.779	13000
926.886	13065
926.993	12913
927.099	12840
927.206	12772
927.312	12783
927.419	12757
927.525	12867
927.631	12817
927.737	12741
927.843	12616
927.95	12483
928.056	12601
928.162	12700
928.267	12650
928.373	13270
928.479	12669
928.585	12414
928.69	12635
928.796	12662
928.901	12464
929.007	12369
929.112	12437
929.218	12426
929.323	12365
929.428	12357
929.533	12437
929.638	12292
929.743	12235
929.848	12308
929.953	12292
930.058	12148
930.163	11977
930.267	12034
930.372	12216
930.477	11885
930.581	12194
930.685	12068
930.79	11859
930.894	11901
930.998	11901
931.103	12038
931.207	11668
931.311	11619
931.415	11490
931.519	11288
931.623	11246
