Data from test_V78500241_3476.txt Node
Date: Fri Mar 25 15:34:03 CST 2022
User: usil
Spectrometer: V785-0024
Trigger mode: 0
Integration Time (sec): 4.000000E-1
Scans to average: 1
Nonlinearity correction enabled: false
Boxcar width: 0
Storing dark spectrum: false
XAxis mode: Wavelengths
Number of Pixels in Spectrum: 1024
>>>>>Begin Spectral Data<<<<<
801.071	27317
801.214	27306
801.356	27032
801.499	27020
801.641	26826
801.783	26887
801.926	26857
802.068	26731
802.211	26754
802.353	26720
802.496	26594
802.638	26549
802.78	26469
802.923	26271
803.065	26328
803.208	26450
803.35	26488
803.492	26526
803.635	26678
803.777	26484
803.919	26480
804.061	26971
804.204	26743
804.346	26705
804.488	26484
804.63	26724
804.773	26537
804.915	26739
805.057	26625
805.199	26670
805.341	26579
805.483	26796
805.626	26739
805.768	26689
805.91	26731
806.052	26697
806.194	26552
806.336	26891
806.478	26693
806.62	26735
806.762	26940
806.904	26876
807.046	27192
807.188	27169
807.33	27169
807.472	27214
807.614	27074
807.756	27013
807.898	26960
808.04	26998
808.182	26895
808.324	26872
808.465	27013
808.607	27131
808.749	27256
808.891	27355
809.033	27511
809.174	27523
809.316	27294
809.458	27329
809.6	27272
809.741	27386
809.883	27488
810.025	27648
810.166	27572
810.308	27675
810.45	27523
810.591	27557
810.733	27424
810.875	27310
811.016	27344
811.158	27173
811.299	27523
811.441	27477
811.582	27538
811.724	27355
811.865	27283
812.007	27207
812.148	27287
812.29	27279
812.431	27462
812.573	27652
812.714	27774
812.855	27793
812.997	27911
813.138	28074
813.279	28013
813.421	27663
813.562	27759
813.703	27644
813.845	27435
813.986	27157
814.127	27051
814.268	26929
814.41	27058
814.551	26929
814.692	26979
814.833	26940
814.974	27077
815.115	26979
815.256	26861
815.397	26891
815.539	26838
815.68	26651
815.821	26765
815.962	26849
816.103	26739
816.244	26450
816.385	26568
816.526	26545
816.666	26320
816.807	26237
816.948	26408
817.089	26431
817.23	26286
817.371	26290
817.512	26210
817.653	26275
817.793	26088
817.934	26278
818.075	26233
818.216	26358
818.356	26149
818.497	26043
818.638	25989
818.778	25993
818.919	26031
819.06	26145
819.2	26229
819.341	26157
819.481	26313
819.622	26328
819.762	26488
819.903	26526
820.043	26442
820.184	26408
820.324	26286
820.465	26507
820.605	26263
820.746	26187
820.886	26286
821.026	26389
821.167	26202
821.307	26320
821.447	26221
821.588	26073
821.728	26008
821.868	25799
822.008	25658
822.149	25746
822.289	25712
822.429	25392
822.569	25285
822.709	25529
822.849	25304
822.99	25266
823.13	25141
823.27	25221
823.41	25031
823.55	24928
823.69	25027
823.83	25065
823.97	24970
824.11	24783
824.25	24745
824.389	24772
824.529	24875
824.669	24970
824.809	24909
824.949	24951
825.089	25000
825.228	24947
825.368	24623
825.508	24642
825.648	24646
825.787	24722
825.927	24802
826.067	24673
826.206	24677
826.346	24692
826.485	24821
826.625	24741
826.765	24882
826.904	24738
827.044	24589
827.183	24471
827.323	24437
827.462	24525
827.601	24334
827.741	24464
827.88	24308
828.02	24471
828.159	24292
828.298	24502
828.437	24486
828.577	24517
828.716	24544
828.855	24361
828.994	24098
829.134	24152
829.273	24148
829.412	24144
829.551	24030
829.69	24110
829.829	24319
829.968	24201
830.107	24178
830.246	24205
830.385	24076
830.524	24022
830.663	23908
830.802	23920
830.941	23767
831.08	23585
831.219	23836
831.357	23901
831.496	23927
831.635	23707
831.774	23733
831.913	23592
832.051	23638
832.19	23547
832.329	23520
832.467	23520
832.606	23330
832.744	23478
832.883	23524
833.022	23455
833.16	23391
833.299	23505
833.437	23497
833.576	23623
833.714	23592
833.852	23642
833.991	23630
834.129	23642
834.267	23596
834.406	23581
834.544	23501
834.682	23554
834.821	23482
834.959	23726
835.097	23509
835.235	23520
835.373	23471
835.511	23539
835.65	23379
835.788	23360
835.926	23337
836.064	23162
836.202	23143
836.34	23425
836.478	23524
836.615	23315
836.753	23383
836.891	23455
837.029	23345
837.167	23284
837.305	23292
837.443	23166
837.58	23246
837.718	23299
837.856	23136
837.993	23242
838.131	23181
838.269	23071
838.406	23044
838.544	23044
838.681	22763
838.819	22858
838.956	22759
839.094	22752
839.231	22717
839.369	22835
839.506	23014
839.643	23067
839.781	22698
839.918	22573
840.055	22679
840.193	22679
840.33	22679
840.467	22641
840.604	22607
840.742	22938
840.879	22546
841.016	22523
841.153	22402
841.29	22744
841.427	22698
841.564	22622
841.701	22580
841.838	22599
841.975	22546
842.112	22527
842.249	22436
842.385	22440
842.522	22668
842.659	22455
842.796	22375
842.933	22337
843.069	22386
843.206	22348
843.343	22489
843.479	22280
843.616	22409
843.752	22093
843.889	22051
844.025	22356
844.162	22006
844.298	22310
844.435	22097
844.571	22154
844.708	22169
844.844	22390
844.98	22382
845.117	22291
845.253	22131
845.389	22013
845.525	22162
845.661	21998
845.798	21865
845.934	22059
846.07	21850
846.206	22025
846.342	22090
846.478	21869
846.614	21671
846.75	21739
846.886	21614
847.022	21690
847.158	21739
847.294	21656
847.429	21644
847.565	21648
847.701	21823
847.837	21435
847.972	21325
848.108	21367
848.244	21458
848.379	21329
848.515	21230
848.65	21154
848.786	21222
848.921	21359
849.057	21469
849.192	21336
849.328	21222
849.463	21355
849.598	21077
849.734	21085
849.869	21058
850.004	21047
850.14	20982
850.275	21020
850.41	21047
850.545	20857
850.68	20971
850.815	21070
850.95	21112
851.085	21100
851.22	21100
851.355	21009
851.49	21036
851.625	21028
851.76	21032
851.895	20925
852.03	20933
852.165	21047
852.299	21165
852.434	21066
852.569	21154
852.703	20948
852.838	20906
852.973	21131
853.107	21188
853.242	20891
853.376	20948
853.511	20682
853.645	20861
853.78	20971
853.914	20845
854.048	20941
854.183	20739
854.317	20792
854.451	20963
854.585	20773
854.72	20853
854.854	20830
854.988	20845
855.122	20830
855.256	20754
855.39	20842
855.524	20899
855.658	20975
855.792	20845
855.926	20788
856.06	20868
856.194	20921
856.327	20746
856.461	20819
856.595	20773
856.729	20716
856.862	20960
856.996	20895
857.13	20899
857.263	21055
857.397	20842
857.53	20796
857.664	20842
857.797	20921
857.931	20967
858.064	20895
858.197	20979
858.331	20800
858.464	20815
858.597	20663
858.731	20777
858.864	20902
858.997	20857
859.13	20815
859.263	20746
859.396	20849
859.529	20773
859.662	20712
859.795	20845
859.928	20891
860.061	20933
860.194	20963
860.327	20830
860.46	20883
860.592	20986
860.725	20975
860.858	20899
860.99	20800
861.123	20743
861.256	20670
861.388	20785
861.521	21496
861.653	20693
861.786	20674
861.918	20674
862.05	20762
862.183	20689
862.315	20811
862.447	20857
862.58	20781
862.712	20598
862.844	20473
862.976	20598
863.108	20598
863.24	21077
863.372	20560
863.504	20541
863.636	20530
863.768	20651
863.9	20617
864.032	20480
864.164	20530
864.296	20461
864.428	20750
864.559	20537
864.691	20594
864.823	20442
864.954	20522
865.086	20461
865.217	20377
865.349	20514
865.48	20434
865.612	20385
865.743	20598
865.875	20431
866.006	20419
866.137	20427
866.269	20442
866.4	20370
866.531	20332
866.662	20347
866.793	20381
866.924	20377
867.055	20507
867.186	20575
867.317	20225
867.448	20343
867.579	20362
867.71	20278
867.841	20259
867.972	20396
868.103	20320
868.233	20313
868.364	20328
868.495	20377
868.625	20594
868.756	20701
868.886	20476
869.017	20530
869.147	20701
869.278	20678
869.408	20727
869.539	20712
869.669	20682
869.799	20754
869.929	20796
870.06	20724
870.19	21013
870.32	20902
870.45	21036
870.58	21070
870.71	20971
870.84	21108
870.97	21009
871.1	21028
871.23	21214
871.36	21154
871.489	21017
871.619	21195
871.749	21165
871.879	21184
872.008	21424
872.138	21264
872.267	21184
872.397	21188
872.526	21043
872.656	20982
872.785	21055
872.915	21260
873.044	21241
873.173	21275
873.303	21313
873.432	21302
873.561	21310
873.69	21287
873.819	21081
873.948	21226
874.077	21260
874.206	21222
874.335	21283
874.464	21294
874.593	21553
874.722	21511
874.851	21595
874.979	21511
875.108	21587
875.237	21492
875.365	21329
875.494	21447
875.623	21603
875.751	21466
875.88	21530
876.008	21603
876.136	21797
876.265	21983
876.393	21983
876.521	21915
876.65	22021
876.778	21838
876.906	21846
877.034	21827
877.162	21819
877.29	21835
877.418	21842
877.546	21937
877.674	21812
877.802	21922
877.93	21873
878.058	21819
878.185	21701
878.313	21766
878.441	21911
878.568	21751
878.696	21785
878.824	21945
878.951	21926
879.079	22124
879.206	22078
879.333	22040
879.461	21865
879.588	21941
879.715	22112
879.842	22082
879.97	21899
880.097	21637
880.224	21614
880.351	21762
880.478	21732
880.605	21526
880.732	21656
880.859	21934
880.986	21629
881.112	21743
881.239	21641
881.366	21408
881.493	21222
881.619	21389
881.746	21386
881.872	21268
881.999	21310
882.125	21131
882.252	21317
882.378	21161
882.505	21519
882.631	21226
882.757	20899
882.883	21017
883.01	21058
883.136	20975
883.262	20861
883.388	20743
883.514	21009
883.64	21089
883.766	20857
883.892	20758
884.018	20708
884.143	21024
884.269	20952
884.395	20720
884.52	20564
884.646	20564
884.772	20609
884.897	20556
885.023	20705
885.148	20609
885.274	20769
885.399	20701
885.524	20613
885.65	20613
885.775	20617
885.9	20754
886.025	20724
886.15	20777
886.275	20617
886.4	20454
886.525	20613
886.65	20522
886.775	20545
886.9	20720
887.025	20902
887.149	20587
887.274	20423
887.399	20366
887.523	20393
887.648	20377
887.773	20290
887.897	20393
888.021	20461
888.146	20339
888.27	20465
888.395	20522
888.519	20377
888.643	20415
888.767	20446
888.891	20313
889.015	20267
889.139	20259
889.263	20199
889.387	20324
889.511	20408
889.635	20374
889.759	20138
889.883	20202
890.006	20210
890.13	20305
890.254	20111
890.377	20168
890.501	19898
890.624	19989
890.748	19936
890.871	19860
890.995	19674
891.118	19647
891.241	19776
891.364	19856
891.488	19925
891.611	19845
891.734	19704
891.857	19826
891.98	19715
892.103	19750
892.226	19845
892.349	19643
892.471	19639
892.594	19712
892.717	19696
892.839	19731
892.962	19727
893.085	19738
893.207	19746
893.33	19529
893.452	19502
893.575	19719
893.697	19662
893.819	19765
893.941	19799
894.064	19833
894.186	19613
894.308	19677
894.43	19723
894.552	19822
894.674	19845
894.796	19613
894.918	19594
895.04	19639
895.161	19803
895.283	19776
895.405	19712
895.526	19651
895.648	19712
895.769	19639
895.891	19791
896.012	19734
896.134	19746
896.255	19731
896.376	19563
896.498	19655
896.619	19738
896.74	19712
896.861	19734
896.982	20084
897.103	20119
897.224	19913
897.345	19818
897.466	19936
897.587	19928
897.708	20073
897.828	19887
897.949	19936
898.07	19693
898.19	19868
898.311	20062
898.431	19947
898.552	19940
898.672	19947
898.792	19936
898.913	19849
899.033	19814
899.153	19708
899.273	19582
899.393	19674
899.513	19719
899.633	19658
899.753	19746
899.873	19590
899.993	19803
900.113	19704
900.232	19601
900.352	19571
900.472	19487
900.591	19480
900.711	19441
900.83	19396
900.95	19548
901.069	19460
901.189	19308
901.308	19198
901.427	18985
901.546	19015
901.665	19019
901.784	19072
901.904	18894
902.023	18772
902.141	18650
902.26	18551
902.379	18620
902.498	18467
902.617	18551
902.735	18513
902.854	18479
902.973	18471
903.091	18194
903.21	18197
903.328	18152
903.446	18102
903.565	18121
903.683	17965
903.801	17904
903.919	17908
904.038	17923
904.156	17935
904.274	17901
904.392	17767
904.51	17847
904.627	17783
904.745	17798
904.863	17836
904.981	17596
905.098	17444
905.216	17493
905.334	17558
905.451	17547
905.569	17467
905.686	17417
905.803	17478
905.921	17337
906.038	17406
906.155	17292
906.272	17033
906.389	17185
906.506	16923
906.623	17052
906.74	16946
906.857	16812
906.974	16938
907.091	17029
907.208	17113
907.324	16930
907.441	16866
907.557	16748
907.674	16759
907.79	16748
907.907	16645
908.023	16816
908.139	16835
908.256	16733
908.372	16679
908.488	16580
908.604	16561
908.72	16440
908.836	16523
908.952	16519
909.068	16459
909.184	16561
909.3	16440
909.415	16603
909.531	16440
909.647	16261
909.762	16207
909.878	16105
909.993	16230
910.108	16032
910.224	16116
910.339	16116
910.454	16051
910.57	16029
910.685	15972
910.8	16109
910.915	16124
911.03	16010
911.145	15831
911.259	15739
911.374	15690
911.489	15705
911.604	15599
911.718	15530
911.833	15519
911.947	15469
912.062	15355
912.176	15454
912.291	15564
912.405	15572
912.519	15770
912.633	15762
912.748	15549
912.862	15523
912.976	15325
913.09	15245
913.204	15218
913.318	15340
913.431	15447
913.545	15542
913.659	15355
913.772	15268
913.886	15184
914	15135
914.113	15199
914.226	15302
914.34	15203
914.453	15192
914.566	15237
914.68	14967
914.793	14994
914.906	14857
915.019	14773
915.132	14727
915.245	14739
915.358	14693
915.47	14762
915.583	14670
915.696	14804
915.809	14830
915.921	14796
916.034	14720
916.146	14762
916.259	14651
916.371	14667
916.483	14762
916.595	14590
916.708	14792
916.82	14693
916.932	14629
917.044	14530
917.156	14499
917.268	14476
917.38	14533
917.491	14389
917.603	14503
917.715	14473
917.826	14495
917.938	14396
918.049	14328
918.161	14400
918.272	14522
918.384	14549
918.495	14412
918.606	14191
918.717	14168
918.828	14267
918.939	14218
919.05	14172
919.161	14168
919.272	13932
919.383	14065
919.494	14180
919.604	14438
919.715	14263
919.826	14088
919.936	14145
920.047	14267
920.157	14168
920.267	14389
920.378	14252
920.488	14176
920.598	14259
920.708	14511
920.818	14343
920.928	14252
921.038	14438
921.148	14454
921.258	14107
921.368	13978
921.477	13932
921.587	13909
921.697	13765
921.806	13906
921.916	13757
922.025	13677
922.134	13620
922.244	13586
922.353	13552
922.462	13491
922.571	13445
922.68	13335
922.789	13209
922.898	13240
923.007	13114
923.116	13266
923.224	13221
923.333	13137
923.442	13057
923.55	13000
923.659	13088
923.767	13137
923.876	12981
923.984	13057
924.092	12947
924.201	13038
924.309	13004
924.417	13000
924.525	12848
924.633	12928
924.741	13639
924.849	12620
924.956	12867
925.064	12677
925.172	12585
925.279	12578
925.387	12650
925.494	12623
925.602	12863
925.709	12639
925.816	12532
925.924	12601
926.031	12669
926.138	12601
926.245	12631
926.352	12475
926.459	12654
926.566	12646
926.673	12589
926.779	12414
926.886	12426
926.993	12327
927.099	12194
927.206	12136
927.312	12155
927.419	12323
927.525	12175
927.631	12262
927.737	12121
927.843	12072
927.95	11977
928.056	11980
928.162	12102
928.267	12087
928.373	12639
928.479	12144
928.585	11901
928.69	12030
928.796	12068
928.901	11897
929.007	11802
929.112	11916
929.218	11817
929.323	11783
929.428	11855
929.533	11901
929.638	11714
929.743	11748
929.848	11775
929.953	11809
930.058	11615
930.163	11463
930.267	11490
930.372	11539
930.477	11414
930.581	11611
930.685	11490
930.79	11364
930.894	11383
930.998	11349
931.103	11471
931.207	11166
931.311	11079
931.415	10980
931.519	10763
931.623	10771
