Data from test_V78500241_1040.txt Node
Date: Fri Mar 25 15:17:05 CST 2022
User: usil
Spectrometer: V785-0024
Trigger mode: 0
Integration Time (sec): 4.000000E-1
Scans to average: 1
Nonlinearity correction enabled: false
Boxcar width: 0
Storing dark spectrum: false
XAxis mode: Wavelengths
Number of Pixels in Spectrum: 1024
>>>>>Begin Spectral Data<<<<<
801.071	28375
801.214	28249
801.356	28010
801.499	27956
801.641	27888
801.783	27823
801.926	27914
802.068	27694
802.211	27667
802.353	27743
802.496	27633
802.638	27431
802.78	27538
802.923	27431
803.065	27424
803.208	27408
803.35	27469
803.492	27618
803.635	27739
803.777	27530
803.919	27785
804.061	27964
804.204	27846
804.346	27622
804.488	27629
804.63	27686
804.773	27686
804.915	27759
805.057	27903
805.199	27793
805.341	27888
805.483	27907
805.626	27816
805.768	27785
805.91	27899
806.052	27800
806.194	27800
806.336	28101
806.478	28048
806.62	27918
806.762	28090
806.904	28162
807.046	28261
807.188	28356
807.33	28234
807.472	28409
807.614	28295
807.756	28280
807.898	28367
808.04	28169
808.182	27991
808.324	28295
808.465	28272
808.607	28417
808.749	28455
808.891	28519
809.033	28675
809.174	28588
809.316	28451
809.458	28653
809.6	28363
809.741	28717
809.883	28729
810.025	28809
810.166	28763
810.308	28752
810.45	28744
810.591	28679
810.733	28713
810.875	28618
811.016	28447
811.158	28462
811.299	28740
811.441	28744
811.582	28557
811.724	28577
811.865	28527
812.007	28679
812.148	28561
812.29	28664
812.431	28786
812.573	28892
812.714	28965
812.855	29208
812.997	29132
813.138	29299
813.279	29269
813.421	29086
813.562	29079
813.703	28946
813.845	28729
813.986	28519
814.127	28333
814.268	28424
814.41	28242
814.551	28265
814.692	28234
814.833	28226
814.974	28139
815.115	28318
815.256	28090
815.397	28051
815.539	28021
815.68	28093
815.821	27994
815.962	28166
816.103	28051
816.244	27934
816.385	27884
816.526	27728
816.666	27759
816.807	27618
816.948	27667
817.089	27762
817.23	27679
817.371	27473
817.512	27606
817.653	27534
817.793	27648
817.934	27603
818.075	27599
818.216	27523
818.356	27496
818.497	27492
818.638	27294
818.778	27355
818.919	27507
819.06	27431
819.2	27557
819.341	27652
819.481	27644
819.622	27648
819.762	27892
819.903	27934
820.043	27774
820.184	27641
820.324	27625
820.465	27667
820.605	27690
820.746	27724
820.886	27450
821.026	27599
821.167	27496
821.307	27713
821.447	27568
821.588	27443
821.728	27443
821.868	27176
822.008	27093
822.149	27184
822.289	27036
822.429	26838
822.569	26785
822.709	26735
822.849	26587
822.99	26571
823.13	26552
823.27	26503
823.41	26438
823.55	26259
823.69	26423
823.83	26465
823.97	26400
824.11	26237
824.25	26172
824.389	26328
824.529	26389
824.669	26237
824.809	26351
824.949	26385
825.089	26233
825.228	26305
825.368	25997
825.508	26130
825.648	26107
825.787	26126
825.927	26073
826.067	25955
826.206	26195
826.346	26210
826.485	26294
826.625	26115
826.765	26191
826.904	26172
827.044	25906
827.183	25830
827.323	25784
827.462	25955
827.601	25822
827.741	25772
827.88	25978
828.02	25769
828.159	25849
828.298	25868
828.437	25887
828.577	25784
828.716	25864
828.855	25868
828.994	25544
829.134	25594
829.273	25647
829.412	25487
829.551	25396
829.69	25483
829.829	25590
829.968	25616
830.107	25571
830.246	25468
830.385	25464
830.524	25457
830.663	25449
830.802	25346
830.941	25244
831.08	25065
831.219	25301
831.357	25259
831.496	25373
831.635	25118
831.774	25069
831.913	25053
832.051	25095
832.19	24951
832.329	25000
832.467	24665
832.606	24924
832.744	24707
832.883	24787
833.022	24798
833.16	25088
833.299	24954
833.437	24977
833.576	24989
833.714	24977
833.852	25133
833.991	25061
834.129	25088
834.267	25034
834.406	24954
834.544	24875
834.682	24882
834.821	24753
834.959	24966
835.097	24875
835.235	25080
835.373	24897
835.511	24882
835.65	24749
835.788	24844
835.926	24593
836.064	24578
836.202	24582
836.34	24681
836.478	24829
836.615	24673
836.753	24688
836.891	24779
837.029	24734
837.167	24719
837.305	24749
837.443	24521
837.58	24555
837.718	24798
837.856	24658
837.993	24540
838.131	24627
838.269	24414
838.406	24452
838.544	24414
838.681	24353
838.819	24247
838.956	23996
839.094	23984
839.231	24083
839.369	24235
839.506	24426
839.643	24327
839.781	23992
839.918	24045
840.055	24030
840.193	23954
840.33	23916
840.467	24095
840.604	24011
840.742	24228
840.879	23870
841.016	24026
841.153	23847
841.29	24072
841.427	23916
841.564	23977
841.701	23836
841.838	23882
841.975	23748
842.112	23939
842.249	23646
842.385	23668
842.522	23916
842.659	23783
842.796	23817
842.933	23668
843.069	23589
843.206	23691
843.343	23821
843.479	23680
843.616	23745
843.752	23634
843.889	23493
844.025	23592
844.162	23448
844.298	23562
844.435	23478
844.571	23505
844.708	23642
844.844	23623
844.98	23615
845.117	23623
845.253	23444
845.389	23429
845.525	23463
845.661	23429
845.798	23128
845.934	23227
846.07	23227
846.206	23166
846.342	23379
846.478	23216
846.614	23151
846.75	23014
846.886	22995
847.022	23071
847.158	23022
847.294	23124
847.429	23094
847.565	23018
847.701	23250
847.837	22729
847.972	22630
848.108	22797
848.244	22820
848.379	22603
848.515	22588
848.65	22542
848.786	22649
848.921	22550
849.057	22729
849.192	22649
849.328	22679
849.463	22618
849.598	22645
849.734	22516
849.869	22474
850.004	22272
850.14	22462
850.275	22443
850.41	22356
850.545	22405
850.68	22299
850.815	22394
850.95	22382
851.085	22398
851.22	22371
851.355	22257
851.49	22405
851.625	22318
851.76	22291
851.895	22177
852.03	22219
852.165	22306
852.299	22329
852.434	22367
852.569	22413
852.703	22306
852.838	22341
852.973	22455
853.107	22535
853.242	22356
853.376	22211
853.511	22044
853.645	22200
853.78	22261
853.914	22192
854.048	22234
854.183	22158
854.317	22272
854.451	22447
854.585	22234
854.72	22173
854.854	22367
854.988	21987
855.122	22124
855.256	22078
855.39	22135
855.524	22158
855.658	22181
855.792	22177
855.926	22158
856.06	22082
856.194	22318
856.327	22150
856.461	22196
856.595	22067
856.729	22090
856.862	22284
856.996	22143
857.13	22177
857.263	22215
857.397	22249
857.53	22109
857.664	22265
857.797	22295
857.931	22291
858.064	22230
858.197	22158
858.331	22169
858.464	22166
858.597	22093
858.731	22078
858.864	22169
858.997	22147
859.13	22105
859.263	22051
859.396	22204
859.529	22147
859.662	22124
859.795	21979
859.928	22196
860.061	22257
860.194	22348
860.327	22287
860.46	22230
860.592	22303
860.725	22337
860.858	22284
860.99	22128
861.123	22055
861.256	22070
861.388	22249
861.521	22782
861.653	21991
861.786	22013
861.918	21972
862.05	22074
862.183	22051
862.315	22063
862.447	22158
862.58	22013
862.712	21911
862.844	21778
862.976	21812
863.108	21892
863.24	22287
863.372	21911
863.504	21835
863.636	21937
863.768	21823
863.9	21903
864.032	21880
864.164	21785
864.296	21850
864.428	21964
864.559	21964
864.691	21972
864.823	21789
864.954	21831
865.086	21892
865.217	21800
865.349	21743
865.48	21766
865.612	21724
865.743	21911
865.875	21831
866.006	21675
866.137	21652
866.269	21751
866.4	21739
866.531	21720
866.662	21622
866.793	21618
866.924	21595
867.055	21701
867.186	21694
867.317	21622
867.448	21538
867.579	21682
867.71	21629
867.841	21667
867.972	21732
868.103	21675
868.233	21675
868.364	21603
868.495	21797
868.625	21918
868.756	21994
868.886	21884
869.017	21979
869.147	22070
869.278	22010
869.408	21953
869.539	21903
869.669	21979
869.799	21899
869.929	21975
870.06	22074
870.19	22181
870.32	22223
870.45	22337
870.58	22291
870.71	22341
870.84	22333
870.97	22135
871.1	22257
871.23	22382
871.36	22440
871.489	22348
871.619	22356
871.749	22481
871.879	22542
872.008	22588
872.138	22424
872.267	22516
872.397	22265
872.526	22341
872.656	22352
872.785	22223
872.915	22489
873.044	22615
873.173	22459
873.303	22557
873.432	22550
873.561	22660
873.69	22603
873.819	22542
873.948	22512
874.077	22527
874.206	22424
874.335	22485
874.464	22664
874.593	22911
874.722	22596
874.851	22755
874.979	22687
875.108	22805
875.237	22611
875.365	22535
875.494	22748
875.623	22881
875.751	22736
875.88	22687
876.008	22790
876.136	22976
876.265	23147
876.393	23151
876.521	23086
876.65	23250
876.778	23185
876.906	23029
877.034	22980
877.162	22987
877.29	23041
877.418	23166
877.546	23037
877.674	23143
877.802	23003
877.93	22957
878.058	23090
878.185	22930
878.313	23037
878.441	23094
878.568	22877
878.696	23022
878.824	23105
878.951	23155
879.079	23170
879.206	23208
879.333	23311
879.461	23143
879.588	23094
879.715	23254
879.842	23326
879.97	23269
880.097	22850
880.224	22790
880.351	22915
880.478	22953
880.605	22942
880.732	22847
880.859	23010
880.986	22915
881.112	22877
881.239	22797
881.366	22584
881.493	22500
881.619	22504
881.746	22519
881.872	22413
881.999	22375
882.125	22367
882.252	22375
882.378	22436
882.505	22500
882.631	22325
882.757	22284
882.883	22238
883.01	22185
883.136	22097
883.262	22029
883.388	22029
883.514	22082
883.64	22090
883.766	22169
883.892	21899
884.018	22029
884.143	22093
884.269	22093
884.395	21880
884.52	21838
884.646	21705
884.772	21637
884.897	21637
885.023	21785
885.148	21823
885.274	21998
885.399	21850
885.524	21766
885.65	21755
885.775	21819
885.9	21755
886.025	21827
886.15	21903
886.275	21709
886.4	21564
886.525	21812
886.65	21648
886.775	21785
886.9	21770
887.025	21983
887.149	21713
887.274	21618
887.399	21507
887.523	21469
887.648	21424
887.773	21443
887.897	21667
888.021	21549
888.146	21511
888.27	21637
888.395	21709
888.519	21519
888.643	21507
888.767	21553
888.891	21485
889.015	21306
889.139	21359
889.263	21283
889.387	21564
889.511	21534
889.635	21431
889.759	21363
889.883	21351
890.006	21184
890.13	21336
890.254	21291
890.377	21195
890.501	21066
890.624	21077
890.748	21142
890.871	21017
890.995	20998
891.118	20853
891.241	20929
891.364	20960
891.488	21093
891.611	20853
891.734	20910
891.857	20929
891.98	20876
892.103	20944
892.226	20792
892.349	20788
892.471	20625
892.594	20823
892.717	20796
892.839	20792
892.962	20773
893.085	20834
893.207	20754
893.33	20674
893.452	20720
893.575	20895
893.697	20834
893.819	20944
893.941	21028
894.064	20933
894.186	20655
894.308	20602
894.43	20876
894.552	20853
894.674	20826
894.796	20693
894.918	20739
895.04	20731
895.161	20826
895.283	20743
895.405	20659
895.526	20830
895.648	20796
895.769	20716
895.891	20800
896.012	20906
896.134	20765
896.255	20762
896.376	20712
896.498	20720
896.619	20686
896.74	20731
896.861	20739
896.982	21089
897.103	21233
897.224	21028
897.345	20952
897.466	20895
897.587	20975
897.708	21043
897.828	20891
897.949	20891
898.07	20781
898.19	20876
898.311	20921
898.431	20952
898.552	21032
898.672	21017
898.792	20979
898.913	20849
899.033	20880
899.153	20716
899.273	20583
899.393	20686
899.513	20636
899.633	20682
899.753	20644
899.873	20716
899.993	20716
900.113	20705
900.232	20526
900.352	20602
900.472	20541
900.591	20526
900.711	20511
900.83	20457
900.95	20602
901.069	20499
901.189	20278
901.308	20050
901.427	20035
901.546	20035
901.665	20153
901.784	19974
901.904	19830
902.023	19757
902.141	19628
902.26	19518
902.379	19609
902.498	19422
902.617	19483
902.735	19578
902.854	19571
902.973	19445
903.091	19175
903.21	19209
903.328	19156
903.446	19031
903.565	19023
903.683	18901
903.801	18935
903.919	18901
904.038	18871
904.156	18726
904.274	18696
904.392	18677
904.51	18741
904.627	18772
904.745	18764
904.863	18783
904.981	18623
905.098	18517
905.216	18388
905.334	18441
905.451	18323
905.569	18437
905.686	18471
905.803	18410
905.921	18098
906.038	18323
906.155	18254
906.272	18152
906.389	18186
906.506	17912
906.623	17965
906.74	18007
906.857	17935
906.974	17866
907.091	17939
907.208	18034
907.324	17897
907.441	17878
907.557	17729
907.674	17714
907.79	17619
907.907	17638
908.023	17611
908.139	17726
908.256	17687
908.372	17615
908.488	17596
908.604	17440
908.72	17391
908.836	17288
908.952	17368
909.068	17337
909.184	17406
909.3	17387
909.415	17341
909.531	17288
909.647	17162
909.762	17075
909.878	17041
909.993	17151
910.108	17204
910.224	17083
910.339	17109
910.454	16892
910.57	16949
910.685	16797
910.8	17185
910.915	16877
911.03	16896
911.145	16797
911.259	16691
911.374	16706
911.489	16584
911.604	16527
911.718	16428
911.833	16466
911.947	16325
912.062	16261
912.176	16280
912.291	16299
912.405	16402
912.519	16527
912.633	16622
912.748	16455
912.862	16382
912.976	16207
913.09	16116
913.204	16268
913.318	16238
913.431	16344
913.545	16246
913.659	16341
913.772	16105
913.886	16086
914	16013
914.113	16124
914.226	16139
914.34	15991
914.453	15934
914.566	16002
914.68	15857
914.793	15964
914.906	15610
915.019	15595
915.132	15660
915.245	15587
915.358	15660
915.47	15549
915.583	15625
915.696	15629
915.809	15766
915.921	15660
916.034	15549
916.146	15504
916.259	15568
916.371	15526
916.483	15542
916.595	15412
916.708	15363
916.82	15515
916.932	15431
917.044	15435
917.156	15306
917.268	15268
917.38	15389
917.491	15382
917.603	15275
917.715	15317
917.826	15408
917.938	15093
918.049	15119
918.161	15237
918.272	15393
918.384	15230
918.495	15089
918.606	14933
918.717	14876
918.828	15085
918.939	15051
919.05	14986
919.161	15077
919.272	14792
919.383	14872
919.494	15009
919.604	15214
919.715	15089
919.826	14823
919.936	14864
920.047	15017
920.157	14960
920.267	15218
920.378	15043
920.488	14864
920.598	15203
920.708	15195
920.818	15112
920.928	15176
921.038	15264
921.148	15203
921.258	14914
921.368	14876
921.477	14689
921.587	14663
921.697	14552
921.806	14731
921.916	14556
922.025	14442
922.134	14317
922.244	14343
922.353	14301
922.462	14301
922.571	14107
922.68	14008
922.789	13944
922.898	13974
923.007	13852
923.116	13970
923.224	13955
923.333	13875
923.442	13883
923.55	13799
923.659	13814
923.767	13791
923.876	13757
923.984	13761
924.092	13757
924.201	13708
924.309	13670
924.417	13738
924.525	13639
924.633	13636
924.741	14537
924.849	13480
924.956	13594
925.064	13396
925.172	13358
925.279	13350
925.387	13377
925.494	13419
925.602	13464
925.709	13476
925.816	13285
925.924	13308
926.031	13422
926.138	13274
926.245	13373
926.352	13206
926.459	13221
926.566	13312
926.673	13190
926.779	13133
926.886	13110
926.993	12920
927.099	12962
927.206	12856
927.312	12920
927.419	12985
927.525	12939
927.631	12913
927.737	12745
927.843	12817
927.95	12639
928.056	12787
928.162	12776
928.267	12749
928.373	13270
928.479	12776
928.585	12589
928.69	12707
928.796	12719
928.901	12528
929.007	12418
929.112	12620
929.218	12582
929.323	12456
929.428	12429
929.533	12498
929.638	12388
929.743	12357
929.848	12399
929.953	12369
930.058	12391
930.163	12106
930.267	12235
930.372	12292
930.477	12148
930.581	12323
930.685	12155
930.79	12072
930.894	12026
930.998	11954
931.103	12083
931.207	11745
931.311	11710
931.415	11600
931.519	11379
931.623	11368
