Data from test_V78500241_1354.txt Node
Date: Fri Mar 25 15:19:17 CST 2022
User: usil
Spectrometer: V785-0024
Trigger mode: 0
Integration Time (sec): 4.000000E-1
Scans to average: 1
Nonlinearity correction enabled: false
Boxcar width: 0
Storing dark spectrum: false
XAxis mode: Wavelengths
Number of Pixels in Spectrum: 1024
>>>>>Begin Spectral Data<<<<<
801.071	28246
801.214	28109
801.356	27945
801.499	27838
801.641	27629
801.783	27793
801.926	27835
802.068	27816
802.211	27500
802.353	27675
802.496	27382
802.638	27279
802.78	27355
802.923	27241
803.065	27241
803.208	27313
803.35	27382
803.492	27500
803.635	27580
803.777	27408
803.919	27519
804.061	27869
804.204	27686
804.346	27523
804.488	27553
804.63	27553
804.773	27530
804.915	27663
805.057	27614
805.199	27599
805.341	27599
805.483	27705
805.626	27717
805.768	27534
805.91	27580
806.052	27652
806.194	27492
806.336	27914
806.478	27701
806.62	27800
806.762	27778
806.904	28059
807.046	28379
807.188	28287
807.33	28097
807.472	28135
807.614	27994
807.756	28207
807.898	27937
808.04	27918
808.182	27998
808.324	28032
808.465	28063
808.607	28287
808.749	28341
808.891	28538
809.033	28500
809.174	28618
809.316	28272
809.458	28451
809.6	28261
809.741	28519
809.883	28580
810.025	28599
810.166	28641
810.308	28759
810.45	28656
810.591	28573
810.733	28417
810.875	28519
811.016	28348
811.158	28333
811.299	28470
811.441	28523
811.582	28489
811.724	28421
811.865	28508
812.007	28356
812.148	28375
812.29	28474
812.431	28622
812.573	28873
812.714	28786
812.855	28873
812.997	28949
813.138	29075
813.279	28995
813.421	28900
813.562	28908
813.703	28752
813.845	28584
813.986	28367
814.127	28200
814.268	28112
814.41	28124
814.551	27987
814.692	28177
814.833	28128
814.974	28097
815.115	28135
815.256	27930
815.397	27983
815.539	28013
815.68	27861
815.821	27937
815.962	27956
816.103	27941
816.244	27823
816.385	27732
816.526	27762
816.666	27553
816.807	27420
816.948	27447
817.089	27553
817.23	27439
817.371	27355
817.512	27454
817.653	27363
817.793	27427
817.934	27294
818.075	27321
818.216	27504
818.356	27374
818.497	27256
818.638	27089
818.778	27157
818.919	27001
819.06	27150
819.2	27184
819.341	27431
819.481	27325
819.622	27538
819.762	27755
819.903	27728
820.043	27614
820.184	27443
820.324	27264
820.465	27488
820.605	27492
820.746	27542
820.886	27363
821.026	27519
821.167	27447
821.307	27386
821.447	27378
821.588	27348
821.728	27272
821.868	27001
822.008	26933
822.149	26796
822.289	26834
822.429	26644
822.569	26545
822.709	26552
822.849	26320
822.99	26461
823.13	26431
823.27	26290
823.41	26180
823.55	26134
823.69	26290
823.83	26153
823.97	26164
824.11	26012
824.25	25970
824.389	25966
824.529	26016
824.669	25986
824.809	26096
824.949	26134
825.089	26145
825.228	26012
825.368	25883
825.508	25772
825.648	25803
825.787	25864
825.927	26027
826.067	25974
826.206	25826
826.346	25947
826.485	25944
826.625	25753
826.765	25955
826.904	25978
827.044	25693
827.183	25662
827.323	25575
827.462	25651
827.601	25662
827.741	25605
827.88	25639
828.02	25495
828.159	25647
828.298	25635
828.437	25670
828.577	25457
828.716	25674
828.855	25415
828.994	25331
829.134	25358
829.273	25350
829.412	25293
829.551	25221
829.69	25335
829.829	25346
829.968	25194
830.107	25331
830.246	25358
830.385	25171
830.524	25156
830.663	25168
830.802	25042
830.941	24920
831.08	24833
831.219	25053
831.357	24913
831.496	25247
831.635	25019
831.774	24719
831.913	24844
832.051	24825
832.19	24768
832.329	24650
832.467	24639
832.606	24612
832.744	24460
832.883	24654
833.022	24471
833.16	24608
833.299	24498
833.437	24753
833.576	24486
833.714	24722
833.852	24646
833.991	24673
834.129	24665
834.267	24722
834.406	24555
834.544	24711
834.682	24464
834.821	24585
834.959	24833
835.097	24684
835.235	24589
835.373	24608
835.511	24563
835.65	24445
835.788	24566
835.926	24357
836.064	24296
836.202	24319
836.34	24532
836.478	24513
836.615	24467
836.753	24441
836.891	24654
837.029	24479
837.167	24315
837.305	24407
837.443	24262
837.58	24342
837.718	24490
837.856	24270
837.993	24243
838.131	24300
838.269	24053
838.406	24194
838.544	24106
838.681	23931
838.819	23874
838.956	23836
839.094	23726
839.231	23927
839.369	23908
839.506	24216
839.643	24076
839.781	23832
839.918	23642
840.055	23722
840.193	23745
840.33	23707
840.467	23581
840.604	23615
840.742	23969
840.879	23680
841.016	23570
841.153	23497
841.29	23733
841.427	23585
841.564	23729
841.701	23684
841.838	23695
841.975	23608
842.112	23558
842.249	23455
842.385	23349
842.522	23611
842.659	23531
842.796	23436
842.933	23482
843.069	23372
843.206	23356
843.343	23535
843.479	23337
843.616	23299
843.752	23189
843.889	23322
844.025	23246
844.162	23277
844.298	23406
844.435	23151
844.571	23162
844.708	23273
844.844	23322
844.98	23277
845.117	23273
845.253	23079
845.389	23174
845.525	23022
845.661	23064
845.798	22991
845.934	22934
846.07	22824
846.206	22972
846.342	22995
846.478	22968
846.614	22755
846.75	22618
846.886	22710
847.022	22660
847.158	22596
847.294	22660
847.429	22637
847.565	22634
847.701	22816
847.837	22363
847.972	22409
848.108	22478
848.244	22497
848.379	22253
848.515	22268
848.65	22257
848.786	22147
848.921	22318
849.057	22291
849.192	22314
849.328	22272
849.463	22226
849.598	22166
849.734	22139
849.869	22090
850.004	22078
850.14	22093
850.275	22021
850.41	21968
850.545	22029
850.68	21964
850.815	22025
850.95	21994
851.085	22253
851.22	22097
851.355	22070
851.49	21949
851.625	21895
851.76	21956
851.895	21941
852.03	22093
852.165	22055
852.299	21911
852.434	22040
852.569	22112
852.703	22067
852.838	22032
852.973	22291
853.107	22116
853.242	22036
853.376	21915
853.511	21781
853.645	21915
853.78	21945
853.914	21876
854.048	21770
854.183	21968
854.317	21903
854.451	22109
854.585	21766
854.72	21850
854.854	22063
854.988	21892
855.122	21778
855.256	21652
855.39	21918
855.524	21911
855.658	21895
855.792	21861
855.926	21895
856.06	21819
856.194	21850
856.327	21861
856.461	21823
856.595	21831
856.729	21873
856.862	21991
856.996	21941
857.13	21987
857.263	22013
857.397	21945
857.53	21926
857.664	21903
857.797	21972
857.931	22006
858.064	21854
858.197	21964
858.331	21918
858.464	21911
858.597	21823
858.731	21720
858.864	21861
858.997	21930
859.13	21857
859.263	21895
859.396	21975
859.529	21797
859.662	21747
859.795	21797
859.928	21835
860.061	22082
860.194	22185
860.327	21941
860.46	21888
860.592	21979
860.725	22090
860.858	21911
860.99	21827
861.123	21812
861.256	21861
861.388	21922
861.521	22493
861.653	21701
861.786	21644
861.918	21701
862.05	21812
862.183	21774
862.315	21823
862.447	21823
862.58	21823
862.712	21511
862.844	21595
862.976	21728
863.108	21534
863.24	21915
863.372	21473
863.504	21557
863.636	21580
863.768	21614
863.9	21614
864.032	21507
864.164	21526
864.296	21637
864.428	21671
864.559	21641
864.691	21523
864.823	21568
864.954	21568
865.086	21458
865.217	21488
865.349	21367
865.48	21530
865.612	21561
865.743	21663
865.875	21500
866.006	21382
866.137	21606
866.269	21496
866.4	21523
866.531	21348
866.662	21344
866.793	21424
866.924	21439
867.055	21428
867.186	21424
867.317	21378
867.448	21256
867.579	21336
867.71	21344
867.841	21374
867.972	21481
868.103	21397
868.233	21401
868.364	21355
868.495	21538
868.625	21713
868.756	21671
868.886	21610
869.017	21561
869.147	21690
869.278	21816
869.408	21694
869.539	21564
869.669	21663
869.799	21633
869.929	21766
870.06	21755
870.19	21964
870.32	21953
870.45	21819
870.58	22010
870.71	22162
870.84	22116
870.97	22101
871.1	21953
871.23	22181
871.36	22280
871.489	22070
871.619	22329
871.749	22291
871.879	22306
872.008	22310
872.138	22177
872.267	22234
872.397	22143
872.526	22006
872.656	21922
872.785	21972
872.915	22192
873.044	22150
873.173	22265
873.303	22261
873.432	22352
873.561	22379
873.69	22253
873.819	22150
873.948	22306
874.077	22192
874.206	22185
874.335	22238
874.464	22284
874.593	22432
874.722	22462
874.851	22428
874.979	22398
875.108	22470
875.237	22379
875.365	22413
875.494	22348
875.623	22481
875.751	22451
875.88	22470
876.008	22516
876.136	22462
876.265	22850
876.393	22839
876.521	22847
876.65	22953
876.778	22816
876.906	22691
877.034	22778
877.162	22797
877.29	22778
877.418	22740
877.546	22786
877.674	22763
877.802	22748
877.93	22786
878.058	22748
878.185	22622
878.313	22786
878.441	22698
878.568	22599
878.696	22668
878.824	22820
878.951	22778
879.079	22919
879.206	23037
879.333	22835
879.461	22869
879.588	22809
879.715	22824
879.842	22980
879.97	22721
880.097	22702
880.224	22622
880.351	22649
880.478	22504
880.605	22656
880.732	22550
880.859	22869
880.986	22611
881.112	22592
881.239	22512
881.366	22325
881.493	22207
881.619	22226
881.746	22112
881.872	22177
881.999	22105
882.125	22116
882.252	22181
882.378	22200
882.505	22314
882.631	22097
882.757	21994
882.883	21964
883.01	21888
883.136	21850
883.262	21747
883.388	21682
883.514	21861
883.64	21861
883.766	21846
883.892	21656
884.018	21644
884.143	21759
884.269	21892
884.395	21488
884.52	21515
884.646	21561
884.772	21568
884.897	21416
885.023	21492
885.148	21568
885.274	21694
885.399	21595
885.524	21507
885.65	21599
885.775	21583
885.9	21515
886.025	21526
886.15	21545
886.275	21458
886.4	21382
886.525	21523
886.65	21428
886.775	21397
886.9	21549
887.025	21751
887.149	21557
887.274	21199
887.399	21233
887.523	21233
887.648	21176
887.773	21207
887.897	21241
888.021	21275
888.146	21256
888.27	21351
888.395	21275
888.519	21336
888.643	21199
888.767	21291
888.891	21150
889.015	21138
889.139	21123
889.263	21074
889.387	21188
889.511	21249
889.635	21192
889.759	21081
889.883	21020
890.006	21070
890.13	21154
890.254	21024
890.377	20948
890.501	20895
890.624	20929
890.748	20845
890.871	20697
890.995	20686
891.118	20640
891.241	20674
891.364	20621
891.488	20632
891.611	20625
891.734	20731
891.857	20731
891.98	20636
892.103	20773
892.226	20712
892.349	20480
892.471	20381
892.594	20461
892.717	20598
892.839	20381
892.962	20511
893.085	20530
893.207	20396
893.33	20423
893.452	20461
893.575	20708
893.697	20404
893.819	20670
893.941	20731
894.064	20724
894.186	20488
894.308	20473
894.43	20488
894.552	20648
894.674	20632
894.796	20476
894.918	20507
895.04	20408
895.161	20727
895.283	20552
895.405	20358
895.526	20541
895.648	20533
895.769	20587
895.891	20613
896.012	20522
896.134	20495
896.255	20530
896.376	20488
896.498	20526
896.619	20495
896.74	20457
896.861	20499
896.982	20815
897.103	20990
897.224	20826
897.345	20762
897.466	20583
897.587	20705
897.708	20880
897.828	20697
897.949	20663
898.07	20659
898.19	20655
898.311	20826
898.431	20659
898.552	20743
898.672	20823
898.792	20811
898.913	20682
899.033	20590
899.153	20457
899.273	20419
899.393	20450
899.513	20446
899.633	20594
899.753	20514
899.873	20480
899.993	20465
900.113	20313
900.232	20385
900.352	20286
900.472	20252
900.591	20172
900.711	20233
900.83	20081
900.95	20355
901.069	20259
901.189	20187
901.308	19997
901.427	19856
901.546	19807
901.665	19833
901.784	19875
901.904	19803
902.023	19533
902.141	19400
902.26	19419
902.379	19499
902.498	19301
902.617	19304
902.735	19350
902.854	19259
902.973	19278
903.091	18939
903.21	19080
903.328	19023
903.446	18890
903.565	18817
903.683	18817
903.801	18795
903.919	18730
904.038	18692
904.156	18525
904.274	18513
904.392	18574
904.51	18490
904.627	18566
904.745	18563
904.863	18601
904.981	18471
905.098	18144
905.216	18369
905.334	18281
905.451	18205
905.569	18182
905.686	18239
905.803	18171
905.921	18019
906.038	18136
906.155	18026
906.272	17840
906.389	17870
906.506	17718
906.623	17729
906.74	17783
906.857	17649
906.974	17665
907.091	17840
907.208	17741
907.324	17752
907.441	17551
907.557	17493
907.674	17490
907.79	17474
907.907	17459
908.023	17516
908.139	17429
908.256	17402
908.372	17448
908.488	17402
908.604	17204
908.72	17117
908.836	17280
908.952	17193
909.068	17181
909.184	17246
909.3	17181
909.415	17220
909.531	17261
909.647	16892
909.762	16930
909.878	16957
909.993	16938
910.108	16869
910.224	16850
910.339	16915
910.454	16771
910.57	16706
910.685	16626
910.8	16953
910.915	16881
911.03	16679
911.145	16577
911.259	16470
911.374	16497
911.489	16424
911.604	16329
911.718	16261
911.833	16169
911.947	16147
912.062	16032
912.176	16143
912.291	16219
912.405	16177
912.519	16344
912.633	16337
912.748	16341
912.862	16192
912.976	16150
913.09	16040
913.204	16055
913.318	15994
913.431	16101
913.545	16082
913.659	16063
913.772	15968
913.886	15934
914	15686
914.113	15842
914.226	15987
914.34	15865
914.453	15701
914.566	15907
914.68	15778
914.793	15641
914.906	15561
915.019	15317
915.132	15416
915.245	15382
915.358	15370
915.47	15504
915.583	15363
915.696	15447
915.809	15530
915.921	15564
916.034	15424
916.146	15332
916.259	15416
916.371	15389
916.483	15359
916.595	15226
916.708	15214
916.82	15161
916.932	15123
917.044	15112
917.156	15131
917.268	15005
917.38	15036
917.491	15020
917.603	15089
917.715	15138
917.826	15131
917.938	14994
918.049	14887
918.161	15074
918.272	15047
918.384	15039
918.495	14975
918.606	14746
918.717	14686
918.828	14777
918.939	14842
919.05	14765
919.161	14693
919.272	14610
919.383	14613
919.494	14834
919.604	15036
919.715	14720
919.826	14716
919.936	14701
920.047	14883
920.157	14804
920.267	14952
920.378	14735
920.488	14769
920.598	14891
920.708	15104
920.818	14845
920.928	14921
921.038	15032
921.148	15001
921.258	14743
921.368	14568
921.477	14480
921.587	14461
921.697	14324
921.806	14514
921.916	14320
922.025	14180
922.134	14119
922.244	14050
922.353	14164
922.462	13898
922.571	14050
922.68	13822
922.789	13689
922.898	13734
923.007	13651
923.116	13883
923.224	13723
923.333	13674
923.442	13563
923.55	13605
923.659	13590
923.767	13715
923.876	13586
923.984	13616
924.092	13540
924.201	13548
924.309	13651
924.417	13525
924.525	13449
924.633	13468
924.741	14225
924.849	13190
924.956	13472
925.064	13259
925.172	13202
925.279	13145
925.387	13171
925.494	13225
925.602	13285
925.709	13217
925.816	13050
925.924	13107
926.031	13282
926.138	13110
926.245	13247
926.352	13076
926.459	13194
926.566	13129
926.673	13149
926.779	12951
926.886	12932
926.993	12726
927.099	12810
927.206	12760
927.312	12719
927.419	12795
927.525	12871
927.631	12741
927.737	12696
927.843	12585
927.95	12494
928.056	12601
928.162	12494
928.267	12623
928.373	13251
928.479	12627
928.585	12376
928.69	12490
928.796	12578
928.901	12521
929.007	12289
929.112	12391
929.218	12342
929.323	12323
929.428	12289
929.533	12414
929.638	12254
929.743	12178
929.848	12330
929.953	12224
930.058	12125
930.163	11977
930.267	12015
930.372	12167
930.477	11992
930.581	12197
930.685	12034
930.79	11908
930.894	11912
930.998	11821
931.103	11980
931.207	11604
931.311	11467
931.415	11493
931.519	11212
931.623	11235
