Data from test_V78500241_176.txt Node
Date: Fri Mar 25 15:11:05 CST 2022
User: usil
Spectrometer: V785-0024
Trigger mode: 0
Integration Time (sec): 4.000000E-1
Scans to average: 1
Nonlinearity correction enabled: false
Boxcar width: 0
Storing dark spectrum: false
XAxis mode: Wavelengths
Number of Pixels in Spectrum: 1024
>>>>>Begin Spectral Data<<<<<
801.071	27865
801.214	27994
801.356	27625
801.499	27526
801.641	27462
801.783	27492
801.926	27500
802.068	27317
802.211	27268
802.353	27237
802.496	27192
802.638	27112
802.78	27138
802.923	27028
803.065	26979
803.208	26918
803.35	26944
803.492	27119
803.635	27131
803.777	26944
803.919	27154
804.061	27500
804.204	27199
804.346	27085
804.488	26956
804.63	26952
804.773	26944
804.915	27081
805.057	27214
805.199	27001
805.341	27100
805.483	27062
805.626	26994
805.768	26998
805.91	27214
806.052	27252
806.194	27081
806.336	27359
806.478	27051
806.62	27157
806.762	27332
806.904	27382
807.046	27606
807.188	27454
807.33	27386
807.472	27538
807.614	27351
807.756	27587
807.898	27382
808.04	27351
808.182	27355
808.324	27378
808.465	27310
808.607	27603
808.749	27648
808.891	27930
809.033	27899
809.174	27705
809.316	27694
809.458	27656
809.6	27679
809.741	27709
809.883	27686
810.025	28006
810.166	28029
810.308	27937
810.45	27804
810.591	27876
810.733	27728
810.875	27587
811.016	27515
811.158	27591
811.299	27797
811.441	27800
811.582	27698
811.724	27583
811.865	27530
812.007	27488
812.148	27713
812.29	27652
812.431	27888
812.573	27869
812.714	28059
812.855	28082
812.997	28147
813.138	28333
813.279	28147
813.421	28078
813.562	28158
813.703	27930
813.845	27835
813.986	27507
814.127	27397
814.268	27363
814.41	27359
814.551	27195
814.692	27230
814.833	27154
814.974	27233
815.115	27150
815.256	27100
815.397	27081
815.539	27013
815.68	26937
815.821	26975
815.962	27070
816.103	27017
816.244	26750
816.385	26781
816.526	26644
816.666	26450
816.807	26575
816.948	26552
817.089	26457
817.23	26332
817.371	26415
817.512	26332
817.653	26469
817.793	26355
817.934	26415
818.075	26480
818.216	26423
818.356	26298
818.497	26343
818.638	26046
818.778	26077
818.919	25921
819.06	26275
819.2	26313
819.341	26332
819.481	26370
819.622	26442
819.762	26644
819.903	26575
820.043	26438
820.184	26453
820.324	26389
820.465	26495
820.605	26358
820.746	26434
820.886	26320
821.026	26301
821.167	26450
821.307	26358
821.447	26332
821.588	26142
821.728	26077
821.868	25925
822.008	25761
822.149	25689
822.289	25750
822.429	25499
822.569	25483
822.709	25438
822.849	25259
822.99	25369
823.13	25129
823.27	25137
823.41	25019
823.55	24973
823.69	25065
823.83	24954
823.97	24992
824.11	24901
824.25	24772
824.389	24719
824.529	24958
824.669	24749
824.809	24916
824.949	25012
825.089	24992
825.228	24844
825.368	24627
825.508	24677
825.648	24734
825.787	24810
825.927	24677
826.067	24631
826.206	24658
826.346	24741
826.485	24684
826.625	24646
826.765	24783
826.904	24734
827.044	24452
827.183	24445
827.323	24369
827.462	24369
827.601	24365
827.741	24194
827.88	24399
828.02	24098
828.159	24365
828.298	24262
828.437	24376
828.577	24216
828.716	24391
828.855	24190
828.994	24102
829.134	24114
829.273	24045
829.412	23923
829.551	24057
829.69	24026
829.829	23977
829.968	24053
830.107	24026
830.246	24022
830.385	23954
830.524	23836
830.663	23821
830.802	23726
830.941	23608
831.08	23558
831.219	23642
831.357	23619
831.496	23809
831.635	23592
831.774	23497
831.913	23425
832.051	23417
832.19	23493
832.329	23296
832.467	23273
832.606	23212
832.744	23185
832.883	23220
833.022	23064
833.16	23200
833.299	23307
833.437	23193
833.576	23330
833.714	23254
833.852	23318
833.991	23398
834.129	23299
834.267	23433
834.406	23261
834.544	23261
834.682	23307
834.821	23250
834.959	23478
835.097	23269
835.235	23398
835.373	23246
835.511	23299
835.65	23029
835.788	23140
835.926	22927
836.064	22923
836.202	22869
836.34	23212
836.478	23235
836.615	23022
836.753	23136
836.891	23143
837.029	23208
837.167	23014
837.305	22991
837.443	22968
837.58	22980
837.718	23033
837.856	22991
837.993	22873
838.131	22892
838.269	22740
838.406	22961
838.544	22755
838.681	22698
838.819	22523
838.956	22352
839.094	22341
839.231	22443
839.369	22550
839.506	22850
839.643	22710
839.781	22356
839.918	22242
840.055	22341
840.193	22371
840.33	22303
840.467	22295
840.604	22303
840.742	22538
840.879	22181
841.016	22211
841.153	22276
841.29	22489
841.427	22207
841.564	22333
841.701	22280
841.838	22249
841.975	22196
842.112	22207
842.249	22147
842.385	22063
842.522	22158
842.659	22051
842.796	21994
842.933	22131
843.069	21888
843.206	21960
843.343	22017
843.479	21983
843.616	21915
843.752	21755
843.889	21781
844.025	21926
844.162	21747
844.298	21926
844.435	21694
844.571	21751
844.708	21838
844.844	21838
844.98	21838
845.117	21846
845.253	21713
845.389	21614
845.525	21732
845.661	21583
845.798	21572
845.934	21466
846.07	21496
846.206	21458
846.342	21549
846.478	21348
846.614	21218
846.75	21294
846.886	21306
847.022	21340
847.158	21157
847.294	21203
847.429	21370
847.565	21218
847.701	21458
847.837	21104
847.972	20891
848.108	21081
848.244	21032
848.379	20941
848.515	20868
848.65	20823
848.786	20777
848.921	20773
849.057	20895
849.192	20941
849.328	20731
849.463	20815
849.598	20762
849.734	20648
849.869	20682
850.004	20454
850.14	20461
850.275	20568
850.41	20446
850.545	20503
850.68	20537
850.815	20438
850.95	20606
851.085	20689
851.22	20750
851.355	20587
851.49	20556
851.625	20381
851.76	20545
851.895	20309
852.03	20358
852.165	20537
852.299	20488
852.434	20568
852.569	20427
852.703	20537
852.838	20552
852.973	20613
853.107	20651
853.242	20530
853.376	20381
853.511	20271
853.645	20358
853.78	20484
853.914	20366
854.048	20309
854.183	20301
854.317	20309
854.451	20568
854.585	20320
854.72	20259
854.854	20419
854.988	20240
855.122	20343
855.256	20199
855.39	20343
855.524	20396
855.658	20389
855.792	20355
855.926	20336
856.06	20362
856.194	20385
856.327	20199
856.461	20347
856.595	20229
856.729	20290
856.862	20427
856.996	20336
857.13	20446
857.263	20545
857.397	20438
857.53	20237
857.664	20370
857.797	20339
857.931	20412
858.064	20339
858.197	20381
858.331	20286
858.464	20180
858.597	20202
858.731	20221
858.864	20298
858.997	20248
859.13	20282
859.263	20248
859.396	20385
859.529	20168
859.662	20240
859.795	20229
859.928	20290
860.061	20400
860.194	20393
860.327	20423
860.46	20271
860.592	20415
860.725	20476
860.858	20332
860.99	20259
861.123	20252
861.256	20275
861.388	20237
861.521	21028
861.653	20142
861.786	20024
861.918	20134
862.05	20263
862.183	20256
862.315	20206
862.447	20374
862.58	20225
862.712	20069
862.844	19974
862.976	20100
863.108	19967
863.24	20229
863.372	19898
863.504	19944
863.636	19932
863.768	20024
863.9	19913
864.032	19856
864.164	19875
864.296	19947
864.428	20100
864.559	19986
864.691	20065
864.823	20016
864.954	19921
865.086	19932
865.217	19887
865.349	19811
865.48	19845
865.612	19841
865.743	20016
865.875	19868
866.006	19753
866.137	19830
866.269	19909
866.4	19902
866.531	19677
866.662	19879
866.793	19765
866.924	19864
867.055	19727
867.186	19845
867.317	19784
867.448	19753
867.579	19868
867.71	19662
867.841	19734
867.972	19704
868.103	19841
868.233	19723
868.364	19826
868.495	19776
868.625	20168
868.756	20176
868.886	19936
869.017	20206
869.147	20195
869.278	20271
869.408	20111
869.539	20145
869.669	20092
869.799	20134
869.929	20248
870.06	20229
870.19	20370
870.32	20248
870.45	20434
870.58	20613
870.71	20625
870.84	20621
870.97	20541
871.1	20454
871.23	20682
871.36	20636
871.489	20549
871.619	20609
871.749	20636
871.879	20640
872.008	20678
872.138	20712
872.267	20629
872.397	20450
872.526	20442
872.656	20412
872.785	20522
872.915	20651
873.044	20765
873.173	20689
873.303	20826
873.432	20712
873.561	20625
873.69	20705
873.819	20705
873.948	20705
874.077	20621
874.206	20594
874.335	20606
874.464	20838
874.593	21062
874.722	20891
874.851	21020
874.979	21024
875.108	21039
875.237	20906
875.365	20842
875.494	20796
875.623	20967
875.751	20895
875.88	20967
876.008	20937
876.136	21100
876.265	21325
876.393	21462
876.521	21367
876.65	21389
876.778	21283
876.906	21329
877.034	21157
877.162	21443
877.29	21192
877.418	21260
877.546	21173
877.674	21161
877.802	21256
877.93	21256
878.058	21252
878.185	21093
878.313	21211
878.441	21272
878.568	21135
878.696	21138
878.824	21279
878.951	21386
879.079	21466
879.206	21629
879.333	21534
879.461	21275
879.588	21374
879.715	21393
879.842	21622
879.97	21443
880.097	21146
880.224	21032
880.351	21150
880.478	21024
880.605	21081
880.732	21093
880.859	21268
880.986	21150
881.112	21230
881.239	21001
881.366	20895
881.493	20762
881.619	20712
881.746	20739
881.872	20697
881.999	20659
882.125	20788
882.252	20640
882.378	20735
882.505	20880
882.631	20648
882.757	20492
882.883	20488
883.01	20465
883.136	20396
883.262	20309
883.388	20370
883.514	20514
883.64	20461
883.766	20317
883.892	20225
884.018	20199
884.143	20362
884.269	20541
884.395	20199
884.52	20024
884.646	20122
884.772	19967
884.897	19947
885.023	20081
885.148	20202
885.274	20240
885.399	20210
885.524	20065
885.65	20092
885.775	20050
885.9	19959
886.025	20161
886.15	20001
886.275	19989
886.4	20001
886.525	20050
886.65	19989
886.775	19913
886.9	20149
887.025	20339
887.149	19989
887.274	19917
887.399	19883
887.523	19830
887.648	19791
887.773	19791
887.897	19928
888.021	19811
888.146	19780
888.27	19997
888.395	19879
888.519	19967
888.643	19978
888.767	19936
888.891	19746
889.015	19609
889.139	19753
889.263	19594
889.387	19693
889.511	19772
889.635	19811
889.759	19674
889.883	19597
890.006	19624
890.13	19677
890.254	19518
890.377	19529
890.501	19556
890.624	19324
890.748	19419
890.871	19266
890.995	19099
891.118	19084
891.241	19179
891.364	19198
891.488	19255
891.611	19236
891.734	19225
891.857	19346
891.98	19308
892.103	19156
892.226	19183
892.349	19141
892.471	19046
892.594	19179
892.717	19236
892.839	19164
892.962	19095
893.085	19244
893.207	19088
893.33	19133
893.452	19141
893.575	19160
893.697	19122
893.819	19209
893.941	19369
894.064	19350
894.186	19088
894.308	19107
894.43	19285
894.552	19449
894.674	19209
894.796	19209
894.918	19247
895.04	19080
895.161	19183
895.283	19080
895.405	19053
895.526	19206
895.648	19065
895.769	19293
895.891	19168
896.012	19213
896.134	19259
896.255	19103
896.376	19061
896.498	19194
896.619	19187
896.74	19118
896.861	19312
896.982	19601
897.103	19712
897.224	19525
897.345	19453
897.466	19449
897.587	19403
897.708	19434
897.828	19407
897.949	19312
898.07	19232
898.19	19373
898.311	19426
898.431	19285
898.552	19453
898.672	19499
898.792	19434
898.913	19327
899.033	19259
899.153	19293
899.273	18966
899.393	19194
899.513	19259
899.633	19160
899.753	19095
899.873	18993
899.993	19160
900.113	19012
900.232	19133
900.352	19015
900.472	19050
900.591	18973
900.711	18993
900.83	18970
900.95	19152
901.069	19099
901.189	18821
901.308	18703
901.427	18566
901.546	18555
901.665	18551
901.784	18578
901.904	18429
902.023	18315
902.141	18125
902.26	18064
902.379	18144
902.498	18095
902.617	18068
902.735	18144
902.854	18007
902.973	18015
903.091	17684
903.21	17866
903.328	17615
903.446	17737
903.565	17551
903.683	17589
903.801	17459
903.919	17497
904.038	17486
904.156	17292
904.274	17345
904.392	17322
904.51	17429
904.627	17231
904.745	17299
904.863	17307
904.981	17006
905.098	16923
905.216	17083
905.334	17079
905.451	16930
905.569	16919
905.686	16957
905.803	17003
905.921	16698
906.038	16869
906.155	16759
906.272	16721
906.389	16721
906.506	16596
906.623	16558
906.74	16634
906.857	16306
906.974	16519
907.091	16470
907.208	16569
907.324	16538
907.441	16436
907.557	16352
907.674	16200
907.79	16162
907.907	16124
908.023	16314
908.139	16196
908.256	16124
908.372	16032
908.488	16166
908.604	15941
908.72	15949
908.836	15983
908.952	15941
909.068	15842
909.184	16090
909.3	15945
909.415	15956
909.531	15991
909.647	15675
909.762	15656
909.878	15595
909.993	15576
910.108	15637
910.224	15576
910.339	15629
910.454	15504
910.57	15458
910.685	15351
910.8	15701
910.915	15595
911.03	15405
911.145	15370
911.259	15268
911.374	15275
911.489	15108
911.604	15237
911.718	15058
911.833	15032
911.947	14944
912.062	14769
912.176	14895
912.291	14861
912.405	14895
912.519	15184
912.633	15131
912.748	14998
912.862	14872
912.976	14777
913.09	14625
913.204	14655
913.318	14785
913.431	14819
913.545	14807
913.659	14826
913.772	14769
913.886	14625
914	14670
914.113	14651
914.226	14731
914.34	14640
914.453	14473
914.566	14686
914.68	14507
914.793	14446
914.906	14301
915.019	14256
915.132	14176
915.245	14256
915.358	14142
915.47	14229
915.583	14244
915.696	14286
915.809	14339
915.921	14362
916.034	14263
916.146	14153
916.259	14157
916.371	14202
916.483	14161
916.595	13970
916.708	14081
916.82	14103
916.932	14100
917.044	14180
917.156	14031
917.268	13845
917.38	13917
917.491	13909
917.603	13841
917.715	13959
917.826	13993
917.938	13955
918.049	13765
918.161	13879
918.272	14012
918.384	13993
918.495	13871
918.606	13765
918.717	13696
918.828	13833
918.939	13708
919.05	13586
919.161	13594
919.272	13487
919.383	13533
919.494	13609
919.604	13864
919.715	13681
919.826	13628
919.936	13582
920.047	13651
920.157	13613
920.267	13932
920.378	13708
920.488	13693
920.598	13772
920.708	13921
920.818	13757
920.928	13818
921.038	13909
921.148	13906
921.258	13613
921.368	13613
921.477	13369
921.587	13453
921.697	13274
921.806	13419
921.916	13236
922.025	13114
922.134	13019
922.244	12981
922.353	13069
922.462	12947
922.571	12848
922.68	12711
922.789	12745
922.898	12741
923.007	12772
923.116	12650
923.224	12719
923.333	12635
923.442	12551
923.55	12532
923.659	12578
923.767	12601
923.876	12441
923.984	12532
924.092	12376
924.201	12365
924.309	12460
924.417	12384
924.525	12380
924.633	12437
924.741	13168
924.849	12182
924.956	12338
925.064	12182
925.172	11999
925.279	12095
925.387	12194
925.494	12163
925.602	12247
925.709	12186
925.816	12022
925.924	12178
926.031	12136
926.138	12072
926.245	12098
926.352	12060
926.459	12136
926.566	12155
926.673	12087
926.779	11870
926.886	11904
926.993	11832
927.099	11760
927.206	11756
927.312	11714
927.419	11726
927.525	11775
927.631	11729
927.737	11646
927.843	11577
927.95	11512
928.056	11535
928.162	11596
928.267	11634
928.373	12114
928.479	11767
928.585	11379
928.69	11558
928.796	11638
928.901	11478
929.007	11349
929.112	11440
929.218	11395
929.323	11391
929.428	11261
929.533	11410
929.638	11299
929.743	11299
929.848	11280
929.953	11387
930.058	11197
930.163	11045
930.267	11083
930.372	11155
930.477	11025
930.581	11242
930.685	11147
930.79	10911
930.894	10892
930.998	10908
931.103	11067
931.207	10706
931.311	10634
931.415	10428
931.519	10333
931.623	10238
