Data from test_V78500241_2021.txt Node
Date: Fri Mar 25 15:23:55 CST 2022
User: usil
Spectrometer: V785-0024
Trigger mode: 0
Integration Time (sec): 4.000000E-1
Scans to average: 1
Nonlinearity correction enabled: false
Boxcar width: 0
Storing dark spectrum: false
XAxis mode: Wavelengths
Number of Pixels in Spectrum: 1024
>>>>>Begin Spectral Data<<<<<
801.071	27865
801.214	27793
801.356	27599
801.499	27538
801.641	27340
801.783	27389
801.926	27378
802.068	27287
802.211	27275
802.353	27184
802.496	27112
802.638	27123
802.78	27077
802.923	27150
803.065	27032
803.208	26982
803.35	27028
803.492	27195
803.635	27256
803.777	27081
803.919	27256
804.061	27408
804.204	27180
804.346	27298
804.488	27336
804.63	27283
804.773	27173
804.915	27370
805.057	27256
805.199	27195
805.341	27279
805.483	27420
805.626	27435
805.768	27275
805.91	27496
806.052	27374
806.194	27393
806.336	27485
806.478	27321
806.62	27378
806.762	27481
806.904	27549
807.046	27968
807.188	27797
807.33	27762
807.472	27888
807.614	27759
807.756	27774
807.898	27507
808.04	27720
808.182	27675
808.324	27675
808.465	27713
808.607	27835
808.749	27998
808.891	27945
809.033	28188
809.174	27991
809.316	27941
809.458	28021
809.6	27953
809.741	28051
809.883	28010
810.025	28253
810.166	28166
810.308	28246
810.45	28143
810.591	28143
810.733	27945
810.875	27747
811.016	27892
811.158	27808
811.299	27949
811.441	28109
811.582	28101
811.724	28029
811.865	27895
812.007	27888
812.148	27888
812.29	28017
812.431	28032
812.573	28154
812.714	28440
812.855	28428
812.997	28401
813.138	28664
813.279	28485
813.421	28386
813.562	28535
813.703	28367
813.845	28246
813.986	27854
814.127	27701
814.268	27709
814.41	27762
814.551	27675
814.692	27694
814.833	27671
814.974	27743
815.115	27762
815.256	27686
815.397	27606
815.539	27473
815.68	27485
815.821	27511
815.962	27519
816.103	27351
816.244	27340
816.385	27294
816.526	27211
816.666	26990
816.807	27009
816.948	27036
817.089	26994
817.23	26975
817.371	26883
817.512	26971
817.653	26952
817.793	26815
817.934	26906
818.075	27009
818.216	26845
818.356	26982
818.497	26796
818.638	26594
818.778	26579
818.919	26811
819.06	26697
819.2	26769
819.341	26933
819.481	26925
819.622	27104
819.762	27211
819.903	27169
820.043	27104
820.184	27089
820.324	27093
820.465	27180
820.605	27047
820.746	27157
820.886	26891
821.026	26925
821.167	26967
821.307	26956
821.447	27039
821.588	26815
821.728	26674
821.868	26476
822.008	26461
822.149	26480
822.289	26396
822.429	26187
822.569	25917
822.709	26122
822.849	25845
822.99	25947
823.13	25860
823.27	25947
823.41	25674
823.55	25689
823.69	25685
823.83	25674
823.97	25734
824.11	25556
824.25	25514
824.389	25430
824.529	25571
824.669	25556
824.809	25727
824.949	25597
825.089	25731
825.228	25525
825.368	25487
825.508	25495
825.648	25525
825.787	25491
825.927	25487
826.067	25362
826.206	25422
826.346	25464
826.485	25422
826.625	25499
826.765	25487
826.904	25506
827.044	25194
827.183	25145
827.323	25107
827.462	25152
827.601	25069
827.741	25019
827.88	25126
828.02	24977
828.159	25069
828.298	25160
828.437	25259
828.577	25103
828.716	25137
828.855	25072
828.994	24943
829.134	24829
829.273	24932
829.412	24840
829.551	24684
829.69	24848
829.829	24897
829.968	24871
830.107	24924
830.246	24738
830.385	24741
830.524	24707
830.663	24639
830.802	24646
830.941	24365
831.08	24357
831.219	24483
831.357	24517
831.496	24722
831.635	24528
831.774	24311
831.913	24334
832.051	24258
832.19	24281
832.329	24167
832.467	24106
832.606	24030
832.744	24041
832.883	24015
833.022	24102
833.16	24159
833.299	24216
833.437	24247
833.576	24330
833.714	24159
833.852	24239
833.991	24323
834.129	24243
834.267	24235
834.406	24235
834.544	24273
834.682	24171
834.821	24114
834.959	24262
835.097	24239
835.235	24304
835.373	24216
835.511	24083
835.65	24076
835.788	24117
835.926	23996
836.064	23707
836.202	23916
836.34	23882
836.478	24011
836.615	24018
836.753	24136
836.891	24117
837.029	24018
837.167	23996
837.305	23920
837.443	23889
837.58	23908
837.718	23870
837.856	23836
837.993	23843
838.131	23931
838.269	23745
838.406	23790
838.544	23741
838.681	23566
838.819	23623
838.956	23303
839.094	23395
839.231	23337
839.369	23596
839.506	23726
839.643	23459
839.781	23330
839.918	23303
840.055	23383
840.193	23280
840.33	23337
840.467	23212
840.604	23387
840.742	23562
840.879	23132
841.016	23064
841.153	23258
841.29	23334
841.427	23197
841.564	23334
841.701	23250
841.838	23151
841.975	23052
842.112	23121
842.249	23052
842.385	23098
842.522	23223
842.659	23044
842.796	22919
842.933	23075
843.069	23003
843.206	23003
843.343	22946
843.479	22923
843.616	22991
843.752	22774
843.889	22816
844.025	22881
844.162	22805
844.298	22816
844.435	22782
844.571	22774
844.708	22854
844.844	22938
844.98	22816
845.117	22866
845.253	22725
845.389	22721
845.525	22641
845.661	22634
845.798	22523
845.934	22481
846.07	22466
846.206	22641
846.342	22561
846.478	22569
846.614	22447
846.75	22169
846.886	22253
847.022	22280
847.158	22196
847.294	22261
847.429	22272
847.565	22154
847.701	22451
847.837	21899
847.972	21930
848.108	22078
848.244	22013
848.379	21876
848.515	21800
848.65	21831
848.786	21899
848.921	21823
849.057	21892
849.192	21804
849.328	21892
849.463	21778
849.598	21770
849.734	21717
849.869	21694
850.004	21610
850.14	21637
850.275	21618
850.41	21587
850.545	21542
850.68	21439
850.815	21583
850.95	21561
851.085	21717
851.22	21709
851.355	21690
851.49	21599
851.625	21568
851.76	21405
851.895	21504
852.03	21530
852.165	21675
852.299	21580
852.434	21774
852.569	21553
852.703	21610
852.838	21660
852.973	21652
853.107	21770
853.242	21564
853.376	21469
853.511	21549
853.645	21420
853.78	21523
853.914	21325
854.048	21386
854.183	21492
854.317	21416
854.451	21629
854.585	21435
854.72	21389
854.854	21435
854.988	21287
855.122	21389
855.256	21355
855.39	21473
855.524	21454
855.658	21336
855.792	21420
855.926	21363
856.06	21485
856.194	21466
856.327	21462
856.461	21359
856.595	21317
856.729	21340
856.862	21542
856.996	21504
857.13	21603
857.263	21545
857.397	21462
857.53	21504
857.664	21511
857.797	21515
857.931	21614
858.064	21344
858.197	21530
858.331	21538
858.464	21367
858.597	21344
858.731	21310
858.864	21344
858.997	21344
859.13	21458
859.263	21477
859.396	21382
859.529	21401
859.662	21359
859.795	21351
859.928	21481
860.061	21519
860.194	21473
860.327	21321
860.46	21397
860.592	21576
860.725	21595
860.858	21625
860.99	21466
861.123	21351
861.256	21329
861.388	21389
861.521	22017
861.653	21336
861.786	21233
861.918	21211
862.05	21321
862.183	21260
862.315	21462
862.447	21428
862.58	21378
862.712	21081
862.844	21074
862.976	21317
863.108	21249
863.24	21549
863.372	21146
863.504	21066
863.636	21093
863.768	21135
863.9	21081
864.032	21001
864.164	21043
864.296	21184
864.428	21070
864.559	21260
864.691	21226
864.823	21108
864.954	21108
865.086	21093
865.217	21028
865.349	20925
865.48	21001
865.612	21013
865.743	21123
865.875	21013
866.006	21100
866.137	21055
866.269	20986
866.4	20872
866.531	20899
866.662	20876
866.793	20758
866.924	20918
867.055	20982
867.186	21051
867.317	20899
867.448	20971
867.579	20906
867.71	20864
867.841	20830
867.972	20963
868.103	20963
868.233	20918
868.364	20986
868.495	21119
868.625	21226
868.756	21344
868.886	21169
869.017	21100
869.147	21298
869.278	21268
869.408	21138
869.539	21184
869.669	21226
869.799	21241
869.929	21325
870.06	21230
870.19	21618
870.32	21507
870.45	21637
870.58	21507
870.71	21656
870.84	21705
870.97	21534
871.1	21660
871.23	21747
871.36	21827
871.489	21751
871.619	21808
871.749	21724
871.879	21797
872.008	21816
872.138	21827
872.267	21827
872.397	21686
872.526	21637
872.656	21622
872.785	21488
872.915	21838
873.044	22055
873.173	21861
873.303	21857
873.432	21888
873.561	21960
873.69	21823
873.819	21797
873.948	21911
874.077	21812
874.206	21884
874.335	21816
874.464	21781
874.593	22006
874.722	21945
874.851	22021
874.979	22017
875.108	22063
875.237	21922
875.365	21770
875.494	22006
875.623	22116
875.751	21987
875.88	21991
876.008	22226
876.136	22356
876.265	22348
876.393	22493
876.521	22508
876.65	22580
876.778	22485
876.906	22451
877.034	22417
877.162	22341
877.29	22333
877.418	22386
877.546	22402
877.674	22337
877.802	22333
877.93	22485
878.058	22390
878.185	22238
878.313	22325
878.441	22371
878.568	22230
878.696	22287
878.824	22318
878.951	22462
879.079	22489
879.206	22717
879.333	22485
879.461	22421
879.588	22508
879.715	22645
879.842	22683
879.97	22481
880.097	22265
880.224	22147
880.351	22303
880.478	22150
880.605	22093
880.732	22291
880.859	22436
880.986	22204
881.112	22192
881.239	22078
881.366	21930
881.493	21915
881.619	21804
881.746	21983
881.872	21819
881.999	21663
882.125	21614
882.252	21766
882.378	21770
882.505	21850
882.631	21743
882.757	21473
882.883	21591
883.01	21530
883.136	21329
883.262	21405
883.388	21287
883.514	21462
883.64	21488
883.766	21458
883.892	21340
884.018	21298
884.143	21435
884.269	21557
884.395	21142
884.52	21013
884.646	21150
884.772	20960
884.897	21157
885.023	21165
885.148	21268
885.274	21241
885.399	21123
885.524	21119
885.65	21135
885.775	21154
885.9	21051
886.025	21237
886.15	21154
886.275	21112
886.4	20986
886.525	21058
886.65	20998
886.775	21138
886.9	21211
887.025	21329
887.149	21093
887.274	20998
887.399	20819
887.523	20937
887.648	20720
887.773	20853
887.897	20906
888.021	20956
888.146	20872
888.27	20914
888.395	20956
888.519	20937
888.643	20876
888.767	20872
888.891	20815
889.015	20682
889.139	20746
889.263	20621
889.387	20785
889.511	20864
889.635	20754
889.759	20686
889.883	20743
890.006	20762
890.13	20800
890.254	20689
890.377	20644
890.501	20457
890.624	20256
890.748	20404
890.871	20305
890.995	20229
891.118	20263
891.241	20210
891.364	20301
891.488	20480
891.611	20187
891.734	20172
891.857	20301
891.98	20256
892.103	20172
892.226	20096
892.349	20176
892.471	20035
892.594	20180
892.717	20081
892.839	20180
892.962	20164
893.085	20161
893.207	20240
893.33	20043
893.452	19944
893.575	20164
893.697	20039
893.819	20370
893.941	20233
894.064	20328
894.186	20161
894.308	20103
894.43	20324
894.552	20339
894.674	20195
894.796	20084
894.918	20142
895.04	20225
895.161	20187
895.283	20278
895.405	20100
895.526	20081
895.648	20153
895.769	20145
895.891	20237
896.012	20237
896.134	20282
896.255	20206
896.376	20035
896.498	20149
896.619	20259
896.74	20244
896.861	20187
896.982	20488
897.103	20598
897.224	20427
897.345	20412
897.466	20320
897.587	20446
897.708	20412
897.828	20431
897.949	20240
898.07	20240
898.19	20309
898.311	20442
898.431	20233
898.552	20389
898.672	20461
898.792	20404
898.913	20294
899.033	20210
899.153	20126
899.273	20092
899.393	20039
899.513	20221
899.633	20043
899.753	20107
899.873	20039
899.993	19993
900.113	20126
900.232	20176
900.352	20031
900.472	19917
900.591	19803
900.711	19875
900.83	19871
900.95	19986
901.069	19959
901.189	19700
901.308	19540
901.427	19540
901.546	19369
901.665	19510
901.784	19525
901.904	19327
902.023	19122
902.141	19088
902.26	19000
902.379	19061
902.498	18886
902.617	18970
902.735	18916
902.854	18901
902.973	18875
903.091	18719
903.21	18681
903.328	18665
903.446	18551
903.565	18559
903.683	18479
903.801	18460
903.919	18410
904.038	18369
904.156	18262
904.274	18346
904.392	18262
904.51	18076
904.627	18171
904.745	18300
904.863	18251
904.981	18049
905.098	17832
905.216	17923
905.334	17950
905.451	17889
905.569	17874
905.686	17908
905.803	17866
905.921	17764
906.038	17779
906.155	17714
906.272	17558
906.389	17672
906.506	17459
906.623	17455
906.74	17368
906.857	17227
906.974	17326
907.091	17520
907.208	17512
907.324	17558
907.441	17334
907.557	17200
907.674	17071
907.79	17045
907.907	17185
908.023	17242
908.139	17124
908.256	17025
908.372	17018
908.488	16995
908.604	16911
908.72	16797
908.836	16942
908.952	16858
909.068	16877
909.184	17018
909.3	16828
909.415	16938
909.531	16850
909.647	16649
909.762	16558
909.878	16561
909.993	16558
910.108	16550
910.224	16466
910.339	16584
910.454	16402
910.57	16367
910.685	16318
910.8	16672
910.915	16478
911.03	16398
911.145	16169
911.259	16169
911.374	16029
911.489	16059
911.604	16116
911.718	15869
911.833	15930
911.947	15778
912.062	15808
912.176	15880
912.291	15960
912.405	15918
912.519	16051
912.633	16124
912.748	15873
912.862	15892
912.976	15682
913.09	15599
913.204	15724
913.318	15713
913.431	15857
913.545	15850
913.659	15747
913.772	15606
913.886	15462
914	15454
914.113	15686
914.226	15705
914.34	15561
914.453	15458
914.566	15481
914.68	15462
914.793	15469
914.906	15169
915.019	15138
915.132	15093
915.245	15173
915.358	15192
915.47	15165
915.583	15161
915.696	15226
915.809	15241
915.921	15279
916.034	15123
916.146	15032
916.259	15028
916.371	15062
916.483	15062
916.595	14864
916.708	15119
916.82	14948
916.932	14921
917.044	14906
917.156	14838
917.268	14762
917.38	14777
917.491	14769
917.603	14746
917.715	14929
917.826	14842
917.938	14834
918.049	14613
918.161	14765
918.272	14800
918.384	14823
918.495	14792
918.606	14602
918.717	14480
918.828	14552
918.939	14583
919.05	14461
919.161	14461
919.272	14301
919.383	14374
919.494	14594
919.604	14640
919.715	14492
919.826	14457
919.936	14431
920.047	14476
920.157	14518
920.267	14735
920.378	14492
920.488	14537
920.598	14571
920.708	14811
920.818	14648
920.928	14636
921.038	14826
921.148	14762
921.258	14454
921.368	14377
921.477	14248
921.587	14259
921.697	14103
921.806	14229
921.916	14043
922.025	13944
922.134	13887
922.244	13776
922.353	13849
922.462	13704
922.571	13723
922.68	13521
922.789	13453
922.898	13491
923.007	13529
923.116	13578
923.224	13464
923.333	13487
923.442	13464
923.55	13384
923.659	13415
923.767	13480
923.876	13282
923.984	13430
924.092	13202
924.201	13331
924.309	13282
924.417	13354
924.525	13137
924.633	13091
924.741	13864
924.849	13027
924.956	13160
925.064	12962
925.172	12897
925.279	12970
925.387	12913
925.494	12913
925.602	13061
925.709	12939
925.816	12837
925.924	12852
926.031	12989
926.138	12875
926.245	12951
926.352	12825
926.459	12875
926.566	12962
926.673	12696
926.779	12700
926.886	12673
926.993	12525
927.099	12509
927.206	12570
927.312	12369
927.419	12479
927.525	12437
927.631	12429
927.737	12388
927.843	12418
927.95	12239
928.056	12216
928.162	12334
928.267	12384
928.373	12989
928.479	12304
928.585	12220
928.69	12296
928.796	12300
928.901	12194
929.007	12019
929.112	12171
929.218	12205
929.323	11969
929.428	12053
929.533	12178
929.638	11939
929.743	11992
929.848	12057
929.953	11942
930.058	11916
930.163	11642
930.267	11771
930.372	11916
930.477	11642
930.581	11901
930.685	11821
930.79	11615
930.894	11646
930.998	11539
931.103	11638
931.207	11345
931.311	11273
931.415	11265
931.519	11025
931.623	11014
