Data from test_V78500241_3233.txt Node
Date: Fri Mar 25 15:32:22 CST 2022
User: usil
Spectrometer: V785-0024
Trigger mode: 0
Integration Time (sec): 4.000000E-1
Scans to average: 1
Nonlinearity correction enabled: false
Boxcar width: 0
Storing dark spectrum: false
XAxis mode: Wavelengths
Number of Pixels in Spectrum: 1024
>>>>>Begin Spectral Data<<<<<
801.071	27188
801.214	27135
801.356	26940
801.499	26830
801.641	26819
801.783	26739
801.926	26845
802.068	26788
802.211	26655
802.353	26693
802.496	26571
802.638	26507
802.78	26320
802.923	26351
803.065	26248
803.208	26290
803.35	26328
803.492	26541
803.635	26594
803.777	26431
803.919	26689
804.061	26979
804.204	26590
804.346	26503
804.488	26507
804.63	26423
804.773	26339
804.915	26499
805.057	26724
805.199	26492
805.341	26583
805.483	26682
805.626	26613
805.768	26689
805.91	26552
806.052	26659
806.194	26609
806.336	26743
806.478	26720
806.62	26667
806.762	26815
806.904	26823
807.046	27150
807.188	27074
807.33	27135
807.472	26990
807.614	27055
807.756	27161
807.898	26971
808.04	26754
808.182	26914
808.324	26956
808.465	26864
808.607	27169
808.749	27237
808.891	27340
809.033	27306
809.174	27321
809.316	27256
809.458	27233
809.6	27188
809.741	27370
809.883	27268
810.025	27485
810.166	27599
810.308	27599
810.45	27488
810.591	27519
810.733	27150
810.875	27252
811.016	27051
811.158	27256
811.299	27332
811.441	27530
811.582	27386
811.724	27188
811.865	27329
812.007	27249
812.148	27184
812.29	27359
812.431	27466
812.573	27447
812.714	27526
812.855	27667
812.997	27686
813.138	27953
813.279	27914
813.421	27656
813.562	27736
813.703	27587
813.845	27313
813.986	27089
814.127	26944
814.268	26811
814.41	26887
814.551	26906
814.692	27058
814.833	26933
814.974	26754
815.115	26811
815.256	26712
815.397	26815
815.539	26670
815.68	26689
815.821	26533
815.962	26788
816.103	26727
816.244	26503
816.385	26358
816.526	26328
816.666	26305
816.807	26081
816.948	26355
817.089	26210
817.23	26176
817.371	26168
817.512	26191
817.653	26062
817.793	25879
817.934	26187
818.075	26100
818.216	25989
818.356	26130
818.497	26054
818.638	25811
818.778	25921
818.919	25894
819.06	25936
819.2	26027
819.341	26115
819.481	26130
819.622	26298
819.762	26438
819.903	26370
820.043	26313
820.184	26362
820.324	26229
820.465	26202
820.605	26157
820.746	26107
820.886	26107
821.026	26031
821.167	26161
821.307	26126
821.447	26050
821.588	26054
821.728	26031
821.868	25712
822.008	25544
822.149	25609
822.289	25616
822.429	25343
822.569	25301
822.709	25285
822.849	25209
822.99	25076
823.13	25050
823.27	25141
823.41	24913
823.55	24894
823.69	24871
823.83	24977
823.97	24791
824.11	24749
824.25	24574
824.389	24802
824.529	24654
824.669	24639
824.809	24764
824.949	24844
825.089	24909
825.228	24802
825.368	24604
825.508	24677
825.648	24639
825.787	24582
825.927	24654
826.067	24681
826.206	24688
826.346	24677
826.485	24551
826.625	24684
826.765	24688
826.904	24627
827.044	24483
827.183	24513
827.323	24228
827.462	24388
827.601	24300
827.741	24369
827.88	24247
828.02	24148
828.159	24235
828.298	24384
828.437	24315
828.577	24277
828.716	24429
828.855	24216
828.994	24129
829.134	24003
829.273	24102
829.412	23893
829.551	23980
829.69	24030
829.829	23969
829.968	24011
830.107	24117
830.246	24114
830.385	24003
830.524	23882
830.663	23805
830.802	23904
830.941	23649
831.08	23589
831.219	23718
831.357	23775
831.496	23939
831.635	23665
831.774	23638
831.913	23493
832.051	23486
832.19	23501
832.329	23528
832.467	23421
832.606	23261
832.744	23246
832.883	23254
833.022	23185
833.16	23330
833.299	23349
833.437	23368
833.576	23364
833.714	23417
833.852	23452
833.991	23558
834.129	23535
834.267	23585
834.406	23482
834.544	23547
834.682	23471
834.821	23459
834.959	23566
835.097	23299
835.235	23471
835.373	23391
835.511	23433
835.65	23151
835.788	23231
835.926	23124
836.064	23022
836.202	23022
836.34	23261
836.478	23261
836.615	23292
836.753	23296
836.891	23326
837.029	23341
837.167	23178
837.305	23124
837.443	23132
837.58	23105
837.718	23250
837.856	23181
837.993	22934
838.131	23193
838.269	22938
838.406	22995
838.544	22957
838.681	22755
838.819	22664
838.956	22577
839.094	22554
839.231	22649
839.369	22801
839.506	23044
839.643	22869
839.781	22611
839.918	22557
840.055	22497
840.193	22599
840.33	22432
840.467	22546
840.604	22577
840.742	22774
840.879	22394
841.016	22432
841.153	22421
841.29	22611
841.427	22489
841.564	22603
841.701	22523
841.838	22451
841.975	22352
842.112	22413
842.249	22272
842.385	22341
842.522	22508
842.659	22306
842.796	22299
842.933	22348
843.069	22192
843.206	22219
843.343	22478
843.479	22306
843.616	22344
843.752	22086
843.889	22154
844.025	22162
844.162	22044
844.298	22093
844.435	21994
844.571	21892
844.708	22112
844.844	22238
844.98	22226
845.117	22078
845.253	21930
845.389	21838
845.525	22078
845.661	21857
845.798	21679
845.934	21789
846.07	21705
846.206	21743
846.342	21857
846.478	21751
846.614	21686
846.75	21526
846.886	21416
847.022	21583
847.158	21454
847.294	21477
847.429	21572
847.565	21572
847.701	21698
847.837	21256
847.972	21256
848.108	21313
848.244	21370
848.379	21138
848.515	21112
848.65	21058
848.786	21173
848.921	21066
849.057	21306
849.192	21184
849.328	21287
849.463	21188
849.598	21104
849.734	21138
849.869	20975
850.004	20918
850.14	20872
850.275	20906
850.41	20765
850.545	20735
850.68	20864
850.815	20944
850.95	20937
851.085	21112
851.22	21013
851.355	20925
851.49	20804
851.625	20849
851.76	20758
851.895	20807
852.03	20796
852.165	20891
852.299	20880
852.434	20986
852.569	20960
852.703	20914
852.838	21047
852.973	20948
853.107	20925
853.242	20849
853.376	20739
853.511	20712
853.645	20659
853.78	20830
853.914	20727
854.048	20659
854.183	20762
854.317	20629
854.451	20895
854.585	20739
854.72	20765
854.854	20876
854.988	20583
855.122	20678
855.256	20663
855.39	20678
855.524	20861
855.658	20849
855.792	20765
855.926	20720
856.06	20712
856.194	20781
856.327	20743
856.461	20495
856.595	20598
856.729	20750
856.862	20720
856.996	20788
857.13	20750
857.263	20781
857.397	20754
857.53	20807
857.664	20880
857.797	20868
857.931	20765
858.064	20762
858.197	20762
858.331	20705
858.464	20659
858.597	20579
858.731	20659
858.864	20678
858.997	20781
859.13	20712
859.263	20686
859.396	20743
859.529	20659
859.662	20701
859.795	20697
859.928	20682
860.061	20830
860.194	20918
860.327	20701
860.46	20739
860.592	20800
860.725	20956
860.858	20826
860.99	20640
861.123	20461
861.256	20667
861.388	20663
861.521	21226
861.653	20606
861.786	20473
861.918	20400
862.05	20594
862.183	20564
862.315	20689
862.447	20621
862.58	20537
862.712	20499
862.844	20495
862.976	20530
863.108	20412
863.24	20667
863.372	20415
863.504	20294
863.636	20484
863.768	20393
863.9	20499
864.032	20358
864.164	20511
864.296	20533
864.428	20564
864.559	20480
864.691	20507
864.823	20454
864.954	20412
865.086	20446
865.217	20290
865.349	20218
865.48	20328
865.612	20377
865.743	20404
865.875	20351
866.006	20282
866.137	20313
866.269	20423
866.4	20286
866.531	20317
866.662	20214
866.793	20164
866.924	20229
867.055	20332
867.186	20195
867.317	20229
867.448	20168
867.579	20294
867.71	20142
867.841	20221
867.972	20317
868.103	20240
868.233	20240
868.364	20317
868.495	20240
868.625	20518
868.756	20598
868.886	20492
869.017	20488
869.147	20587
869.278	20632
869.408	20507
869.539	20583
869.669	20514
869.799	20629
869.929	20609
870.06	20644
870.19	20918
870.32	20845
870.45	20914
870.58	20830
870.71	20918
870.84	21062
870.97	20830
871.1	20830
871.23	21138
871.36	21005
871.489	21047
871.619	21043
871.749	21207
871.879	21043
872.008	21195
872.138	21154
872.267	21154
872.397	20994
872.526	20883
872.656	21043
872.785	20967
872.915	21123
873.044	21169
873.173	21176
873.303	21146
873.432	21176
873.561	21108
873.69	21150
873.819	21096
873.948	21249
874.077	21180
874.206	21142
874.335	21081
874.464	21237
874.593	21504
874.722	21283
874.851	21515
874.979	21363
875.108	21557
875.237	21294
875.365	21340
875.494	21359
875.623	21431
875.751	21317
875.88	21325
876.008	21488
876.136	21656
876.265	21819
876.393	21937
876.521	21979
876.65	21854
876.778	21888
876.906	21698
877.034	21648
877.162	21816
877.29	21671
877.418	21701
877.546	21713
877.674	21766
877.802	21759
877.93	21633
878.058	21816
878.185	21663
878.313	21561
878.441	21717
878.568	21606
878.696	21656
878.824	21701
878.951	21865
879.079	21869
879.206	21964
879.333	21869
879.461	21800
879.588	21808
879.715	21972
879.842	21797
879.97	21861
880.097	21610
880.224	21610
880.351	21637
880.478	21709
880.605	21587
880.732	21656
880.859	21835
880.986	21485
881.112	21591
881.239	21466
881.366	21344
881.493	21317
881.619	21150
881.746	21207
881.872	21203
881.999	20979
882.125	21066
882.252	21245
882.378	21112
882.505	21157
882.631	20975
882.757	20815
882.883	21032
883.01	20876
883.136	20720
883.262	20727
883.388	20663
883.514	20880
883.64	20804
883.766	20807
883.892	20724
884.018	20693
884.143	20727
884.269	20948
884.395	20617
884.52	20412
884.646	20518
884.772	20400
884.897	20370
885.023	20495
885.148	20613
885.274	20556
885.399	20503
885.524	20499
885.65	20370
885.775	20492
885.9	20427
886.025	20663
886.15	20537
886.275	20396
886.4	20267
886.525	20465
886.65	20438
886.775	20381
886.9	20617
887.025	20686
887.149	20461
887.274	20263
887.399	20229
887.523	20206
887.648	20202
887.773	20221
887.897	20427
888.021	20145
888.146	20149
888.27	20267
888.395	20259
888.519	20256
888.643	20286
888.767	20263
888.891	20214
889.015	20111
889.139	20134
889.263	19959
889.387	20309
889.511	20229
889.635	20248
889.759	20103
889.883	20119
890.006	20020
890.13	20149
890.254	19974
890.377	20008
890.501	19879
890.624	19761
890.748	19841
890.871	19742
890.995	19635
891.118	19651
891.241	19761
891.364	19578
891.488	19849
891.611	19643
891.734	19537
891.857	19811
891.98	19575
892.103	19765
892.226	19681
892.349	19548
892.471	19449
892.594	19590
892.717	19510
892.839	19514
892.962	19616
893.085	19575
893.207	19544
893.33	19411
893.452	19491
893.575	19677
893.697	19514
893.819	19689
893.941	19841
894.064	19635
894.186	19548
894.308	19499
894.43	19651
894.552	19670
894.674	19670
894.796	19472
894.918	19563
895.04	19396
895.161	19620
895.283	19666
895.405	19449
895.526	19548
895.648	19537
895.769	19468
895.891	19594
896.012	19689
896.134	19594
896.255	19601
896.376	19506
896.498	19632
896.619	19563
896.74	19483
896.861	19670
896.982	19833
897.103	20027
897.224	19868
897.345	19814
897.466	19719
897.587	19864
897.708	19936
897.828	19803
897.949	19776
898.07	19689
898.19	19719
898.311	19860
898.431	19712
898.552	19765
898.672	19868
898.792	19845
898.913	19772
899.033	19712
899.153	19647
899.273	19502
899.393	19586
899.513	19609
899.633	19487
899.753	19563
899.873	19400
899.993	19567
900.113	19499
900.232	19472
900.352	19483
900.472	19396
900.591	19324
900.711	19308
900.83	19316
900.95	19396
901.069	19426
901.189	19217
901.308	18966
901.427	18837
901.546	18924
901.665	18943
901.784	18920
901.904	18791
902.023	18616
902.141	18403
902.26	18372
902.379	18494
902.498	18441
902.617	18464
902.735	18540
902.854	18323
902.973	18254
903.091	18064
903.21	18194
903.328	18083
903.446	18087
903.565	17923
903.683	17946
903.801	17889
903.919	17931
904.038	17863
904.156	17707
904.274	17794
904.392	17714
904.51	17680
904.627	17687
904.745	17824
904.863	17714
904.981	17505
905.098	17444
905.216	17364
905.334	17421
905.451	17356
905.569	17436
905.686	17440
905.803	17288
905.921	17128
906.038	17261
906.155	17223
906.272	17143
906.389	17132
906.506	16862
906.623	16942
906.74	16892
906.857	16805
906.974	16885
907.091	17060
907.208	16987
907.324	17022
907.441	16694
907.557	16649
907.674	16733
907.79	16485
907.907	16618
908.023	16664
908.139	16603
908.256	16519
908.372	16497
908.488	16478
908.604	16375
908.72	16375
908.836	16382
908.952	16318
909.068	16409
909.184	16493
909.3	16379
909.415	16398
909.531	16375
909.647	16192
909.762	16147
909.878	16082
909.993	16021
910.108	16010
910.224	15987
910.339	15953
910.454	15960
910.57	15857
910.685	15835
910.8	16040
910.915	15968
911.03	15865
911.145	15789
911.259	15789
911.374	15732
911.489	15496
911.604	15504
911.718	15397
911.833	15443
911.947	15397
912.062	15332
912.176	15549
912.291	15507
912.405	15485
912.519	15599
912.633	15682
912.748	15443
912.862	15389
912.976	15317
913.09	15233
913.204	15138
913.318	15233
913.431	15382
913.545	15272
913.659	15389
913.772	15150
913.886	15077
914	15104
914.113	15142
914.226	15176
914.34	15097
914.453	14929
914.566	15089
914.68	14918
914.793	14910
914.906	14762
915.019	14731
915.132	14678
915.245	14655
915.358	14735
915.47	14674
915.583	14686
915.696	14678
915.809	14796
915.921	14804
916.034	14644
916.146	14594
916.259	14632
916.371	14701
916.483	14667
916.595	14488
916.708	14522
916.82	14552
916.932	14556
917.044	14514
917.156	14541
917.268	14320
917.38	14358
917.491	14275
917.603	14381
917.715	14465
917.826	14351
917.938	14286
918.049	14278
918.161	14358
918.272	14332
918.384	14412
918.495	14267
918.606	14206
918.717	14054
918.828	14126
918.939	14103
919.05	13951
919.161	14077
919.272	13852
919.383	14058
919.494	14187
919.604	14355
919.715	14214
919.826	14001
919.936	14050
920.047	14115
920.157	14149
920.267	14225
920.378	14088
920.488	14046
920.598	14237
920.708	14389
920.818	14351
920.928	14229
921.038	14362
921.148	14351
921.258	14008
921.368	13909
921.477	13761
921.587	13795
921.697	13761
921.806	13776
921.916	13639
922.025	13472
922.134	13499
922.244	13339
922.353	13521
922.462	13400
922.571	13312
922.68	13149
922.789	13133
922.898	13190
923.007	13091
923.116	13225
923.224	13050
923.333	13084
923.442	13012
923.55	12928
923.659	12909
923.767	13046
923.876	12856
923.984	12973
924.092	12871
924.201	12890
924.309	12837
924.417	12966
924.525	12852
924.633	12825
924.741	13757
924.849	12631
924.956	12700
925.064	12620
925.172	12483
925.279	12578
925.387	12532
925.494	12555
925.602	12662
925.709	12623
925.816	12418
925.924	12517
926.031	12506
926.138	12555
926.245	12597
926.352	12437
926.459	12673
926.566	12601
926.673	12490
926.779	12308
926.886	12388
926.993	12251
927.099	12076
927.206	12182
927.312	12045
927.419	12209
927.525	12186
927.631	12117
927.737	12045
927.843	11942
927.95	11882
928.056	12019
928.162	11935
928.267	12034
928.373	12570
928.479	12171
928.585	11764
928.69	11927
928.796	12064
928.901	11821
929.007	11665
929.112	11863
929.218	11821
929.323	11775
929.428	11767
929.533	11817
929.638	11577
929.743	11684
929.848	11741
929.953	11638
930.058	11585
930.163	11455
930.267	11448
930.372	11535
930.477	11341
930.581	11509
930.685	11368
930.79	11265
930.894	11398
930.998	11360
931.103	11417
931.207	11052
931.311	10938
931.415	10896
931.519	10668
931.623	10637
