Data from test_V78500241_1479.txt Node
Date: Fri Mar 25 15:20:09 CST 2022
User: usil
Spectrometer: V785-0024
Trigger mode: 0
Integration Time (sec): 4.000000E-1
Scans to average: 1
Nonlinearity correction enabled: false
Boxcar width: 0
Storing dark spectrum: false
XAxis mode: Wavelengths
Number of Pixels in Spectrum: 1024
>>>>>Begin Spectral Data<<<<<
801.071	27911
801.214	27934
801.356	27835
801.499	27599
801.641	27736
801.783	27523
801.926	27568
802.068	27705
802.211	27561
802.353	27462
802.496	27260
802.638	27298
802.78	27184
802.923	27188
803.065	27138
803.208	27096
803.35	27169
803.492	27416
803.635	27321
803.777	27374
803.919	27450
804.061	27789
804.204	27431
804.346	27332
804.488	27401
804.63	27359
804.773	27469
804.915	27462
805.057	27454
805.199	27435
805.341	27591
805.483	27595
805.626	27534
805.768	27488
805.91	27485
806.052	27572
806.194	27511
806.336	27808
806.478	27557
806.62	27663
806.762	27713
806.904	27793
807.046	28051
807.188	27998
807.33	27987
807.472	28044
807.614	27895
807.756	28078
807.898	27808
808.04	27911
808.182	27838
808.324	27903
808.465	27983
808.607	28067
808.749	28147
808.891	28276
809.033	28512
809.174	28284
809.316	28223
809.458	28101
809.6	28329
809.741	28299
809.883	28409
810.025	28519
810.166	28531
810.308	28500
810.45	28485
810.591	28363
810.733	28207
810.875	28280
811.016	28196
811.158	28063
811.299	28428
811.441	28523
811.582	28371
811.724	28333
811.865	28318
812.007	28112
812.148	28204
812.29	28162
812.431	28485
812.573	28462
812.714	28641
812.855	28786
812.997	28771
813.138	28904
813.279	28805
813.421	28809
813.562	28725
813.703	28379
813.845	28481
813.986	28139
814.127	28013
814.268	27914
814.41	28006
814.551	27876
814.692	28109
814.833	27857
814.974	27895
815.115	27949
815.256	27865
815.397	27827
815.539	27717
815.68	27656
815.821	27633
815.962	27694
816.103	27736
816.244	27564
816.385	27485
816.526	27435
816.666	27332
816.807	27256
816.948	27310
817.089	27291
817.23	27302
817.371	27249
817.512	27260
817.653	27165
817.793	27093
817.934	27154
818.075	27313
818.216	27325
818.356	27077
818.497	27020
818.638	26796
818.778	27017
818.919	26952
819.06	27028
819.2	26990
819.341	27214
819.481	27268
819.622	27260
819.762	27545
819.903	27507
820.043	27496
820.184	27405
820.324	27245
820.465	27447
820.605	27344
820.746	27321
820.886	27214
821.026	27180
821.167	27249
821.307	27329
821.447	27188
821.588	26979
821.728	27062
821.868	26769
822.008	26727
822.149	26686
822.289	26689
822.429	26457
822.569	26393
822.709	26301
822.849	26221
822.99	26210
823.13	26328
823.27	26176
823.41	25963
823.55	26005
823.69	26263
823.83	26046
823.97	25944
824.11	25887
824.25	25715
824.389	25788
824.529	25989
824.669	25811
824.809	25837
824.949	25906
825.089	25932
825.228	25849
825.368	25719
825.508	25601
825.648	25723
825.787	25772
825.927	25788
826.067	25624
826.206	25658
826.346	25753
826.485	25780
826.625	25556
826.765	25662
826.904	25803
827.044	25552
827.183	25430
827.323	25316
827.462	25483
827.601	25479
827.741	25369
827.88	25430
828.02	25213
828.159	25483
828.298	25487
828.437	25563
828.577	25266
828.716	25400
828.855	25236
828.994	25141
829.134	25148
829.273	25198
829.412	25050
829.551	25061
829.69	25164
829.829	25137
829.968	25175
830.107	25225
830.246	25046
830.385	25023
830.524	24951
830.663	24916
830.802	24673
830.941	24692
831.08	24700
831.219	24844
831.357	24776
831.496	24989
831.635	24779
831.774	24631
831.913	24612
832.051	24703
832.19	24559
832.329	24448
832.467	24422
832.606	24433
832.744	24350
832.883	24292
833.022	24365
833.16	24471
833.299	24479
833.437	24433
833.576	24433
833.714	24441
833.852	24608
833.991	24422
834.129	24490
834.267	24563
834.406	24338
834.544	24467
834.682	24582
834.821	24418
834.959	24601
835.097	24422
835.235	24505
835.373	24407
835.511	24410
835.65	24369
835.788	24125
835.926	24262
836.064	24136
836.202	24186
836.34	24186
836.478	24270
836.615	24117
836.753	24194
836.891	24403
837.029	24194
837.167	24117
837.305	24072
837.443	24174
837.58	24129
837.718	24262
837.856	24171
837.993	24171
838.131	24133
838.269	23984
838.406	23965
838.544	23821
838.681	23672
838.819	23672
838.956	23611
839.094	23459
839.231	23554
839.369	23714
839.506	23958
839.643	23832
839.781	23585
839.918	23474
840.055	23547
840.193	23528
840.33	23505
840.467	23630
840.604	23497
840.742	23676
840.879	23417
841.016	23303
841.153	23417
841.29	23509
841.427	23596
841.564	23433
841.701	23433
841.838	23543
841.975	23307
842.112	23383
842.249	23330
842.385	23273
842.522	23387
842.659	23212
842.796	23239
842.933	23273
843.069	23124
843.206	23265
843.343	23269
843.479	23094
843.616	23178
843.752	22980
843.889	23056
844.025	23159
844.162	22843
844.298	23094
844.435	23029
844.571	22904
844.708	22987
844.844	23067
844.98	22968
845.117	23071
845.253	23014
845.389	22850
845.525	22900
845.661	22904
845.798	22634
845.934	22683
846.07	22516
846.206	22801
846.342	22820
846.478	22675
846.614	22512
846.75	22436
846.886	22432
847.022	22508
847.158	22504
847.294	22504
847.429	22405
847.565	22341
847.701	22710
847.837	22306
847.972	22204
848.108	22253
848.244	22325
848.379	22105
848.515	21968
848.65	22055
848.786	22177
848.921	22131
849.057	22131
849.192	22143
849.328	22063
849.463	22044
849.598	22002
849.734	21869
849.869	21918
850.004	21842
850.14	21816
850.275	21884
850.41	21812
850.545	21766
850.68	21778
850.815	21774
850.95	21743
851.085	21907
851.22	21975
851.355	21869
851.49	21751
851.625	21766
851.76	21804
851.895	21690
852.03	21709
852.165	21785
852.299	21793
852.434	21850
852.569	21835
852.703	21747
852.838	21888
852.973	21895
853.107	21918
853.242	21709
853.376	21694
853.511	21629
853.645	21671
853.78	21770
853.914	21667
854.048	21576
854.183	21557
854.317	21629
854.451	21774
854.585	21698
854.72	21652
854.854	21606
854.988	21599
855.122	21625
855.256	21561
855.39	21618
855.524	21637
855.658	21656
855.792	21637
855.926	21610
856.06	21667
856.194	21671
856.327	21583
856.461	21648
856.595	21652
856.729	21755
856.862	21823
856.996	21694
857.13	21614
857.263	21751
857.397	21766
857.53	21614
857.664	21580
857.797	21705
857.931	21743
858.064	21675
858.197	21671
858.331	21762
858.464	21641
858.597	21450
858.731	21675
858.864	21622
858.997	21667
859.13	21526
859.263	21606
859.396	21816
859.529	21515
859.662	21526
859.795	21603
859.928	21648
860.061	21774
860.194	21781
860.327	21545
860.46	21622
860.592	21675
860.725	21846
860.858	21797
860.99	21629
861.123	21466
861.256	21538
861.388	21641
861.521	22067
861.653	21557
861.786	21325
861.918	21420
862.05	21485
862.183	21633
862.315	21564
862.447	21603
862.58	21633
862.712	21245
862.844	21389
862.976	21355
863.108	21424
863.24	21842
863.372	21203
863.504	21344
863.636	21340
863.768	21279
863.9	21386
864.032	21218
864.164	21165
864.296	21256
864.428	21298
864.559	21435
864.691	21306
864.823	21378
864.954	21378
865.086	21294
865.217	21252
865.349	21146
865.48	21161
865.612	21184
865.743	21374
865.875	21169
866.006	21256
866.137	21249
866.269	21157
866.4	21146
866.531	21226
866.662	21085
866.793	21024
866.924	21104
867.055	21180
867.186	21138
867.317	21074
867.448	21013
867.579	21089
867.71	21036
867.841	21043
867.972	21135
868.103	21051
868.233	21195
868.364	21207
868.495	21211
868.625	21367
868.756	21477
868.886	21344
869.017	21340
869.147	21557
869.278	21466
869.408	21458
869.539	21370
869.669	21405
869.799	21393
869.929	21473
870.06	21545
870.19	21679
870.32	21545
870.45	21736
870.58	21701
870.71	21960
870.84	21937
870.97	21663
871.1	21903
871.23	21922
871.36	22025
871.489	21953
871.619	21873
871.749	21911
871.879	21960
872.008	22055
872.138	22032
872.267	21918
872.397	21873
872.526	21785
872.656	21975
872.785	21827
872.915	21987
873.044	22116
873.173	22021
873.303	22131
873.432	21949
873.561	22040
873.69	22040
873.819	22074
873.948	22162
874.077	22013
874.206	21861
874.335	21857
874.464	22090
874.593	22306
874.722	22200
874.851	22230
874.979	22211
875.108	22181
875.237	22143
875.365	22154
875.494	22162
875.623	22261
875.751	22143
875.88	22185
876.008	22257
876.136	22417
876.265	22725
876.393	22740
876.521	22691
876.65	22759
876.778	22603
876.906	22577
877.034	22497
877.162	22672
877.29	22557
877.418	22512
877.546	22557
877.674	22588
877.802	22474
877.93	22622
878.058	22481
878.185	22546
878.313	22451
878.441	22557
878.568	22440
878.696	22615
878.824	22550
878.951	22592
879.079	22694
879.206	22801
879.333	22687
879.461	22580
879.588	22679
879.715	22755
879.842	22755
879.97	22710
880.097	22329
880.224	22428
880.351	22344
880.478	22592
880.605	22322
880.732	22295
880.859	22466
880.986	22436
881.112	22417
881.239	22253
881.366	22158
881.493	22025
881.619	21861
881.746	21972
881.872	21892
881.999	21865
882.125	21861
882.252	22105
882.378	21922
882.505	22029
882.631	21812
882.757	21591
882.883	21720
883.01	21641
883.136	21549
883.262	21530
883.388	21485
883.514	21686
883.64	21698
883.766	21428
883.892	21370
884.018	21515
884.143	21576
884.269	21679
884.395	21363
884.52	21363
884.646	21291
884.772	21154
884.897	21199
885.023	21310
885.148	21378
885.274	21523
885.399	21424
885.524	21317
885.65	21272
885.775	21272
885.9	21180
886.025	21416
886.15	21412
886.275	21313
886.4	21138
886.525	21211
886.65	21173
886.775	21119
886.9	21412
887.025	21492
887.149	21264
887.274	21047
887.399	20971
887.523	21112
887.648	20975
887.773	20918
887.897	21100
888.021	21028
888.146	20948
888.27	21188
888.395	21268
888.519	21074
888.643	21116
888.767	21062
888.891	20872
889.015	20876
889.139	20868
889.263	20701
889.387	20963
889.511	21104
889.635	20933
889.759	20861
889.883	20781
890.006	20811
890.13	20823
890.254	20804
890.377	20750
890.501	20594
890.624	20617
890.748	20621
890.871	20419
890.995	20408
891.118	20400
891.241	20351
891.364	20328
891.488	20499
891.611	20446
891.734	20511
891.857	20457
891.98	20389
892.103	20526
892.226	20339
892.349	20374
892.471	20229
892.594	20206
892.717	20309
892.839	20366
892.962	20275
893.085	20305
893.207	20339
893.33	20149
893.452	20164
893.575	20343
893.697	20298
893.819	20454
893.941	20492
894.064	20484
894.186	20199
894.308	20275
894.43	20450
894.552	20442
894.674	20457
894.796	20111
894.918	20237
895.04	20267
895.161	20370
895.283	20305
895.405	20305
895.526	20282
895.648	20237
895.769	20313
895.891	20328
896.012	20320
896.134	20450
896.255	20351
896.376	20263
896.498	20248
896.619	20358
896.74	20286
896.861	20419
896.982	20644
897.103	20826
897.224	20613
897.345	20522
897.466	20450
897.587	20434
897.708	20644
897.828	20480
897.949	20469
898.07	20362
898.19	20381
898.311	20549
898.431	20495
898.552	20476
898.672	20507
898.792	20587
898.913	20454
899.033	20332
899.153	20282
899.273	20240
899.393	20252
899.513	20225
899.633	20259
899.753	20355
899.873	20119
899.993	20252
900.113	20210
900.232	20320
900.352	20229
900.472	20119
900.591	19974
900.711	20073
900.83	20016
900.95	20092
901.069	20157
901.189	19917
901.308	19719
901.427	19601
901.546	19639
901.665	19499
901.784	19544
901.904	19419
902.023	19377
902.141	19221
902.26	19103
902.379	19126
902.498	19034
902.617	18970
902.735	19217
902.854	19175
902.973	19069
903.091	18810
903.21	18745
903.328	18665
903.446	18566
903.565	18570
903.683	18582
903.801	18532
903.919	18483
904.038	18620
904.156	18403
904.274	18483
904.392	18292
904.51	18330
904.627	18346
904.745	18414
904.863	18445
904.981	18163
905.098	18136
905.216	18034
905.334	18068
905.451	18129
905.569	18007
905.686	18220
905.803	18026
905.921	17741
906.038	17904
906.155	17790
906.272	17756
906.389	17646
906.506	17661
906.623	17619
906.74	17577
906.857	17459
906.974	17455
907.091	17657
907.208	17615
907.324	17668
907.441	17505
907.557	17326
907.674	17345
907.79	17299
907.907	17269
908.023	17345
908.139	17277
908.256	17254
908.372	17200
908.488	17162
908.604	17048
908.72	17041
908.836	17071
908.952	17029
909.068	17014
909.184	17079
909.3	16987
909.415	16965
909.531	17041
909.647	16812
909.762	16622
909.878	16588
909.993	16740
910.108	16664
910.224	16618
910.339	16630
910.454	16508
910.57	16493
910.685	16455
910.8	16759
910.915	16630
911.03	16588
911.145	16413
911.259	16329
911.374	16325
911.489	16192
911.604	16230
911.718	16021
911.833	15953
911.947	15983
912.062	15865
912.176	16025
912.291	15915
912.405	16010
912.519	16188
912.633	16124
912.748	16101
912.862	15953
912.976	15892
913.09	15743
913.204	15854
913.318	15888
913.431	15941
913.545	15934
913.659	15964
913.772	15743
913.886	15720
914	15603
914.113	15781
914.226	15614
914.34	15743
914.453	15450
914.566	15709
914.68	15572
914.793	15500
914.906	15408
915.019	15256
915.132	15218
915.245	15161
915.358	15226
915.47	15241
915.583	15275
915.696	15325
915.809	15386
915.921	15291
916.034	15184
916.146	15173
916.259	15108
916.371	15306
916.483	15154
916.595	15157
916.708	15108
916.82	15116
916.932	15036
917.044	15017
917.156	15013
917.268	14929
917.38	14994
917.491	14872
917.603	14895
917.715	14910
917.826	15066
917.938	14804
918.049	14792
918.161	14880
918.272	14979
918.384	14883
918.495	14891
918.606	14697
918.717	14602
918.828	14632
918.939	14807
919.05	14575
919.161	14579
919.272	14503
919.383	14514
919.494	14697
919.604	14762
919.715	14705
919.826	14438
919.936	14663
920.047	14705
920.157	14636
920.267	14773
920.378	14632
920.488	14533
920.598	14689
920.708	14941
920.818	14785
920.928	14777
921.038	14826
921.148	14746
921.258	14610
921.368	14480
921.477	14362
921.587	14351
921.697	14172
921.806	14358
921.916	14252
922.025	14054
922.134	14024
922.244	13906
922.353	13982
922.462	13879
922.571	13723
922.68	13772
922.789	13529
922.898	13662
923.007	13533
923.116	13658
923.224	13636
923.333	13609
923.442	13407
923.55	13514
923.659	13521
923.767	13567
923.876	13407
923.984	13502
924.092	13346
924.201	13426
924.309	13350
924.417	13320
924.525	13278
924.633	13232
924.741	14046
924.849	13095
924.956	13187
925.064	13031
925.172	12989
925.279	13091
925.387	13118
925.494	13095
925.602	13213
925.709	13110
925.816	12985
925.924	12989
926.031	13110
926.138	12894
926.245	13050
926.352	12821
926.459	13046
926.566	13091
926.673	12947
926.779	12772
926.886	12764
926.993	12601
927.099	12665
927.206	12597
927.312	12589
927.419	12677
927.525	12551
927.631	12662
927.737	12467
927.843	12456
927.95	12330
928.056	12414
928.162	12441
928.267	12479
928.373	13099
928.479	12464
928.585	12251
928.69	12384
928.796	12475
928.901	12186
929.007	12285
929.112	12197
929.218	12220
929.323	12167
929.428	12186
929.533	12327
929.638	12155
929.743	12114
929.848	12148
929.953	12110
930.058	12015
930.163	11813
930.267	11832
930.372	11942
930.477	11828
930.581	11939
930.685	11935
930.79	11642
930.894	11855
930.998	11615
931.103	11859
931.207	11474
931.311	11360
931.415	11368
931.519	11098
931.623	11143
