Data from test_V78500241_549.txt Node
Date: Fri Mar 25 15:13:40 CST 2022
User: usil
Spectrometer: V785-0024
Trigger mode: 0
Integration Time (sec): 4.000000E-1
Scans to average: 1
Nonlinearity correction enabled: false
Boxcar width: 0
Storing dark spectrum: false
XAxis mode: Wavelengths
Number of Pixels in Spectrum: 1024
>>>>>Begin Spectral Data<<<<<
801.071	27036
801.214	27032
801.356	26796
801.499	26689
801.641	26518
801.783	26507
801.926	26705
802.068	26564
802.211	26412
802.353	26415
802.496	26111
802.638	26278
802.78	26317
802.923	26138
803.065	26138
803.208	26202
803.35	26267
803.492	26248
803.635	26374
803.777	26282
803.919	26511
804.061	26655
804.204	26358
804.346	26317
804.488	26210
804.63	26400
804.773	26343
804.915	26286
805.057	26377
805.199	26343
805.341	26453
805.483	26507
805.626	26450
805.768	26351
805.91	26499
806.052	26499
806.194	26408
806.336	26571
806.478	26507
806.62	26442
806.762	26541
806.904	26689
807.046	27005
807.188	26891
807.33	26891
807.472	26944
807.614	26815
807.756	26746
807.898	26823
808.04	26686
808.182	26705
808.324	26788
808.465	26644
808.607	26933
808.749	26998
808.891	27146
809.033	27306
809.174	27203
809.316	27207
809.458	26998
809.6	27138
809.741	27100
809.883	27275
810.025	27386
810.166	27408
810.308	27351
810.45	27367
810.591	27260
810.733	27211
810.875	26994
811.016	26925
811.158	26982
811.299	27176
811.441	27268
811.582	27245
811.724	27112
811.865	26864
812.007	26948
812.148	26967
812.29	27138
812.431	27245
812.573	27268
812.714	27526
812.855	27603
812.997	27679
813.138	27819
813.279	27766
813.421	27561
813.562	27462
813.703	27500
813.845	27313
813.986	27085
814.127	26864
814.268	26693
814.41	26678
814.551	26697
814.692	26826
814.833	26590
814.974	26648
815.115	26765
815.256	26511
815.397	26670
815.539	26522
815.68	26461
815.821	26495
815.962	26564
816.103	26492
816.244	26358
816.385	26161
816.526	26301
816.666	26100
816.807	26046
816.948	25940
817.089	26096
817.23	26172
817.371	26065
817.512	26043
817.653	25894
817.793	25913
817.934	26039
818.075	26012
818.216	25936
818.356	25963
818.497	25909
818.638	25601
818.778	25894
818.919	25731
819.06	25765
819.2	25852
819.341	25894
819.481	25993
819.622	26202
819.762	26339
819.903	26347
820.043	26161
820.184	26240
820.324	26187
820.465	26218
820.605	26103
820.746	26164
820.886	25845
821.026	26103
821.167	25959
821.307	26126
821.447	25936
821.588	25868
821.728	25784
821.868	25605
822.008	25419
822.149	25495
822.289	25548
822.429	25213
822.569	25076
822.709	25133
822.849	24985
822.99	24924
823.13	24909
823.27	24951
823.41	24787
823.55	24730
823.69	24817
823.83	24658
823.97	24749
824.11	24585
824.25	24426
824.389	24585
824.529	24673
824.669	24669
824.809	24738
824.949	24684
825.089	24658
825.228	24654
825.368	24551
825.508	24464
825.648	24475
825.787	24407
825.927	24407
826.067	24346
826.206	24369
826.346	24479
826.485	24456
826.625	24448
826.765	24589
826.904	24494
827.044	24121
827.183	24220
827.323	24152
827.462	24125
827.601	24167
827.741	24174
827.88	24190
828.02	24117
828.159	24098
828.298	24133
828.437	24167
828.577	24152
828.716	24220
828.855	24049
828.994	23980
829.134	23904
829.273	23965
829.412	23870
829.551	23684
829.69	23828
829.829	23840
829.968	24007
830.107	24011
830.246	23874
830.385	23855
830.524	23558
830.663	23809
830.802	23623
830.941	23490
831.08	23493
831.219	23585
831.357	23524
831.496	23611
831.635	23512
831.774	23512
831.913	23425
832.051	23162
832.19	23258
832.329	23235
832.467	23227
832.606	23140
832.744	23151
832.883	23189
833.022	23121
833.16	23246
833.299	23105
833.437	23254
833.576	23318
833.714	23231
833.852	23417
833.991	23246
834.129	23254
834.267	23376
834.406	23212
834.544	23170
834.682	23254
834.821	23185
834.959	23395
835.097	23109
835.235	23307
835.373	23223
835.511	23132
835.65	22991
835.788	23033
835.926	23003
836.064	22900
836.202	22854
836.34	23052
836.478	23121
836.615	23064
836.753	23109
836.891	23143
837.029	23193
837.167	23018
837.305	23075
837.443	23048
837.58	22949
837.718	22972
837.856	23033
837.993	23010
838.131	22911
838.269	22767
838.406	22831
838.544	22740
838.681	22592
838.819	22725
838.956	22516
839.094	22455
839.231	22485
839.369	22554
839.506	22710
839.643	22630
839.781	22470
839.918	22295
840.055	22333
840.193	22413
840.33	22402
840.467	22322
840.604	22382
840.742	22588
840.879	22188
841.016	22188
841.153	22344
841.29	22402
841.427	22325
841.564	22333
841.701	22398
841.838	22341
841.975	22329
842.112	22204
842.249	22093
842.385	22067
842.522	22333
842.659	22139
842.796	21979
842.933	22120
843.069	22078
843.206	22006
843.343	21979
843.479	22067
843.616	22185
843.752	21975
843.889	21869
844.025	21968
844.162	21876
844.298	21903
844.435	21892
844.571	21869
844.708	22017
844.844	22044
844.98	21991
845.117	21987
845.253	21736
845.389	21762
845.525	21732
845.661	21728
845.798	21572
845.934	21701
846.07	21694
846.206	21587
846.342	21656
846.478	21644
846.614	21481
846.75	21329
846.886	21340
847.022	21424
847.158	21351
847.294	21424
847.429	21336
847.565	21363
847.701	21610
847.837	21039
847.972	20986
848.108	21222
848.244	21127
848.379	20986
848.515	20918
848.65	20845
848.786	20937
848.921	20986
849.057	21058
849.192	21043
849.328	21001
849.463	20982
849.598	20899
849.734	20830
849.869	20834
850.004	20815
850.14	20708
850.275	20727
850.41	20754
850.545	20644
850.68	20674
850.815	20788
850.95	20811
851.085	20861
851.22	20826
851.355	20811
851.49	20689
851.625	20651
851.76	20731
851.895	20621
852.03	20644
852.165	20765
852.299	20743
852.434	20781
852.569	20663
852.703	20594
852.838	20811
852.973	20872
853.107	20727
853.242	20682
853.376	20427
853.511	20461
853.645	20431
853.78	20648
853.914	20689
854.048	20499
854.183	20499
854.317	20629
854.451	20739
854.585	20518
854.72	20465
854.854	20602
854.988	20457
855.122	20438
855.256	20446
855.39	20560
855.524	20659
855.658	20621
855.792	20606
855.926	20636
856.06	20629
856.194	20765
856.327	20511
856.461	20465
856.595	20469
856.729	20541
856.862	20686
856.996	20674
857.13	20689
857.263	20621
857.397	20503
857.53	20545
857.664	20743
857.797	20670
857.931	20716
858.064	20594
858.197	20632
858.331	20549
858.464	20590
858.597	20461
858.731	20476
858.864	20606
858.997	20511
859.13	20503
859.263	20518
859.396	20667
859.529	20575
859.662	20606
859.795	20396
859.928	20644
860.061	20655
860.194	20743
860.327	20583
860.46	20625
860.592	20594
860.725	20708
860.858	20636
860.99	20568
861.123	20454
861.256	20389
861.388	20484
861.521	21302
861.653	20457
861.786	20450
861.918	20389
862.05	20332
862.183	20423
862.315	20492
862.447	20484
862.58	20503
862.712	20244
862.844	20202
862.976	20237
863.108	20248
863.24	20655
863.372	20221
863.504	20218
863.636	20180
863.768	20320
863.9	20336
864.032	20278
864.164	20172
864.296	20313
864.428	20473
864.559	20298
864.691	20309
864.823	20214
864.954	20195
865.086	20240
865.217	20183
865.349	20096
865.48	20301
865.612	20244
865.743	20229
865.875	20278
866.006	20012
866.137	20161
866.269	20191
866.4	20145
866.531	20130
866.662	20016
866.793	20130
866.924	20050
867.055	20122
867.186	20111
867.317	20084
867.448	20031
867.579	20012
867.71	20035
867.841	20046
867.972	20145
868.103	20130
868.233	20062
868.364	20092
868.495	20100
868.625	20282
868.756	20503
868.886	20328
869.017	20286
869.147	20495
869.278	20412
869.408	20389
869.539	20400
869.669	20488
869.799	20446
869.929	20431
870.06	20499
870.19	20609
870.32	20484
870.45	20667
870.58	20739
870.71	20823
870.84	20857
870.97	20720
871.1	20693
871.23	20899
871.36	20861
871.489	20864
871.619	20868
871.749	20883
871.879	20979
872.008	20842
872.138	20963
872.267	20883
872.397	20883
872.526	20724
872.656	20686
872.785	20826
872.915	20918
873.044	20998
873.173	20963
873.303	20956
873.432	21051
873.561	21047
873.69	21047
873.819	20933
873.948	21055
874.077	21020
874.206	20910
874.335	20929
874.464	21070
874.593	21260
874.722	21184
874.851	21226
874.979	21256
875.108	21275
875.237	21142
875.365	21199
875.494	21233
875.623	21249
875.751	21169
875.88	21154
876.008	21348
876.136	21435
876.265	21682
876.393	21701
876.521	21770
876.65	21671
876.778	21663
876.906	21572
877.034	21572
877.162	21553
877.29	21507
877.418	21504
877.546	21629
877.674	21416
877.802	21599
877.93	21534
878.058	21435
878.185	21542
878.313	21412
878.441	21511
878.568	21374
878.696	21530
878.824	21614
878.951	21519
879.079	21732
879.206	21831
879.333	21812
879.461	21671
879.588	21580
879.715	21713
879.842	21759
879.97	21587
880.097	21348
880.224	21355
880.351	21389
880.478	21401
880.605	21439
880.732	21428
880.859	21682
880.986	21317
881.112	21564
881.239	21370
881.366	21173
881.493	20979
881.619	21047
881.746	20910
881.872	21039
881.999	20963
882.125	20792
882.252	20967
882.378	20868
882.505	21051
882.631	20842
882.757	20663
882.883	20655
883.01	20678
883.136	20773
883.262	20503
883.388	20488
883.514	20735
883.64	20762
883.766	20659
883.892	20495
884.018	20514
884.143	20670
884.269	20625
884.395	20400
884.52	20286
884.646	20362
884.772	20351
884.897	20248
885.023	20309
885.148	20339
885.274	20594
885.399	20469
885.524	20393
885.65	20332
885.775	20381
885.9	20328
886.025	20473
886.15	20404
886.275	20328
886.4	20054
886.525	20271
886.65	20393
886.775	20275
886.9	20419
887.025	20556
887.149	20210
887.274	20073
887.399	20043
887.523	20001
887.648	20111
887.773	20008
887.897	20084
888.021	20161
888.146	20062
888.27	20149
888.395	20202
888.519	20126
888.643	20126
888.767	20092
888.891	20107
889.015	19944
889.139	19963
889.263	19997
889.387	20050
889.511	20187
889.635	20077
889.759	19883
889.883	19795
890.006	19928
890.13	20020
890.254	19803
890.377	19841
890.501	19586
890.624	19563
890.748	19727
890.871	19457
890.995	19495
891.118	19658
891.241	19563
891.364	19575
891.488	19662
891.611	19453
891.734	19441
891.857	19533
891.98	19499
892.103	19586
892.226	19441
892.349	19540
892.471	19221
892.594	19381
892.717	19422
892.839	19346
892.962	19411
893.085	19422
893.207	19373
893.33	19266
893.452	19240
893.575	19483
893.697	19419
893.819	19384
893.941	19563
894.064	19449
894.186	19350
894.308	19343
894.43	19457
894.552	19556
894.674	19422
894.796	19285
894.918	19396
895.04	19327
895.161	19578
895.283	19468
895.405	19468
895.526	19324
895.648	19263
895.769	19430
895.891	19468
896.012	19556
896.134	19430
896.255	19362
896.376	19426
896.498	19487
896.619	19457
896.74	19476
896.861	19510
896.982	19750
897.103	19955
897.224	19788
897.345	19731
897.466	19693
897.587	19662
897.708	19795
897.828	19712
897.949	19559
898.07	19495
898.19	19559
898.311	19643
898.431	19537
898.552	19666
898.672	19655
898.792	19681
898.913	19689
899.033	19514
899.153	19483
899.273	19350
899.393	19407
899.513	19411
899.633	19354
899.753	19476
899.873	19358
899.993	19419
900.113	19472
900.232	19491
900.352	19259
900.472	19236
900.591	19168
900.711	19312
900.83	19339
900.95	19415
901.069	19217
901.189	19160
901.308	18863
901.427	18817
901.546	18829
901.665	18837
901.784	18711
901.904	18802
902.023	18536
902.141	18509
902.26	18330
902.379	18452
902.498	18365
902.617	18395
902.735	18410
902.854	18224
902.973	18281
903.091	18079
903.21	18022
903.328	17977
903.446	17992
903.565	17897
903.683	17855
903.801	17798
903.919	17779
904.038	17779
904.156	17615
904.274	17638
904.392	17566
904.51	17528
904.627	17562
904.745	17710
904.863	17505
904.981	17398
905.098	17273
905.216	17265
905.334	17258
905.451	17258
905.569	17307
905.686	17292
905.803	17440
905.921	17064
906.038	17174
906.155	17132
906.272	17010
906.389	17075
906.506	16942
906.623	16862
906.74	16843
906.857	16702
906.974	16793
907.091	16748
907.208	16927
907.324	16873
907.441	16736
907.557	16607
907.674	16569
907.79	16558
907.907	16546
908.023	16630
908.139	16523
908.256	16535
908.372	16382
908.488	16344
908.604	16379
908.72	16344
908.836	16329
908.952	16211
909.068	16325
909.184	16356
909.3	16150
909.415	16344
909.531	16238
909.647	15991
909.762	15911
909.878	16021
909.993	15953
910.108	15903
910.224	15994
910.339	15899
910.454	15991
910.57	15812
910.685	15861
910.8	16029
910.915	15937
911.03	15713
911.145	15603
911.259	15553
911.374	15667
911.489	15507
911.604	15511
911.718	15306
911.833	15351
911.947	15176
912.062	15142
912.176	15336
912.291	15252
912.405	15363
912.519	15538
912.633	15458
912.748	15348
912.862	15287
912.976	15268
913.09	15024
913.204	15020
913.318	15070
913.431	15325
913.545	15146
913.659	15279
913.772	15043
913.886	15058
914	14929
914.113	14998
914.226	15070
914.34	15036
914.453	14921
914.566	14979
914.68	14857
914.793	14887
914.906	14670
915.019	14629
915.132	14495
915.245	14598
915.358	14587
915.47	14636
915.583	14598
915.696	14648
915.809	14758
915.921	14800
916.034	14533
916.146	14568
916.259	14518
916.371	14518
916.483	14457
916.595	14476
916.708	14465
916.82	14385
916.932	14450
917.044	14473
917.156	14320
917.268	14328
917.38	14351
917.491	14324
917.603	14286
917.715	14381
917.826	14339
917.938	14210
918.049	14164
918.161	14214
918.272	14317
918.384	14240
918.495	14199
918.606	14005
918.717	13917
918.828	14020
918.939	14088
919.05	14001
919.161	14035
919.272	13818
919.383	13852
919.494	14084
919.604	14195
919.715	14008
919.826	13993
919.936	14005
920.047	14077
920.157	14035
920.267	14278
920.378	14020
920.488	13909
920.598	14187
920.708	14339
920.818	14149
920.928	14202
921.038	14351
921.148	14233
921.258	13997
921.368	13814
921.477	13780
921.587	13780
921.697	13681
921.806	13746
921.916	13616
922.025	13480
922.134	13396
922.244	13384
922.353	13381
922.462	13312
922.571	13266
922.68	13080
922.789	12996
922.898	13027
923.007	13015
923.116	13091
923.224	13019
923.333	13061
923.442	12909
923.55	12905
923.659	12993
923.767	12894
923.876	12833
923.984	12890
924.092	12726
924.201	12863
924.309	12909
924.417	12856
924.525	12776
924.633	12726
924.741	13529
924.849	12517
924.956	12654
925.064	12517
925.172	12544
925.279	12608
925.387	12555
925.494	12540
925.602	12654
925.709	12566
925.816	12437
925.924	12441
926.031	12585
926.138	12479
926.245	12460
926.352	12407
926.459	12490
926.566	12456
926.673	12315
926.779	12372
926.886	12254
926.993	12140
927.099	12049
927.206	12121
927.312	12038
927.419	12190
927.525	12057
927.631	12171
927.737	12003
927.843	11927
927.95	11851
928.056	11847
928.162	11980
928.267	11954
928.373	12380
928.479	12022
928.585	11764
928.69	11836
928.796	11958
928.901	11726
929.007	11726
929.112	11897
929.218	11786
929.323	11665
929.428	11634
929.533	11748
929.638	11558
929.743	11638
929.848	11680
929.953	11627
930.058	11535
930.163	11459
930.267	11372
930.372	11512
930.477	11387
930.581	11600
930.685	11265
930.79	11231
930.894	11303
930.998	11223
931.103	11337
931.207	10965
931.311	10923
931.415	10778
931.519	10649
931.623	10687
