Data from test_V78500241_2987.txt Node
Date: Fri Mar 25 15:30:39 CST 2022
User: usil
Spectrometer: V785-0024
Trigger mode: 0
Integration Time (sec): 4.000000E-1
Scans to average: 1
Nonlinearity correction enabled: false
Boxcar width: 0
Storing dark spectrum: false
XAxis mode: Wavelengths
Number of Pixels in Spectrum: 1024
>>>>>Begin Spectral Data<<<<<
801.071	27291
801.214	27119
801.356	26956
801.499	27051
801.641	26819
801.783	26754
801.926	26895
802.068	26785
802.211	26594
802.353	26708
802.496	26556
802.638	26427
802.78	26404
802.923	26396
803.065	26412
803.208	26290
803.35	26469
803.492	26590
803.635	26495
803.777	26450
803.919	26492
804.061	26925
804.204	26545
804.346	26655
804.488	26492
804.63	26651
804.773	26442
804.915	26594
805.057	26743
805.199	26453
805.341	26667
805.483	26697
805.626	26648
805.768	26617
805.91	26777
806.052	26765
806.194	26453
806.336	26876
806.478	26712
806.62	26731
806.762	26834
806.904	26952
807.046	27150
807.188	27062
807.33	27062
807.472	27180
807.614	26914
807.756	27024
807.898	26998
808.04	26963
808.182	26948
808.324	26861
808.465	27001
808.607	27241
808.749	27370
808.891	27249
809.033	27370
809.174	27294
809.316	27214
809.458	27321
809.6	27298
809.741	27488
809.883	27340
810.025	27382
810.166	27481
810.308	27538
810.45	27549
810.591	27469
810.733	27233
810.875	27325
811.016	27195
811.158	27154
811.299	27249
811.441	27534
811.582	27458
811.724	27237
811.865	27249
812.007	27199
812.148	27351
812.29	27184
812.431	27291
812.573	27637
812.714	27542
812.855	27671
812.997	27755
813.138	27991
813.279	27812
813.421	27644
813.562	27759
813.703	27519
813.845	27466
813.986	27180
814.127	27173
814.268	26929
814.41	26982
814.551	26872
814.692	26880
814.833	26853
814.974	26777
815.115	26891
815.256	26765
815.397	26750
815.539	26872
815.68	26777
815.821	26579
815.962	26788
816.103	26530
816.244	26587
816.385	26408
816.526	26358
816.666	26313
816.807	26161
816.948	26214
817.089	26393
817.23	26126
817.371	26199
817.512	26225
817.653	26168
817.793	26134
817.934	26103
818.075	26202
818.216	26229
818.356	26027
818.497	26153
818.638	26043
818.778	25826
818.919	25909
819.06	25978
819.2	26157
819.341	26138
819.481	26142
819.622	26180
819.762	26541
819.903	26568
820.043	26278
820.184	26313
820.324	26393
820.465	26301
820.605	26187
820.746	26244
820.886	26164
821.026	26248
821.167	26248
821.307	26195
821.447	26046
821.588	25997
821.728	25966
821.868	25693
822.008	25670
822.149	25712
822.289	25628
822.429	25495
822.569	25354
822.709	25411
822.849	25213
822.99	25110
823.13	25057
823.27	25209
823.41	24924
823.55	24848
823.69	24947
823.83	24943
823.97	24878
824.11	24810
824.25	24608
824.389	24764
824.529	24764
824.669	24776
824.809	24954
824.949	24741
825.089	24848
825.228	24859
825.368	24597
825.508	24532
825.648	24612
825.787	24601
825.927	24726
826.067	24589
826.206	24616
826.346	24616
826.485	24757
826.625	24669
826.765	24661
826.904	24677
827.044	24418
827.183	24540
827.323	24384
827.462	24330
827.601	24266
827.741	24350
827.88	24338
828.02	24159
828.159	24323
828.298	24315
828.437	24308
828.577	24296
828.716	24376
828.855	24311
828.994	24034
829.134	23999
829.273	24083
829.412	24026
829.551	23927
829.69	23961
829.829	24060
829.968	24087
830.107	24140
830.246	24041
830.385	23908
830.524	23977
830.663	23821
830.802	23783
830.941	23680
831.08	23756
831.219	23718
831.357	23824
831.496	23836
831.635	23668
831.774	23547
831.913	23531
832.051	23486
832.19	23372
832.329	23433
832.467	23330
832.606	23288
832.744	23200
832.883	23440
833.022	23200
833.16	23178
833.299	23372
833.437	23239
833.576	23440
833.714	23273
833.852	23497
833.991	23376
834.129	23528
834.267	23547
834.406	23368
834.544	23341
834.682	23414
834.821	23322
834.959	23570
835.097	23220
835.235	23417
835.373	23311
835.511	23250
835.65	23250
835.788	23292
835.926	23200
836.064	22987
836.202	23109
836.34	23136
836.478	23330
836.615	23151
836.753	23086
836.891	23216
837.029	23166
837.167	23128
837.305	23056
837.443	23048
837.58	23010
837.718	23056
837.856	23155
837.993	22991
838.131	22949
838.269	22881
838.406	22934
838.544	22866
838.681	22767
838.819	22782
838.956	22512
839.094	22489
839.231	22577
839.369	22683
839.506	22869
839.643	22759
839.781	22527
839.918	22436
840.055	22512
840.193	22637
840.33	22485
840.467	22474
840.604	22451
840.742	22873
840.879	22249
841.016	22409
841.153	22322
841.29	22455
841.427	22470
841.564	22531
841.701	22413
841.838	22497
841.975	22257
842.112	22466
842.249	22234
842.385	22242
842.522	22516
842.659	22276
842.796	22128
842.933	22166
843.069	22253
843.206	22128
843.343	22287
843.479	22166
843.616	22242
843.752	21994
843.889	22059
844.025	22131
844.162	21922
844.298	22017
844.435	21960
844.571	21880
844.708	22055
844.844	22169
844.98	22051
845.117	21979
845.253	21956
845.389	21808
845.525	21816
845.661	21964
845.798	21667
845.934	21793
846.07	21698
846.206	21759
846.342	21797
846.478	21637
846.614	21603
846.75	21447
846.886	21431
847.022	21428
847.158	21416
847.294	21481
847.429	21420
847.565	21469
847.701	21789
847.837	21199
847.972	21233
848.108	21298
848.244	21230
848.379	21085
848.515	21013
848.65	21070
848.786	20963
848.921	20982
849.057	21116
849.192	21207
849.328	21131
849.463	21112
849.598	20975
849.734	20899
849.869	20868
850.004	20864
850.14	20796
850.275	20967
850.41	20788
850.545	20830
850.68	20720
850.815	20826
850.95	20754
851.085	20967
851.22	20971
851.355	20914
851.49	20758
851.625	20834
851.76	20777
851.895	20792
852.03	20804
852.165	20823
852.299	20941
852.434	20842
852.569	20830
852.703	20769
852.838	20864
852.973	20948
853.107	20956
853.242	20716
853.376	20587
853.511	20545
853.645	20655
853.78	20701
853.914	20689
854.048	20632
854.183	20629
854.317	20659
854.451	20746
854.585	20644
854.72	20682
854.854	20731
854.988	20461
855.122	20644
855.256	20476
855.39	20545
855.524	20632
855.658	20746
855.792	20667
855.926	20659
856.06	20724
856.194	20663
856.327	20587
856.461	20575
856.595	20594
856.729	20701
856.862	20743
856.996	20629
857.13	20724
857.263	20739
857.397	20777
857.53	20541
857.664	20659
857.797	20632
857.931	20830
858.064	20655
858.197	20689
858.331	20697
858.464	20560
858.597	20556
858.731	20629
858.864	20632
858.997	20609
859.13	20533
859.263	20545
859.396	20598
859.529	20556
859.662	20629
859.795	20473
859.928	20514
860.061	20785
860.194	20754
860.327	20746
860.46	20655
860.592	20834
860.725	20800
860.858	20819
860.99	20678
861.123	20446
861.256	20465
861.388	20552
861.521	21176
861.653	20480
861.786	20499
861.918	20514
862.05	20484
862.183	20606
862.315	20518
862.447	20697
862.58	20556
862.712	20377
862.844	20332
862.976	20537
863.108	20427
863.24	20857
863.372	20358
863.504	20313
863.636	20358
863.768	20415
863.9	20381
864.032	20286
864.164	20290
864.296	20423
864.428	20480
864.559	20385
864.691	20393
864.823	20362
864.954	20294
865.086	20423
865.217	20244
865.349	20202
865.48	20294
865.612	20176
865.743	20415
865.875	20336
866.006	20202
866.137	20248
866.269	20233
866.4	20282
866.531	20149
866.662	20278
866.793	20100
866.924	20221
867.055	20263
867.186	20237
867.317	20168
867.448	20119
867.579	20176
867.71	20138
867.841	20054
867.972	20282
868.103	20244
868.233	20298
868.364	20317
868.495	20381
868.625	20389
868.756	20602
868.886	20400
869.017	20396
869.147	20442
869.278	20469
869.408	20366
869.539	20469
869.669	20602
869.799	20564
869.929	20594
870.06	20598
870.19	20746
870.32	20716
870.45	20701
870.58	20682
870.71	20838
870.84	20914
870.97	20792
871.1	20800
871.23	20948
871.36	20986
871.489	20948
871.619	21119
871.749	21036
871.879	21062
872.008	21142
872.138	21043
872.267	21001
872.397	20967
872.526	20777
872.656	20838
872.785	20746
872.915	21081
873.044	21119
873.173	21142
873.303	21096
873.432	21108
873.561	21203
873.69	21100
873.819	21005
873.948	21108
874.077	21066
874.206	21062
874.335	21131
874.464	21169
874.593	21298
874.722	21199
874.851	21302
874.979	21313
875.108	21329
875.237	21275
875.365	21165
875.494	21302
875.623	21252
875.751	21203
875.88	21214
876.008	21466
876.136	21462
876.265	21713
876.393	21766
876.521	21663
876.65	21762
876.778	21736
876.906	21671
877.034	21667
877.162	21583
877.29	21599
877.418	21641
877.546	21629
877.674	21618
877.802	21618
877.93	21595
878.058	21603
878.185	21507
878.313	21549
878.441	21633
878.568	21431
878.696	21599
878.824	21682
878.951	21686
879.079	21854
879.206	21831
879.333	21869
879.461	21732
879.588	21793
879.715	21926
879.842	22090
879.97	21694
880.097	21405
880.224	21473
880.351	21523
880.478	21545
880.605	21408
880.732	21435
880.859	21644
880.986	21545
881.112	21587
881.239	21291
881.366	21218
881.493	21184
881.619	21058
881.746	21135
881.872	21077
881.999	20990
882.125	21005
882.252	21100
882.378	21005
882.505	21157
882.631	20899
882.757	20834
882.883	20918
883.01	20682
883.136	20693
883.262	20545
883.388	20545
883.514	20765
883.64	20830
883.766	20697
883.892	20568
884.018	20579
884.143	20705
884.269	20838
884.395	20495
884.52	20305
884.646	20389
884.772	20339
884.897	20229
885.023	20476
885.148	20545
885.274	20579
885.399	20423
885.524	20377
885.65	20370
885.775	20377
885.9	20301
886.025	20465
886.15	20465
886.275	20324
886.4	20374
886.525	20377
886.65	20286
886.775	20298
886.9	20324
887.025	20693
887.149	20339
887.274	20157
887.399	20130
887.523	20176
887.648	20237
887.773	20122
887.897	20286
888.021	20225
888.146	20233
888.27	20336
888.395	20172
888.519	20240
888.643	20244
888.767	20157
888.891	20145
889.015	20001
889.139	20111
889.263	20111
889.387	20073
889.511	20237
889.635	20096
889.759	19970
889.883	19951
890.006	19913
890.13	20107
890.254	19974
890.377	19936
890.501	19753
890.624	19681
890.748	19753
890.871	19635
890.995	19635
891.118	19571
891.241	19689
891.364	19590
891.488	19681
891.611	19556
891.734	19476
891.857	19609
891.98	19518
892.103	19594
892.226	19537
892.349	19472
892.471	19502
892.594	19434
892.717	19559
892.839	19495
892.962	19693
893.085	19578
893.207	19457
893.33	19346
893.452	19388
893.575	19491
893.697	19438
893.819	19586
893.941	19655
894.064	19666
894.186	19396
894.308	19381
894.43	19514
894.552	19674
894.674	19594
894.796	19495
894.918	19460
895.04	19434
895.161	19457
895.283	19559
895.405	19476
895.526	19548
895.648	19415
895.769	19415
895.891	19453
896.012	19510
896.134	19605
896.255	19476
896.376	19445
896.498	19506
896.619	19613
896.74	19449
896.861	19464
896.982	19776
897.103	19944
897.224	19776
897.345	19727
897.466	19696
897.587	19700
897.708	19890
897.828	19746
897.949	19639
898.07	19567
898.19	19643
898.311	19704
898.431	19738
898.552	19845
898.672	19795
898.792	19849
898.913	19791
899.033	19651
899.153	19544
899.273	19502
899.393	19563
899.513	19495
899.633	19491
899.753	19502
899.873	19411
899.993	19578
900.113	19544
900.232	19381
900.352	19544
900.472	19343
900.591	19228
900.711	19392
900.83	19217
900.95	19373
901.069	19449
901.189	19137
901.308	19012
901.427	18932
901.546	18829
901.665	18890
901.784	18928
901.904	18825
902.023	18582
902.141	18555
902.26	18391
902.379	18513
902.498	18521
902.617	18346
902.735	18407
902.854	18342
902.973	18388
903.091	18049
903.21	18068
903.328	18030
903.446	17965
903.565	17809
903.683	17809
903.801	17687
903.919	17805
904.038	17859
904.156	17684
904.274	17703
904.392	17573
904.51	17672
904.627	17630
904.745	17695
904.863	17680
904.981	17528
905.098	17349
905.216	17345
905.334	17337
905.451	17337
905.569	17337
905.686	17326
905.803	17326
905.921	17151
906.038	17231
906.155	17090
906.272	16972
906.389	17048
906.506	16908
906.623	16858
906.74	16923
906.857	16755
906.974	16801
907.091	16987
907.208	16999
907.324	16923
907.441	16672
907.557	16675
907.674	16592
907.79	16558
907.907	16580
908.023	16679
908.139	16535
908.256	16565
908.372	16531
908.488	16341
908.604	16265
908.72	16280
908.836	16318
908.952	16211
909.068	16325
909.184	16451
909.3	16261
909.415	16295
909.531	16230
909.647	16154
909.762	16048
909.878	16002
909.993	16017
910.108	16029
910.224	15960
910.339	15979
910.454	15918
910.57	15785
910.685	15739
910.8	16063
910.915	16059
911.03	15861
911.145	15701
911.259	15694
911.374	15667
911.489	15504
911.604	15496
911.718	15397
911.833	15412
911.947	15268
912.062	15325
912.176	15443
912.291	15431
912.405	15367
912.519	15660
912.633	15591
912.748	15344
912.862	15378
912.976	15211
913.09	15047
913.204	15146
913.318	15195
913.431	15310
913.545	15249
913.659	15310
913.772	15104
913.886	15017
914	14933
914.113	15028
914.226	15146
914.34	15039
914.453	14933
914.566	15081
914.68	14830
914.793	14781
914.906	14655
915.019	14613
915.132	14640
915.245	14644
915.358	14610
915.47	14617
915.583	14682
915.696	14587
915.809	14693
915.921	14689
916.034	14564
916.146	14560
916.259	14571
916.371	14651
916.483	14575
916.595	14419
916.708	14549
916.82	14484
916.932	14461
917.044	14408
917.156	14370
917.268	14172
917.38	14267
917.491	14294
917.603	14294
917.715	14290
917.826	14336
917.938	14294
918.049	14164
918.161	14134
918.272	14351
918.384	14385
918.495	14229
918.606	14001
918.717	14001
918.828	14115
918.939	14100
919.05	14027
919.161	14012
919.272	13894
919.383	13932
919.494	14020
919.604	14229
919.715	14027
919.826	13944
919.936	13970
920.047	14050
920.157	14058
920.267	14221
920.378	14046
920.488	14001
920.598	14176
920.708	14271
920.818	14168
920.928	14103
921.038	14320
921.148	14225
921.258	13970
921.368	13917
921.477	13742
921.587	13727
921.697	13738
921.806	13826
921.916	13647
922.025	13491
922.134	13476
922.244	13411
922.353	13438
922.462	13346
922.571	13228
922.68	13156
922.789	13110
922.898	13122
923.007	13000
923.116	13141
923.224	13183
923.333	13023
923.442	12993
923.55	12878
923.659	12875
923.767	12966
923.876	12875
923.984	12928
924.092	12806
924.201	12840
924.309	12867
924.417	12886
924.525	12825
924.633	12840
924.741	13540
924.849	12593
924.956	12730
925.064	12547
925.172	12456
925.279	12574
925.387	12593
925.494	12574
925.602	12665
925.709	12582
925.816	12422
925.924	12437
926.031	12601
926.138	12433
926.245	12475
926.352	12372
926.459	12483
926.566	12471
926.673	12353
926.779	12308
926.886	12243
926.993	12197
927.099	12026
927.206	12117
927.312	12102
927.419	12102
927.525	12110
927.631	12079
927.737	11950
927.843	11923
927.95	11874
928.056	11920
928.162	11908
928.267	12007
928.373	12662
928.479	11996
928.585	11737
928.69	11885
928.796	11901
928.901	11817
929.007	11661
929.112	11790
929.218	11748
929.323	11707
929.428	11680
929.533	11779
929.638	11646
929.743	11554
929.848	11619
929.953	11585
930.058	11543
930.163	11379
930.267	11376
930.372	11493
930.477	11356
930.581	11585
930.685	11444
930.79	11239
930.894	11159
930.998	11315
931.103	11376
931.207	11006
931.311	10923
931.415	10850
931.519	10721
931.623	10656
