Data from test_V78500241_2142.txt Node
Date: Fri Mar 25 15:24:46 CST 2022
User: usil
Spectrometer: V785-0024
Trigger mode: 0
Integration Time (sec): 4.000000E-1
Scans to average: 1
Nonlinearity correction enabled: false
Boxcar width: 0
Storing dark spectrum: false
XAxis mode: Wavelengths
Number of Pixels in Spectrum: 1024
>>>>>Begin Spectral Data<<<<<
801.071	27427
801.214	27264
801.356	27093
801.499	27028
801.641	26967
801.783	26887
801.926	27005
802.068	26826
802.211	26815
802.353	26739
802.496	26552
802.638	26541
802.78	26415
802.923	26415
803.065	26404
803.208	26301
803.35	26461
803.492	26450
803.635	26724
803.777	26629
803.919	26792
804.061	27005
804.204	26739
804.346	26712
804.488	26575
804.63	26594
804.773	26617
804.915	26693
805.057	26708
805.199	26689
805.341	26785
805.483	26773
805.626	26857
805.768	26636
805.91	26765
806.052	26826
806.194	26693
806.336	26937
806.478	26834
806.62	26708
806.762	26967
806.904	27085
807.046	27138
807.188	27245
807.33	27275
807.472	27226
807.614	27165
807.756	27207
807.898	27055
808.04	26975
808.182	26982
808.324	27112
808.465	27272
808.607	27351
808.749	27374
808.891	27507
809.033	27568
809.174	27557
809.316	27427
809.458	27606
809.6	27473
809.741	27572
809.883	27549
810.025	27644
810.166	27724
810.308	27720
810.45	27694
810.591	27637
810.733	27424
810.875	27332
811.016	27256
811.158	27222
811.299	27355
811.441	27443
811.582	27564
811.724	27367
811.865	27348
812.007	27329
812.148	27291
812.29	27386
812.431	27496
812.573	27644
812.714	27819
812.855	27861
812.997	27949
813.138	28048
813.279	28204
813.421	27941
813.562	27804
813.703	27675
813.845	27656
813.986	27405
814.127	27203
814.268	26975
814.41	27119
814.551	26990
814.692	27104
814.833	27116
814.974	27093
815.115	27104
815.256	26895
815.397	26960
815.539	27001
815.68	26849
815.821	26891
815.962	26807
816.103	26739
816.244	26754
816.385	26617
816.526	26670
816.666	26514
816.807	26419
816.948	26374
817.089	26396
817.23	26377
817.371	26317
817.512	26229
817.653	26240
817.793	26305
817.934	26199
818.075	26381
818.216	26347
818.356	26202
818.497	26180
818.638	25993
818.778	26065
818.919	26065
819.06	26050
819.2	26233
819.341	26275
819.481	26324
819.622	26579
819.762	26655
819.903	26609
820.043	26590
820.184	26438
820.324	26465
820.465	26404
820.605	26473
820.746	26347
820.886	26149
821.026	26317
821.167	26423
821.307	26389
821.447	26267
821.588	26191
821.728	26126
821.868	25917
822.008	25864
822.149	25852
822.289	25925
822.429	25495
822.569	25457
822.709	25479
822.849	25384
822.99	25339
823.13	25346
823.27	25316
823.41	25110
823.55	25057
823.69	25148
823.83	25126
823.97	25000
824.11	24867
824.25	24833
824.389	25000
824.529	24897
824.669	24760
824.809	24981
824.949	24985
825.089	24928
825.228	24920
825.368	24871
825.508	24894
825.648	24749
825.787	24798
825.927	24859
826.067	24639
826.206	24798
826.346	24905
826.485	24867
826.625	24684
826.765	24894
826.904	24821
827.044	24566
827.183	24612
827.323	24479
827.462	24490
827.601	24509
827.741	24517
827.88	24475
828.02	24346
828.159	24456
828.298	24403
828.437	24464
828.577	24467
828.716	24467
828.855	24384
828.994	24289
829.134	24159
829.273	24125
829.412	24167
829.551	24247
829.69	24178
829.829	24121
829.968	24174
830.107	24372
830.246	24110
830.385	24110
830.524	24121
830.663	24053
830.802	23859
830.941	23771
831.08	23722
831.219	23912
831.357	23802
831.496	24182
831.635	23767
831.774	23779
831.913	23558
832.051	23573
832.19	23661
832.329	23501
832.467	23467
832.606	23406
832.744	23368
832.883	23311
833.022	23448
833.16	23539
833.299	23493
833.437	23467
833.576	23490
833.714	23558
833.852	23528
833.991	23425
834.129	23531
834.267	23459
834.406	23509
834.544	23543
834.682	23596
834.821	23512
834.959	23684
835.097	23474
835.235	23634
835.373	23414
835.511	23589
835.65	23296
835.788	23364
835.926	23117
836.064	23102
836.202	23208
836.34	23410
836.478	23326
836.615	23231
836.753	23322
836.891	23474
837.029	23288
837.167	23197
837.305	23277
837.443	23178
837.58	23155
837.718	23208
837.856	23303
837.993	23143
838.131	23094
838.269	23033
838.406	23086
838.544	22923
838.681	22885
838.819	22850
838.956	22603
839.094	22599
839.231	22721
839.369	22805
839.506	23044
839.643	22835
839.781	22694
839.918	22535
840.055	22611
840.193	22569
840.33	22462
840.467	22489
840.604	22550
840.742	22748
840.879	22428
841.016	22462
841.153	22489
841.29	22755
841.427	22679
841.564	22527
841.701	22546
841.838	22592
841.975	22451
842.112	22398
842.249	22360
842.385	22402
842.522	22500
842.659	22474
842.796	22333
842.933	22325
843.069	22268
843.206	22238
843.343	22455
843.479	22394
843.616	22348
843.752	22242
843.889	22120
844.025	22196
844.162	22067
844.298	22249
844.435	21994
844.571	22150
844.708	22120
844.844	22272
844.98	22207
845.117	22219
845.253	22021
845.389	21926
845.525	22010
845.661	21960
845.798	21789
845.934	21808
846.07	21789
846.206	21766
846.342	21968
846.478	21823
846.614	21599
846.75	21542
846.886	21644
847.022	21603
847.158	21561
847.294	21504
847.429	21610
847.565	21549
847.701	21831
847.837	21378
847.972	21264
848.108	21435
848.244	21359
848.379	21176
848.515	21169
848.65	21192
848.786	21135
848.921	21123
849.057	21291
849.192	21169
849.328	21165
849.463	21135
849.598	21123
849.734	21108
849.869	21112
850.004	20933
850.14	20941
850.275	20868
850.41	20971
850.545	20895
850.68	20861
850.815	20990
850.95	20819
851.085	21047
851.22	21093
851.355	20883
851.49	21020
851.625	20804
851.76	20902
851.895	20807
852.03	20743
852.165	21005
852.299	20937
852.434	20979
852.569	20906
852.703	20880
852.838	20929
852.973	20925
853.107	21081
853.242	20830
853.376	20807
853.511	20613
853.645	20609
853.78	20781
853.914	20735
854.048	20746
854.183	20754
854.317	20769
854.451	20891
854.585	20731
854.72	20708
854.854	20944
854.988	20731
855.122	20769
855.256	20594
855.39	20796
855.524	20830
855.658	20906
855.792	20861
855.926	20830
856.06	20708
856.194	20868
856.327	20750
856.461	20838
856.595	20758
856.729	20788
856.862	20826
856.996	20910
857.13	20861
857.263	20861
857.397	20872
857.53	20724
857.664	20880
857.797	20773
857.931	20807
858.064	20731
858.197	20849
858.331	20708
858.464	20716
858.597	20549
858.731	20746
858.864	20720
858.997	20678
859.13	20830
859.263	20773
859.396	20769
859.529	20762
859.662	20773
859.795	20670
859.928	20743
860.061	20937
860.194	20944
860.327	20785
860.46	20678
860.592	20815
860.725	20899
860.858	20811
860.99	20899
861.123	20651
861.256	20727
861.388	20712
861.521	21382
861.653	20655
861.786	20431
861.918	20644
862.05	20678
862.183	20670
862.315	20777
862.447	20792
862.58	20705
862.712	20541
862.844	20465
862.976	20522
863.108	20495
863.24	20887
863.372	20526
863.504	20442
863.636	20389
863.768	20499
863.9	20457
864.032	20438
864.164	20221
864.296	20415
864.428	20617
864.559	20564
864.691	20533
864.823	20366
864.954	20423
865.086	20503
865.217	20431
865.349	20328
865.48	20301
865.612	20362
865.743	20499
865.875	20309
866.006	20385
866.137	20301
866.269	20415
866.4	20286
866.531	20389
866.662	20221
866.793	20157
866.924	20317
867.055	20305
867.186	20248
867.317	20248
867.448	20046
867.579	20218
867.71	20202
867.841	20172
867.972	20164
868.103	20286
868.233	20366
868.364	20313
868.495	20294
868.625	20537
868.756	20705
868.886	20492
869.017	20545
869.147	20564
869.278	20659
869.408	20507
869.539	20590
869.669	20564
869.799	20598
869.929	20697
870.06	20537
870.19	20929
870.32	20861
870.45	20724
870.58	20876
870.71	21013
870.84	20994
870.97	20948
871.1	20967
871.23	21112
871.36	21119
871.489	20975
871.619	21100
871.749	21070
871.879	21222
872.008	21321
872.138	21154
872.267	21112
872.397	21077
872.526	21028
872.656	20971
872.785	20925
872.915	21157
873.044	21275
873.173	21218
873.303	21336
873.432	21252
873.561	21116
873.69	21237
873.819	21074
873.948	21310
874.077	21211
874.206	21146
874.335	21192
874.464	21428
874.593	21374
874.722	21363
874.851	21397
874.979	21485
875.108	21416
875.237	21416
875.365	21264
875.494	21450
875.623	21378
875.751	21355
875.88	21370
876.008	21469
876.136	21507
876.265	21770
876.393	21975
876.521	21895
876.65	21876
876.778	21717
876.906	21774
877.034	21778
877.162	21747
877.29	21831
877.418	21698
877.546	21793
877.674	21679
877.802	21728
877.93	21835
878.058	21781
878.185	21694
878.313	21728
878.441	21720
878.568	21690
878.696	21785
878.824	21953
878.951	21789
879.079	21903
879.206	21991
879.333	21911
879.461	21762
879.588	21998
879.715	21945
879.842	22112
879.97	21880
880.097	21705
880.224	21587
880.351	21625
880.478	21629
880.605	21603
880.732	21580
880.859	21751
880.986	21633
881.112	21671
881.239	21405
881.366	21420
881.493	21199
881.619	21192
881.746	21245
881.872	21203
881.999	21051
882.125	21112
882.252	21245
882.378	21085
882.505	21317
882.631	21192
882.757	20975
882.883	21043
883.01	20979
883.136	20830
883.262	20682
883.388	20807
883.514	20906
883.64	20891
883.766	20990
883.892	20689
884.018	20785
884.143	20845
884.269	20868
884.395	20613
884.52	20389
884.646	20476
884.772	20484
884.897	20552
885.023	20594
885.148	20590
885.274	20545
885.399	20609
885.524	20518
885.65	20522
885.775	20564
885.9	20571
886.025	20648
886.15	20629
886.275	20568
886.4	20442
886.525	20412
886.65	20377
886.775	20454
886.9	20648
887.025	20750
887.149	20514
887.274	20446
887.399	20263
887.523	20191
887.648	20374
887.773	20164
887.897	20324
888.021	20351
888.146	20237
888.27	20465
888.395	20355
888.519	20294
888.643	20427
888.767	20434
888.891	20225
889.015	20046
889.139	20172
889.263	20103
889.387	20134
889.511	20275
889.635	20278
889.759	20164
889.883	20077
890.006	20161
890.13	20225
890.254	20046
890.377	20035
890.501	19921
890.624	19799
890.748	19799
890.871	19685
890.995	19632
891.118	19632
891.241	19624
891.364	19689
891.488	19822
891.611	19704
891.734	19742
891.857	19811
891.98	19647
892.103	19772
892.226	19613
892.349	19643
892.471	19449
892.594	19605
892.717	19594
892.839	19590
892.962	19651
893.085	19655
893.207	19693
893.33	19400
893.452	19502
893.575	19670
893.697	19635
893.819	19811
893.941	19757
894.064	19681
894.186	19655
894.308	19480
894.43	19613
894.552	19708
894.674	19727
894.796	19594
894.918	19632
895.04	19510
895.161	19715
895.283	19696
895.405	19457
895.526	19620
895.648	19514
895.769	19575
895.891	19594
896.012	19795
896.134	19662
896.255	19601
896.376	19567
896.498	19578
896.619	19689
896.74	19616
896.861	19803
896.982	19978
897.103	20077
897.224	19883
897.345	19875
897.466	19803
897.587	19860
897.708	20008
897.828	19936
897.949	19784
898.07	19677
898.19	19727
898.311	19841
898.431	19670
898.552	19890
898.672	19917
898.792	19837
898.913	19868
899.033	19712
899.153	19639
899.273	19632
899.393	19647
899.513	19605
899.633	19670
899.753	19609
899.873	19540
899.993	19674
900.113	19594
900.232	19575
900.352	19552
900.472	19285
900.591	19339
900.711	19525
900.83	19358
900.95	19422
901.069	19502
901.189	19263
901.308	19095
901.427	18993
901.546	19023
901.665	18928
901.784	18932
901.904	18871
902.023	18768
902.141	18547
902.26	18437
902.379	18559
902.498	18407
902.617	18597
902.735	18589
902.854	18471
902.973	18395
903.091	18182
903.21	18171
903.328	18136
903.446	18057
903.565	17946
903.683	17942
903.801	17904
903.919	18015
904.038	17939
904.156	17798
904.274	17779
904.392	17680
904.51	17775
904.627	17794
904.745	17790
904.863	17843
904.981	17490
905.098	17368
905.216	17425
905.334	17452
905.451	17383
905.569	17417
905.686	17455
905.803	17356
905.921	17258
906.038	17296
906.155	17216
906.272	17071
906.389	17033
906.506	16934
906.623	17003
906.74	16938
906.857	16862
906.974	16896
907.091	16957
907.208	17052
907.324	16991
907.441	16850
907.557	16793
907.674	16748
907.79	16706
907.907	16702
908.023	16588
908.139	16755
908.256	16630
908.372	16649
908.488	16599
908.604	16489
908.72	16360
908.836	16405
908.952	16371
909.068	16382
909.184	16599
909.3	16421
909.415	16516
909.531	16379
909.647	16147
909.762	16120
909.878	16234
909.993	16150
910.108	16082
910.224	16040
910.339	16093
910.454	15994
910.57	15945
910.685	15835
910.8	16101
910.915	16002
911.03	15941
911.145	15755
911.259	15709
911.374	15762
911.489	15686
911.604	15584
911.718	15584
911.833	15405
911.947	15428
912.062	15264
912.176	15363
912.291	15481
912.405	15401
912.519	15682
912.633	15675
912.748	15530
912.862	15344
912.976	15291
913.09	15150
913.204	15195
913.318	15287
913.431	15317
913.545	15336
913.659	15336
913.772	15302
913.886	15104
914	15138
914.113	15085
914.226	15047
914.34	15161
914.453	15058
914.566	15119
914.68	15024
914.793	14918
914.906	14781
915.019	14701
915.132	14632
915.245	14682
915.358	14804
915.47	14648
915.583	14693
915.696	14670
915.809	14857
915.921	14788
916.034	14659
916.146	14693
916.259	14590
916.371	14663
916.483	14659
916.595	14484
916.708	14564
916.82	14522
916.932	14503
917.044	14457
917.156	14423
917.268	14492
917.38	14454
917.491	14408
917.603	14404
917.715	14366
917.826	14370
917.938	14259
918.049	14214
918.161	14393
918.272	14438
918.384	14431
918.495	14305
918.606	14202
918.717	14058
918.828	14142
918.939	14244
919.05	13947
919.161	14168
919.272	13963
919.383	14039
919.494	14290
919.604	14442
919.715	14111
919.826	14058
919.936	14187
920.047	14168
920.157	14111
920.267	14320
920.378	14161
920.488	14100
920.598	14199
920.708	14450
920.818	14355
920.928	14294
921.038	14541
921.148	14381
921.258	14050
921.368	13917
921.477	13890
921.587	13765
921.697	13700
921.806	13814
921.916	13700
922.025	13605
922.134	13434
922.244	13426
922.353	13578
922.462	13415
922.571	13301
922.68	13129
922.789	13126
922.898	13217
923.007	13091
923.116	13232
923.224	13103
923.333	13103
923.442	13088
923.55	12947
923.659	12954
923.767	13050
923.876	12989
923.984	13099
924.092	12932
924.201	12958
924.309	12863
924.417	12932
924.525	12840
924.633	12795
924.741	13601
924.849	12677
924.956	12837
925.064	12635
925.172	12604
925.279	12585
925.387	12623
925.494	12547
925.602	12738
925.709	12654
925.816	12498
925.924	12566
926.031	12658
926.138	12544
926.245	12536
926.352	12513
926.459	12593
926.566	12570
926.673	12513
926.779	12388
926.886	12369
926.993	12224
927.099	12266
927.206	12072
927.312	12121
927.419	12190
927.525	12220
927.631	12201
927.737	12045
927.843	12114
927.95	11901
928.056	12011
928.162	12038
928.267	12026
928.373	12764
928.479	12095
928.585	11889
928.69	11980
928.796	12049
928.901	11958
929.007	11756
929.112	11836
929.218	11805
929.323	11767
929.428	11741
929.533	11870
929.638	11608
929.743	11630
929.848	11756
929.953	11710
930.058	11547
930.163	11459
930.267	11448
930.372	11501
930.477	11349
930.581	11604
930.685	11425
930.79	11273
930.894	11414
930.998	11341
931.103	11364
931.207	11147
931.311	11006
931.415	10953
931.519	10763
931.623	10675
