Data from test_V78500241_45.txt Node
Date: Fri Mar 25 15:10:10 CST 2022
User: usil
Spectrometer: V785-0024
Trigger mode: 0
Integration Time (sec): 4.000000E-1
Scans to average: 1
Nonlinearity correction enabled: false
Boxcar width: 0
Storing dark spectrum: false
XAxis mode: Wavelengths
Number of Pixels in Spectrum: 1024
>>>>>Begin Spectral Data<<<<<
801.071	28744
801.214	28443
801.356	28379
801.499	28272
801.641	28276
801.783	28192
801.926	28363
802.068	28185
802.211	28154
802.353	28070
802.496	27850
802.638	27785
802.78	27785
802.923	27682
803.065	27717
803.208	27629
803.35	27880
803.492	27774
803.635	27998
803.777	27778
803.919	27827
804.061	28238
804.204	27945
804.346	27816
804.488	27819
804.63	27884
804.773	27774
804.915	27846
805.057	28017
805.199	27774
805.341	27903
805.483	28093
805.626	27911
805.768	27831
805.91	27956
806.052	28002
806.194	27823
806.336	27956
806.478	27937
806.62	27960
806.762	27994
806.904	28204
807.046	28257
807.188	28363
807.33	28196
807.472	28280
807.614	28177
807.756	28253
807.898	28048
808.04	28067
808.182	27987
808.324	28010
808.465	28090
808.607	28249
808.749	28253
808.891	28485
809.033	28432
809.174	28333
809.316	28322
809.458	28440
809.6	28268
809.741	28466
809.883	28470
810.025	28519
810.166	28672
810.308	28618
810.45	28596
810.591	28417
810.733	28428
810.875	28356
811.016	28223
811.158	28124
811.299	28386
811.441	28462
811.582	28318
811.724	28367
811.865	28261
812.007	28291
812.148	28268
812.29	28219
812.431	28493
812.573	28733
812.714	28561
812.855	28740
812.997	28885
813.138	28953
813.279	28923
813.421	28771
813.562	28664
813.703	28634
813.845	28424
813.986	28131
814.127	28010
814.268	27907
814.41	27854
814.551	27895
814.692	27880
814.833	27926
814.974	27873
815.115	27914
815.256	27701
815.397	27652
815.539	27755
815.68	27553
815.821	27477
815.962	27656
816.103	27534
816.244	27526
816.385	27427
816.526	27294
816.666	27222
816.807	27169
816.948	27058
817.089	27157
817.23	27085
817.371	27055
817.512	27013
817.653	26971
817.793	27005
817.934	26807
818.075	27020
818.216	27074
818.356	26861
818.497	26891
818.638	26735
818.778	26602
818.919	26712
819.06	26804
819.2	26849
819.341	26849
819.481	26918
819.622	27135
819.762	27302
819.903	27237
820.043	27051
820.184	26960
820.324	26887
820.465	27081
820.605	27142
820.746	27013
820.886	26758
821.026	26918
821.167	26739
821.307	27028
821.447	26902
821.588	26758
821.728	26606
821.868	26556
822.008	26336
822.149	26286
822.289	26461
822.429	26081
822.569	25883
822.709	25959
822.849	25746
822.99	25776
823.13	25723
823.27	25742
823.41	25582
823.55	25476
823.69	25647
823.83	25609
823.97	25662
824.11	25422
824.25	25274
824.389	25327
824.529	25487
824.669	25331
824.809	25388
824.949	25540
825.089	25464
825.228	25438
825.368	25270
825.508	25240
825.648	25156
825.787	25304
825.927	25327
826.067	25061
826.206	25156
826.346	25202
826.485	25179
826.625	25133
826.765	25282
826.904	25194
827.044	24848
827.183	24795
827.323	24859
827.462	24745
827.601	24875
827.741	24768
827.88	24962
828.02	24734
828.159	24798
828.298	24890
828.437	24886
828.577	24768
828.716	24859
828.855	24848
828.994	24646
829.134	24536
829.273	24517
829.412	24460
829.551	24304
829.69	24433
829.829	24490
829.968	24505
830.107	24604
830.246	24433
830.385	24498
830.524	24289
830.663	24289
830.802	24186
830.941	24045
831.08	24072
831.219	24076
831.357	24121
831.496	24292
831.635	24060
831.774	23893
831.913	23794
832.051	23817
832.19	23794
832.329	23714
832.467	23722
832.606	23752
832.744	23722
832.883	23642
833.022	23710
833.16	23775
833.299	23771
833.437	23577
833.576	23657
833.714	23722
833.852	23676
833.991	23733
834.129	23764
834.267	23771
834.406	23608
834.544	23722
834.682	23710
834.821	23646
834.959	23771
835.097	23566
835.235	23802
835.373	23672
835.511	23703
835.65	23539
835.788	23433
835.926	23459
836.064	23311
836.202	23261
836.34	23482
836.478	23516
836.615	23459
836.753	23402
836.891	23512
837.029	23543
837.167	23486
837.305	23516
837.443	23296
837.58	23372
837.718	23379
837.856	23383
837.993	23372
838.131	23356
838.269	23208
838.406	23174
838.544	23132
838.681	22873
838.819	22854
838.956	22790
839.094	22831
839.231	22820
839.369	22828
839.506	23143
839.643	22881
839.781	22721
839.918	22721
840.055	22645
840.193	22725
840.33	22634
840.467	22630
840.604	22630
840.742	22866
840.879	22462
841.016	22546
841.153	22523
841.29	22561
841.427	22618
841.564	22649
841.701	22588
841.838	22561
841.975	22497
842.112	22402
842.249	22341
842.385	22261
842.522	22466
842.659	22261
842.796	22253
842.933	22398
843.069	22158
843.206	22200
843.343	22344
843.479	22181
843.616	22348
843.752	22040
843.889	22070
844.025	22215
844.162	21949
844.298	22048
844.435	22051
844.571	21937
844.708	22044
844.844	22310
844.98	22150
845.117	22196
845.253	22025
845.389	21861
845.525	21876
845.661	21975
845.798	21690
845.934	21819
846.07	21819
846.206	21823
846.342	21861
846.478	21873
846.614	21519
846.75	21534
846.886	21389
847.022	21553
847.158	21526
847.294	21561
847.429	21481
847.565	21435
847.701	21663
847.837	21123
847.972	21176
848.108	21302
848.244	21127
848.379	21222
848.515	21096
848.65	21043
848.786	21123
848.921	21070
849.057	21081
849.192	21119
849.328	20937
849.463	20998
849.598	21005
849.734	20857
849.869	20929
850.004	20765
850.14	20853
850.275	20800
850.41	20689
850.545	20697
850.68	20674
850.815	20785
850.95	20819
851.085	20823
851.22	20861
851.355	20724
851.49	20686
851.625	20632
851.76	20716
851.895	20625
852.03	20689
852.165	20678
852.299	20712
852.434	20914
852.569	20689
852.703	20796
852.838	20750
852.973	20948
853.107	20918
853.242	20621
853.376	20598
853.511	20336
853.645	20465
853.78	20693
853.914	20530
854.048	20488
854.183	20480
854.317	20590
854.451	20785
854.585	20552
854.72	20537
854.854	20609
854.988	20358
855.122	20434
855.256	20427
855.39	20488
855.524	20682
855.658	20670
855.792	20564
855.926	20507
856.06	20659
856.194	20583
856.327	20533
856.461	20484
856.595	20438
856.729	20492
856.862	20606
856.996	20568
857.13	20556
857.263	20621
857.397	20545
857.53	20469
857.664	20606
857.797	20469
857.931	20579
858.064	20590
858.197	20720
858.331	20438
858.464	20434
858.597	20461
858.731	20450
858.864	20499
858.997	20377
859.13	20484
859.263	20492
859.396	20602
859.529	20370
859.662	20358
859.795	20339
859.928	20404
860.061	20609
860.194	20777
860.327	20469
860.46	20431
860.592	20629
860.725	20632
860.858	20514
860.99	20389
861.123	20408
861.256	20431
861.388	20450
861.521	21089
861.653	20301
861.786	20366
861.918	20355
862.05	20412
862.183	20347
862.315	20469
862.447	20495
862.58	20427
862.712	20221
862.844	20237
862.976	20282
863.108	20393
863.24	20693
863.372	20149
863.504	20176
863.636	20168
863.768	20168
863.9	20081
864.032	20096
864.164	20145
864.296	20119
864.428	20271
864.559	20278
864.691	20164
864.823	20111
864.954	20267
865.086	20164
865.217	20027
865.349	19963
865.48	20008
865.612	20077
865.743	20149
865.875	20008
866.006	20111
866.137	20138
866.269	20005
866.4	20065
866.531	20050
866.662	19902
866.793	19974
866.924	19967
867.055	20084
867.186	20130
867.317	20012
867.448	19856
867.579	19993
867.71	20016
867.841	19814
867.972	19974
868.103	19947
868.233	19982
868.364	19944
868.495	20100
868.625	20290
868.756	20309
868.886	20031
869.017	20294
869.147	20301
869.278	20328
869.408	20153
869.539	20183
869.669	20275
869.799	20240
869.929	20370
870.06	20336
870.19	20450
870.32	20484
870.45	20541
870.58	20617
870.71	20693
870.84	20731
870.97	20583
871.1	20465
871.23	20849
871.36	20845
871.489	20720
871.619	20781
871.749	20731
871.879	20804
872.008	20948
872.138	20921
872.267	20811
872.397	20712
872.526	20552
872.656	20587
872.785	20606
872.915	20762
873.044	20933
873.173	20887
873.303	20918
873.432	20925
873.561	20979
873.69	20811
873.819	20845
873.948	20857
874.077	20895
874.206	20880
874.335	20826
874.464	20960
874.593	21161
874.722	21070
874.851	21157
874.979	21176
875.108	21062
875.237	21039
875.365	21024
875.494	21077
875.623	21108
875.751	20948
875.88	21070
876.008	21207
876.136	21207
876.265	21420
876.393	21545
876.521	21526
876.65	21606
876.778	21488
876.906	21496
877.034	21428
877.162	21382
877.29	21386
877.418	21443
877.546	21450
877.674	21431
877.802	21302
877.93	21397
878.058	21435
878.185	21317
878.313	21439
878.441	21435
878.568	21351
878.696	21386
878.824	21526
878.951	21401
879.079	21599
879.206	21736
879.333	21515
879.461	21458
879.588	21507
879.715	21583
879.842	21641
879.97	21542
880.097	21317
880.224	21321
880.351	21241
880.478	21332
880.605	21154
880.732	21135
880.859	21412
880.986	21283
881.112	21203
881.239	21237
881.366	20944
881.493	20952
881.619	20796
881.746	20792
881.872	20777
881.999	20754
882.125	20815
882.252	20864
882.378	20804
882.505	21017
882.631	20701
882.757	20617
882.883	20575
883.01	20644
883.136	20579
883.262	20632
883.388	20556
883.514	20659
883.64	20678
883.766	20568
883.892	20393
884.018	20476
884.143	20484
884.269	20762
884.395	20408
884.52	20199
884.646	20309
884.772	20176
884.897	20153
885.023	20145
885.148	20400
885.274	20351
885.399	20305
885.524	20176
885.65	20237
885.775	20256
885.9	20062
886.025	20431
886.15	20282
886.275	20100
886.4	20065
886.525	20107
886.65	20183
886.775	20240
886.9	20256
887.025	20389
887.149	20271
887.274	20103
887.399	19993
887.523	19925
887.648	19887
887.773	19890
887.897	20065
888.021	20024
888.146	19780
888.27	20077
888.395	20111
888.519	19997
888.643	19913
888.767	20031
888.891	19879
889.015	19769
889.139	19837
889.263	19772
889.387	19864
889.511	20035
889.635	19951
889.759	19708
889.883	19765
890.006	19807
890.13	19788
890.254	19635
890.377	19635
890.501	19445
890.624	19422
890.748	19521
890.871	19518
890.995	19270
891.118	19312
891.241	19411
891.364	19396
891.488	19335
891.611	19285
891.734	19415
891.857	19346
891.98	19335
892.103	19441
892.226	19358
892.349	19266
892.471	19259
892.594	19247
892.717	19350
892.839	19232
892.962	19232
893.085	19282
893.207	19247
893.33	19110
893.452	19202
893.575	19392
893.697	19419
893.819	19445
893.941	19438
894.064	19320
894.186	19255
894.308	19171
894.43	19270
894.552	19407
894.674	19228
894.796	19247
894.918	19316
895.04	19285
895.161	19270
895.283	19339
895.405	19164
895.526	19297
895.648	19266
895.769	19331
895.891	19221
896.012	19270
896.134	19396
896.255	19293
896.376	19320
896.498	19472
896.619	19301
896.74	19422
896.861	19312
896.982	19803
897.103	19803
897.224	19601
897.345	19502
897.466	19499
897.587	19521
897.708	19662
897.828	19586
897.949	19419
898.07	19312
898.19	19525
898.311	19651
898.431	19316
898.552	19521
898.672	19613
898.792	19575
898.913	19552
899.033	19320
899.153	19297
899.273	19164
899.393	19202
899.513	19213
899.633	19244
899.753	19282
899.873	19103
899.993	19141
900.113	19202
900.232	19171
900.352	19202
900.472	19027
900.591	18989
900.711	18947
900.83	18852
900.95	19236
901.069	19160
901.189	18848
901.308	18738
901.427	18639
901.546	18566
901.665	18616
901.784	18654
901.904	18486
902.023	18502
902.141	18220
902.26	18136
902.379	18327
902.498	18129
902.617	18125
902.735	18220
902.854	18022
902.973	17977
903.091	17718
903.21	17824
903.328	17840
903.446	17668
903.565	17558
903.683	17604
903.801	17535
903.919	17630
904.038	17551
904.156	17486
904.274	17646
904.392	17429
904.51	17379
904.627	17436
904.745	17387
904.863	17345
904.981	17220
905.098	17105
905.216	17147
905.334	17064
905.451	17067
905.569	17052
905.686	17124
905.803	16995
905.921	16896
906.038	17045
906.155	16942
906.272	16854
906.389	16729
906.506	16603
906.623	16558
906.74	16653
906.857	16447
906.974	16402
907.091	16626
907.208	16706
907.324	16683
907.441	16504
907.557	16325
907.674	16249
907.79	16223
907.907	16314
908.023	16276
908.139	16246
908.256	16287
908.372	16166
908.488	16074
908.604	16044
908.72	16002
908.836	15991
908.952	15934
909.068	16010
909.184	16017
909.3	15876
909.415	15968
909.531	15998
909.647	15781
909.762	15637
909.878	15633
909.993	15648
910.108	15698
910.224	15625
910.339	15701
910.454	15431
910.57	15526
910.685	15405
910.8	15701
910.915	15637
911.03	15363
911.145	15386
911.259	15367
911.374	15279
911.489	15142
911.604	15173
911.718	14952
911.833	14971
911.947	14967
912.062	14853
912.176	14948
912.291	14887
912.405	14914
912.519	15184
912.633	15245
912.748	14998
912.862	14948
912.976	14819
913.09	14663
913.204	14792
913.318	14796
913.431	14868
913.545	14883
913.659	14796
913.772	14811
913.886	14632
914	14571
914.113	14682
914.226	14864
914.34	14773
914.453	14533
914.566	14629
914.68	14625
914.793	14507
914.906	14271
915.019	14305
915.132	14248
915.245	14271
915.358	14336
915.47	14336
915.583	14267
915.696	14275
915.809	14377
915.921	14457
916.034	14202
916.146	14248
916.259	14202
916.371	14180
916.483	14256
916.595	14081
916.708	13997
916.82	14100
916.932	14062
917.044	14027
917.156	14062
917.268	14016
917.38	14069
917.491	13959
917.603	13932
917.715	14005
917.826	14058
917.938	13951
918.049	13849
918.161	13879
918.272	14043
918.384	13989
918.495	13902
918.606	13776
918.717	13731
918.828	13742
918.939	13814
919.05	13674
919.161	13628
919.272	13468
919.383	13586
919.494	13780
919.604	13944
919.715	13746
919.826	13594
919.936	13681
920.047	13738
920.157	13700
920.267	13883
920.378	13700
920.488	13624
920.598	13822
920.708	13997
920.818	13868
920.928	13780
921.038	13951
921.148	13894
921.258	13567
921.368	13521
921.477	13476
921.587	13316
921.697	13335
921.806	13403
921.916	13320
922.025	13076
922.134	13038
922.244	12943
922.353	13149
922.462	12951
922.571	12932
922.68	12745
922.789	12711
922.898	12764
923.007	12654
923.116	12715
923.224	12711
923.333	12662
923.442	12547
923.55	12410
923.659	12570
923.767	12627
923.876	12437
923.984	12536
924.092	12464
924.201	12547
924.309	12483
924.417	12479
924.525	12391
924.633	12509
924.741	13168
924.849	12194
924.956	12391
925.064	12235
925.172	12091
925.279	12140
925.387	12125
925.494	12213
925.602	12308
925.709	12292
925.816	12057
925.924	12114
926.031	12247
926.138	12083
926.245	12178
926.352	12068
926.459	12171
926.566	12159
926.673	12053
926.779	11893
926.886	11912
926.993	11779
927.099	11798
927.206	11589
927.312	11737
927.419	11756
927.525	11699
927.631	11775
927.737	11611
927.843	11581
927.95	11547
928.056	11554
928.162	11661
928.267	11680
928.373	12148
928.479	11646
928.585	11414
928.69	11478
928.796	11581
928.901	11383
929.007	11284
929.112	11448
929.218	11440
929.323	11433
929.428	11284
929.533	11486
929.638	11246
929.743	11242
929.848	11307
929.953	11227
930.058	11223
930.163	10980
930.267	11041
930.372	11181
930.477	10919
930.581	11197
930.685	10980
930.79	10828
930.894	10961
930.998	10873
931.103	11094
931.207	10714
931.311	10588
931.415	10447
931.519	10272
931.623	10287
