Data from test_V78500241_3135.txt Node
Date: Fri Mar 25 15:31:41 CST 2022
User: usil
Spectrometer: V785-0024
Trigger mode: 0
Integration Time (sec): 4.000000E-1
Scans to average: 1
Nonlinearity correction enabled: false
Boxcar width: 0
Storing dark spectrum: false
XAxis mode: Wavelengths
Number of Pixels in Spectrum: 1024
>>>>>Begin Spectral Data<<<<<
801.071	27119
801.214	26979
801.356	26788
801.499	26720
801.641	26663
801.783	26636
801.926	26693
802.068	26537
802.211	26575
802.353	26431
802.496	26332
802.638	26267
802.78	26324
802.923	26069
803.065	26176
803.208	26081
803.35	26275
803.492	26351
803.635	26400
803.777	26301
803.919	26343
804.061	26689
804.204	26545
804.346	26347
804.488	26271
804.63	26374
804.773	26240
804.915	26727
805.057	26499
805.199	26301
805.341	26473
805.483	26632
805.626	26533
805.768	26450
805.91	26526
806.052	26568
806.194	26320
806.336	26693
806.478	26461
806.62	26465
806.762	26423
806.904	26838
807.046	27036
807.188	26933
807.33	26929
807.472	27043
807.614	26845
807.756	26906
807.898	26800
808.04	26743
808.182	26682
808.324	26769
808.465	26868
808.607	26902
808.749	27146
808.891	27089
809.033	27214
809.174	27112
809.316	27055
809.458	27142
809.6	27146
809.741	27131
809.883	27176
810.025	27386
810.166	27340
810.308	27268
810.45	27393
810.591	27260
810.733	27165
810.875	27100
811.016	27135
811.158	26982
811.299	27192
811.441	27310
811.582	27294
811.724	27268
811.865	27108
812.007	27081
812.148	27077
812.29	27150
812.431	27310
812.573	27492
812.714	27427
812.855	27561
812.997	27660
813.138	27831
813.279	27675
813.421	27534
813.562	27576
813.703	27386
813.845	27260
813.986	26902
814.127	26849
814.268	26826
814.41	26823
814.551	26644
814.692	26880
814.833	26746
814.974	26560
815.115	26940
815.256	26667
815.397	26648
815.539	26648
815.68	26594
815.821	26457
815.962	26526
816.103	26575
816.244	26412
816.385	26305
816.526	26229
816.666	26126
816.807	25982
816.948	26153
817.089	25951
817.23	26008
817.371	25959
817.512	25849
817.653	25966
817.793	25955
817.934	25883
818.075	26012
818.216	26039
818.356	25750
818.497	25830
818.638	25677
818.778	25788
818.919	25928
819.06	25799
819.2	25833
819.341	26005
819.481	25932
819.622	26138
819.762	26320
819.903	26339
820.043	26164
820.184	26103
820.324	26115
820.465	26267
820.605	26172
820.746	26126
820.886	26077
821.026	26138
821.167	26081
821.307	26168
821.447	26054
821.588	25830
821.728	25723
821.868	25571
822.008	25552
822.149	25426
822.289	25358
822.429	25282
822.569	25179
822.709	25099
822.849	24958
822.99	25019
823.13	24768
823.27	24852
823.41	24745
823.55	24757
823.69	24837
823.83	24749
823.97	24783
824.11	24646
824.25	24521
824.389	24673
824.529	24673
824.669	24589
824.809	24768
824.949	24658
825.089	24620
825.228	24654
825.368	24391
825.508	24566
825.648	24483
825.787	24498
825.927	24490
826.067	24426
826.206	24433
826.346	24479
826.485	24582
826.625	24509
826.765	24620
826.904	24505
827.044	24262
827.183	24292
827.323	24133
827.462	24152
827.601	24258
827.741	24045
827.88	24281
828.02	24057
828.159	24091
828.298	24315
828.437	24266
828.577	24194
828.716	24289
828.855	24110
828.994	23942
829.134	23904
829.273	23813
829.412	23729
829.551	23722
829.69	23817
829.829	23863
829.968	24018
830.107	23992
830.246	23980
830.385	23790
830.524	23718
830.663	23748
830.802	23691
830.941	23444
831.08	23383
831.219	23493
831.357	23547
831.496	23577
831.635	23642
831.774	23433
831.913	23410
832.051	23315
832.19	23261
832.329	23265
832.467	23273
832.606	23006
832.744	23155
832.883	23117
833.022	23105
833.16	23143
833.299	23280
833.437	23288
833.576	23223
833.714	23121
833.852	23296
833.991	23288
834.129	23349
834.267	23334
834.406	23292
834.544	23349
834.682	23136
834.821	23337
834.959	23330
835.097	23159
835.235	23315
835.373	23250
835.511	23162
835.65	23048
835.788	23121
835.926	23010
836.064	22847
836.202	22877
836.34	23075
836.478	23098
836.615	23048
836.753	23006
836.891	23029
837.029	23083
837.167	22991
837.305	23147
837.443	22889
837.58	22961
837.718	22961
837.856	22927
837.993	22843
838.131	22923
838.269	22729
838.406	22801
838.544	22733
838.681	22592
838.819	22550
838.956	22436
839.094	22462
839.231	22557
839.369	22630
839.506	22755
839.643	22630
839.781	22382
839.918	22337
840.055	22360
840.193	22390
840.33	22489
840.467	22306
840.604	22394
840.742	22641
840.879	22230
841.016	22440
841.153	22325
841.29	22360
841.427	22394
841.564	22371
841.701	22299
841.838	22310
841.975	22207
842.112	22261
842.249	22120
842.385	22188
842.522	22413
842.659	22181
842.796	22147
842.933	22021
843.069	22112
843.206	22032
843.343	22166
843.479	22044
843.616	22192
843.752	21884
843.889	21926
844.025	22013
844.162	21831
844.298	22021
844.435	21804
844.571	21842
844.708	21899
844.844	21983
844.98	22116
845.117	21953
845.253	21895
845.389	21778
845.525	21819
845.661	21701
845.798	21572
845.934	21644
846.07	21641
846.206	21633
846.342	21667
846.478	21557
846.614	21374
846.75	21291
846.886	21363
847.022	21504
847.158	21428
847.294	21313
847.429	21332
847.565	21336
847.701	21564
847.837	21081
847.972	21077
848.108	21249
848.244	21214
848.379	21039
848.515	21005
848.65	21066
848.786	20887
848.921	20834
849.057	21154
849.192	20982
849.328	21017
849.463	20979
849.598	20796
849.734	20861
849.869	20773
850.004	20762
850.14	20716
850.275	20765
850.41	20788
850.545	20629
850.68	20571
850.815	20796
850.95	20697
851.085	20982
851.22	20811
851.355	20701
851.49	20750
851.625	20667
851.76	20678
851.895	20613
852.03	20636
852.165	20701
852.299	20750
852.434	20716
852.569	20701
852.703	20632
852.838	20720
852.973	20804
853.107	20746
853.242	20739
853.376	20541
853.511	20492
853.645	20457
853.78	20667
853.914	20530
854.048	20434
854.183	20522
854.317	20499
854.451	20788
854.585	20590
854.72	20583
854.854	20682
854.988	20431
855.122	20549
855.256	20461
855.39	20507
855.524	20621
855.658	20609
855.792	20480
855.926	20533
856.06	20514
856.194	20454
856.327	20526
856.461	20469
856.595	20518
856.729	20495
856.862	20621
856.996	20579
857.13	20651
857.263	20552
857.397	20594
857.53	20587
857.664	20530
857.797	20602
857.931	20621
858.064	20495
858.197	20708
858.331	20568
858.464	20530
858.597	20450
858.731	20530
858.864	20587
858.997	20450
859.13	20488
859.263	20617
859.396	20602
859.529	20598
859.662	20434
859.795	20461
859.928	20568
860.061	20674
860.194	20674
860.327	20556
860.46	20682
860.592	20667
860.725	20518
860.858	20746
860.99	20564
861.123	20480
861.256	20530
861.388	20594
861.521	21009
861.653	20438
861.786	20301
861.918	20446
862.05	20351
862.183	20427
862.315	20473
862.447	20549
862.58	20457
862.712	20275
862.844	20263
862.976	20362
863.108	20454
863.24	20663
863.372	20130
863.504	20103
863.636	20096
863.768	20214
863.9	20191
864.032	20278
864.164	20225
864.296	20336
864.428	20461
864.559	20465
864.691	20218
864.823	20358
864.954	20218
865.086	20210
865.217	20153
865.349	20027
865.48	20195
865.612	20161
865.743	20278
865.875	20073
866.006	20119
866.137	20142
866.269	20149
866.4	20039
866.531	20081
866.662	20050
866.793	20016
866.924	19913
867.055	20225
867.186	20130
867.317	20031
867.448	19959
867.579	20077
867.71	20027
867.841	19989
867.972	20122
868.103	19997
868.233	20065
868.364	20134
868.495	20240
868.625	20336
868.756	20480
868.886	20248
869.017	20240
869.147	20400
869.278	20511
869.408	20434
869.539	20408
869.669	20446
869.799	20347
869.929	20480
870.06	20579
870.19	20644
870.32	20530
870.45	20796
870.58	20811
870.71	20921
870.84	20815
870.97	20655
871.1	20804
871.23	20807
871.36	20944
871.489	20853
871.619	20918
871.749	20887
871.879	20921
872.008	21055
872.138	20921
872.267	20834
872.397	20845
872.526	20796
872.656	20659
872.785	20686
872.915	20937
873.044	20975
873.173	20960
873.303	21028
873.432	21096
873.561	21138
873.69	20956
873.819	20899
873.948	20929
874.077	20948
874.206	20853
874.335	20876
874.464	21138
874.593	21199
874.722	21093
874.851	21188
874.979	21226
875.108	21260
875.237	21150
875.365	21108
875.494	21275
875.623	21291
875.751	21226
875.88	21165
876.008	21336
876.136	21458
876.265	21652
876.393	21648
876.521	21781
876.65	21667
876.778	21686
876.906	21580
877.034	21523
877.162	21534
877.29	21488
877.418	21564
877.546	21675
877.674	21557
877.802	21614
877.93	21606
878.058	21526
878.185	21374
878.313	21542
878.441	21656
878.568	21458
878.696	21477
878.824	21481
878.951	21622
879.079	21705
879.206	21797
879.333	21682
879.461	21591
879.588	21732
879.715	21816
879.842	21865
879.97	21679
880.097	21450
880.224	21329
880.351	21329
880.478	21393
880.605	21378
880.732	21492
880.859	21606
880.986	21454
881.112	21389
881.239	21089
881.366	21214
881.493	21055
881.619	20963
881.746	20971
881.872	20902
881.999	20891
882.125	20937
882.252	21062
882.378	20971
882.505	20994
882.631	20880
882.757	20697
882.883	20750
883.01	20663
883.136	20655
883.262	20499
883.388	20511
883.514	20667
883.64	20689
883.766	20511
883.892	20396
884.018	20412
884.143	20651
884.269	20648
884.395	20454
884.52	20370
884.646	20450
884.772	20320
884.897	20221
885.023	20332
885.148	20408
885.274	20526
885.399	20476
885.524	20408
885.65	20339
885.775	20366
885.9	20263
886.025	20507
886.15	20438
886.275	20339
886.4	20187
886.525	20244
886.65	20187
886.775	20309
886.9	20396
887.025	20568
887.149	20507
887.274	20161
887.399	20134
887.523	19955
887.648	20062
887.773	20027
887.897	20161
888.021	20278
888.146	19997
888.27	20263
888.395	20149
888.519	20240
888.643	20092
888.767	20221
888.891	20054
889.015	19841
889.139	19940
889.263	19894
889.387	20005
889.511	20122
889.635	20115
889.759	19871
889.883	19921
890.006	20008
890.13	20100
890.254	19887
890.377	19841
890.501	19620
890.624	19727
890.748	19788
890.871	19807
890.995	19518
891.118	19468
891.241	19476
891.364	19449
891.488	19620
891.611	19495
891.734	19400
891.857	19525
891.98	19396
892.103	19495
892.226	19499
892.349	19559
892.471	19301
892.594	19483
892.717	19422
892.839	19415
892.962	19491
893.085	19563
893.207	19415
893.33	19129
893.452	19396
893.575	19422
893.697	19407
893.819	19632
893.941	19738
894.064	19510
894.186	19343
894.308	19331
894.43	19483
894.552	19571
894.674	19518
894.796	19301
894.918	19468
895.04	19362
895.161	19483
895.283	19537
895.405	19384
895.526	19396
895.648	19415
895.769	19514
895.891	19457
896.012	19552
896.134	19445
896.255	19453
896.376	19335
896.498	19381
896.619	19460
896.74	19502
896.861	19548
896.982	19685
897.103	19978
897.224	19795
897.345	19674
897.466	19632
897.587	19544
897.708	19696
897.828	19719
897.949	19556
898.07	19552
898.19	19521
898.311	19666
898.431	19616
898.552	19635
898.672	19799
898.792	19693
898.913	19647
899.033	19483
899.153	19578
899.273	19346
899.393	19438
899.513	19441
899.633	19544
899.753	19426
899.873	19308
899.993	19441
900.113	19480
900.232	19350
900.352	19362
900.472	19270
900.591	19156
900.711	19141
900.83	19168
900.95	19232
901.069	19335
901.189	19171
901.308	18867
901.427	18783
901.546	18852
901.665	18856
901.784	18772
901.904	18627
902.023	18559
902.141	18391
902.26	18323
902.379	18311
902.498	18300
902.617	18304
902.735	18391
902.854	18300
902.973	18277
903.091	18072
903.21	18049
903.328	17992
903.446	17996
903.565	17813
903.683	17802
903.801	17589
903.919	17741
904.038	17710
904.156	17623
904.274	17680
904.392	17501
904.51	17551
904.627	17558
904.745	17596
904.863	17703
904.981	17433
905.098	17223
905.216	17189
905.334	17250
905.451	17353
905.569	17269
905.686	17318
905.803	17288
905.921	17033
906.038	17102
906.155	17113
906.272	17014
906.389	16980
906.506	16843
906.623	16687
906.74	16763
906.857	16698
906.974	16664
907.091	16847
907.208	16934
907.324	16843
907.441	16767
907.557	16573
907.674	16558
907.79	16504
907.907	16523
908.023	16398
908.139	16554
908.256	16440
908.372	16360
908.488	16424
908.604	16246
908.72	16143
908.836	16322
908.952	16226
909.068	16295
909.184	16402
909.3	16223
909.415	16246
909.531	16181
909.647	15991
909.762	16021
909.878	15918
909.993	15941
910.108	16040
910.224	15934
910.339	16032
910.454	15850
910.57	15766
910.685	15705
910.8	15945
910.915	15945
911.03	15937
911.145	15500
911.259	15576
911.374	15530
911.489	15397
911.604	15370
911.718	15294
911.833	15340
911.947	15306
912.062	15203
912.176	15279
912.291	15294
912.405	15420
912.519	15523
912.633	15507
912.748	15325
912.862	15317
912.976	15188
913.09	14967
913.204	15066
913.318	15104
913.431	15336
913.545	15260
913.659	15226
913.772	15108
913.886	14967
914	14918
914.113	14986
914.226	15047
914.34	14925
914.453	14857
914.566	15047
914.68	14754
914.793	14849
914.906	14632
915.019	14575
915.132	14533
915.245	14613
915.358	14625
915.47	14594
915.583	14716
915.696	14564
915.809	14727
915.921	14575
916.034	14507
916.146	14549
916.259	14438
916.371	14602
916.483	14442
916.595	14484
916.708	14415
916.82	14412
916.932	14419
917.044	14427
917.156	14450
917.268	14183
917.38	14248
917.491	14320
917.603	14176
917.715	14351
917.826	14294
917.938	14103
918.049	14153
918.161	14309
918.272	14396
918.384	14396
918.495	14290
918.606	13997
918.717	14024
918.828	14027
918.939	14058
919.05	13947
919.161	14001
919.272	13742
919.383	13860
919.494	14020
919.604	14168
919.715	14020
919.826	13902
919.936	13959
920.047	14031
920.157	14001
920.267	14248
920.378	14027
920.488	13860
920.598	14176
920.708	14275
920.818	14248
920.928	14130
921.038	14248
921.148	14176
921.258	14027
921.368	13879
921.477	13727
921.587	13719
921.697	13559
921.806	13734
921.916	13601
922.025	13396
922.134	13415
922.244	13331
922.353	13457
922.462	13297
922.571	13179
922.68	13110
922.789	12951
922.898	13091
923.007	12966
923.116	13114
923.224	13000
923.333	13050
923.442	12894
923.55	12939
923.659	12981
923.767	12882
923.876	12802
923.984	12833
924.092	12768
924.201	12810
924.309	12821
924.417	12871
924.525	12791
924.633	12745
924.741	13696
924.849	12555
924.956	12669
925.064	12475
925.172	12490
925.279	12494
925.387	12593
925.494	12490
925.602	12563
925.709	12498
925.816	12380
925.924	12418
926.031	12483
926.138	12441
926.245	12448
926.352	12315
926.459	12498
926.566	12525
926.673	12369
926.779	12319
926.886	12220
926.993	12053
927.099	12102
927.206	12045
927.312	12053
927.419	12133
927.525	12064
927.631	12030
927.737	11999
927.843	11958
927.95	11874
928.056	11878
928.162	11897
928.267	11965
928.373	12642
928.479	11980
928.585	11657
928.69	11969
928.796	11817
928.901	11707
929.007	11589
929.112	11726
929.218	11714
929.323	11672
929.428	11611
929.533	11794
929.638	11562
929.743	11581
929.848	11634
929.953	11532
930.058	11410
930.163	11250
930.267	11292
930.372	11448
930.477	11292
930.581	11497
930.685	11448
930.79	11261
930.894	11204
930.998	11204
931.103	11349
931.207	10949
931.311	10946
931.415	10774
931.519	10630
931.623	10603
