Data from test_V78500241_2764.txt Node
Date: Fri Mar 25 15:29:06 CST 2022
User: usil
Spectrometer: V785-0024
Trigger mode: 0
Integration Time (sec): 4.000000E-1
Scans to average: 1
Nonlinearity correction enabled: false
Boxcar width: 0
Storing dark spectrum: false
XAxis mode: Wavelengths
Number of Pixels in Spectrum: 1024
>>>>>Begin Spectral Data<<<<<
801.071	27195
801.214	27043
801.356	26853
801.499	26777
801.641	26606
801.783	26636
801.926	26708
802.068	26659
802.211	26606
802.353	26450
802.496	26473
802.638	26218
802.78	26172
802.923	26195
803.065	26073
803.208	26218
803.35	26221
803.492	26362
803.635	26552
803.777	26305
803.919	26396
804.061	26804
804.204	26560
804.346	26278
804.488	26339
804.63	26275
804.773	26313
804.915	26400
805.057	26473
805.199	26358
805.341	26488
805.483	26537
805.626	26393
805.768	26366
805.91	26541
806.052	26423
806.194	26385
806.336	26800
806.478	26545
806.62	26533
806.762	26590
806.904	26773
807.046	26967
807.188	26880
807.33	26891
807.472	27005
807.614	26785
807.756	26807
807.898	26743
808.04	26644
808.182	26674
808.324	26705
808.465	26819
808.607	27017
808.749	27119
808.891	27169
809.033	27233
809.174	27104
809.316	27032
809.458	27230
809.6	27119
809.741	27275
809.883	27256
810.025	27374
810.166	27363
810.308	27355
810.45	27272
810.591	27241
810.733	27123
810.875	27161
811.016	26864
811.158	26948
811.299	27275
811.441	27245
811.582	27332
811.724	27233
811.865	26979
812.007	26937
812.148	26971
812.29	27077
812.431	27367
812.573	27370
812.714	27454
812.855	27583
812.997	27701
813.138	27766
813.279	27682
813.421	27644
813.562	27553
813.703	27291
813.845	27313
813.986	26982
814.127	26785
814.268	26796
814.41	26640
814.551	26739
814.692	26887
814.833	26663
814.974	26720
815.115	26811
815.256	26518
815.397	26686
815.539	26754
815.68	26594
815.821	26484
815.962	26488
816.103	26507
816.244	26377
816.385	26240
816.526	26317
816.666	26073
816.807	25986
816.948	26054
817.089	26016
817.23	26081
817.371	25883
817.512	25966
817.653	25921
817.793	25989
817.934	25959
818.075	25868
818.216	25982
818.356	25982
818.497	25856
818.638	25647
818.778	25689
818.919	25620
819.06	25849
819.2	25902
819.341	25986
819.481	25909
819.622	26016
819.762	26278
819.903	26229
820.043	26130
820.184	26172
820.324	26115
820.465	26130
820.605	26187
820.746	26111
820.886	25898
821.026	26012
821.167	25970
821.307	26164
821.447	26046
821.588	25826
821.728	25780
821.868	25502
822.008	25506
822.149	25525
822.289	25472
822.429	25152
822.569	25148
822.709	25148
822.849	24954
822.99	24928
823.13	24928
823.27	24939
823.41	24798
823.55	24703
823.69	24840
823.83	24715
823.97	24722
824.11	24494
824.25	24620
824.389	24494
824.529	24604
824.669	24585
824.809	24688
824.949	24650
825.089	24776
825.228	24738
825.368	24327
825.508	24369
825.648	24445
825.787	24460
825.927	24559
826.067	24410
826.206	24452
826.346	24578
826.485	24612
826.625	24505
826.765	24642
826.904	24612
827.044	24247
827.183	24304
827.323	24228
827.462	24308
827.601	24239
827.741	24110
827.88	24243
828.02	24060
828.159	24121
828.298	24205
828.437	24163
828.577	24083
828.716	24292
828.855	24076
828.994	23897
829.134	23874
829.273	23889
829.412	23874
829.551	23939
829.69	23939
829.829	23874
829.968	23843
830.107	23996
830.246	24007
830.385	23840
830.524	23726
830.663	23756
830.802	23600
830.941	23642
831.08	23471
831.219	23539
831.357	23478
831.496	23764
831.635	23516
831.774	23391
831.913	23402
832.051	23284
832.19	23334
832.329	23433
832.467	23197
832.606	23170
832.744	23086
832.883	23189
833.022	23185
833.16	23098
833.299	23181
833.437	23250
833.576	23265
833.714	23269
833.852	23185
833.991	23311
834.129	23395
834.267	23292
834.406	23258
834.544	23227
834.682	23178
834.821	23280
834.959	23421
835.097	23003
835.235	23311
835.373	23155
835.511	23197
835.65	23140
835.788	23140
835.926	23003
836.064	22892
836.202	22790
836.34	23052
836.478	23223
836.615	23128
836.753	23041
836.891	23159
837.029	22984
837.167	23105
837.305	22980
837.443	22961
837.58	22923
837.718	22946
837.856	22801
837.993	22748
838.131	22885
838.269	22744
838.406	22908
838.544	22748
838.681	22523
838.819	22561
838.956	22478
839.094	22451
839.231	22436
839.369	22535
839.506	22649
839.643	22580
839.781	22402
839.918	22261
840.055	22261
840.193	22352
840.33	22337
840.467	22265
840.604	22443
840.742	22596
840.879	22188
841.016	22322
841.153	22188
841.29	22322
841.427	22295
841.564	22352
841.701	22249
841.838	22348
841.975	22207
842.112	22257
842.249	22196
842.385	22101
842.522	22272
842.659	22226
842.796	22154
842.933	22093
843.069	22040
843.206	21968
843.343	22177
843.479	22105
843.616	22147
843.752	21888
843.889	21888
844.025	22036
844.162	21812
844.298	21937
844.435	21892
844.571	21732
844.708	21888
844.844	22097
844.98	21918
845.117	21937
845.253	21663
845.389	21720
845.525	21720
845.661	21762
845.798	21614
845.934	21583
846.07	21667
846.206	21660
846.342	21789
846.478	21641
846.614	21378
846.75	21325
846.886	21283
847.022	21458
847.158	21348
847.294	21363
847.429	21367
847.565	21340
847.701	21523
847.837	21039
847.972	20921
848.108	21199
848.244	21017
848.379	21055
848.515	20864
848.65	20929
848.786	20883
848.921	20952
849.057	20975
849.192	21051
849.328	21036
849.463	20933
849.598	20895
849.734	20826
849.869	20826
850.004	20674
850.14	20785
850.275	20781
850.41	20587
850.545	20640
850.68	20575
850.815	20769
850.95	20712
851.085	20826
851.22	20777
851.355	20724
851.49	20648
851.625	20693
851.76	20617
851.895	20708
852.03	20507
852.165	20579
852.299	20686
852.434	20823
852.569	20800
852.703	20743
852.838	20686
852.973	20834
853.107	20762
853.242	20678
853.376	20545
853.511	20400
853.645	20473
853.78	20708
853.914	20469
854.048	20518
854.183	20503
854.317	20526
854.451	20765
854.585	20434
854.72	20518
854.854	20640
854.988	20366
855.122	20533
855.256	20366
855.39	20442
855.524	20663
855.658	20476
855.792	20499
855.926	20682
856.06	20602
856.194	20750
856.327	20396
856.461	20545
856.595	20473
856.729	20602
856.862	20712
856.996	20587
857.13	20640
857.263	20739
857.397	20629
857.53	20469
857.664	20587
857.797	20689
857.931	20678
858.064	20571
858.197	20663
858.331	20526
858.464	20358
858.597	20461
858.731	20438
858.864	20503
858.997	20412
859.13	20549
859.263	20587
859.396	20549
859.529	20370
859.662	20469
859.795	20564
859.928	20609
860.061	20663
860.194	20720
860.327	20549
860.46	20454
860.592	20564
860.725	20606
860.858	20659
860.99	20511
861.123	20415
861.256	20484
861.388	20514
861.521	20998
861.653	20324
861.786	20259
861.918	20366
862.05	20465
862.183	20484
862.315	20556
862.447	20446
862.58	20393
862.712	20377
862.844	20199
862.976	20286
863.108	20290
863.24	20777
863.372	20214
863.504	20206
863.636	20176
863.768	20317
863.9	20183
864.032	20111
864.164	20199
864.296	20267
864.428	20377
864.559	20294
864.691	20351
864.823	20157
864.954	20214
865.086	20294
865.217	20164
865.349	19970
865.48	20149
865.612	20199
865.743	20301
865.875	20157
866.006	20031
866.137	20168
866.269	20111
866.4	20153
866.531	20031
866.662	20088
866.793	20126
866.924	20020
867.055	20138
867.186	20100
867.317	20058
867.448	20001
867.579	20119
867.71	20088
867.841	20012
867.972	20172
868.103	20073
868.233	20046
868.364	20092
868.495	20218
868.625	20366
868.756	20370
868.886	20309
869.017	20358
869.147	20427
869.278	20328
869.408	20324
869.539	20259
869.669	20400
869.799	20511
869.929	20522
870.06	20370
870.19	20473
870.32	20708
870.45	20568
870.58	20773
870.71	20872
870.84	20899
870.97	20845
871.1	20705
871.23	20963
871.36	20990
871.489	20864
871.619	20899
871.749	21058
871.879	20975
872.008	20952
872.138	20929
872.267	20819
872.397	20769
872.526	20708
872.656	20819
872.785	20807
872.915	21001
873.044	20967
873.173	20975
873.303	20998
873.432	21017
873.561	20963
873.69	20925
873.819	20975
873.948	21108
874.077	20891
874.206	20960
874.335	20899
874.464	21062
874.593	21184
874.722	21211
874.851	21074
874.979	21207
875.108	21123
875.237	21154
875.365	21096
875.494	21230
875.623	21260
875.751	21093
875.88	21249
876.008	21351
876.136	21351
876.265	21530
876.393	21736
876.521	21511
876.65	21652
876.778	21595
876.906	21542
877.034	21481
877.162	21580
877.29	21553
877.418	21591
877.546	21679
877.674	21603
877.802	21443
877.93	21511
878.058	21576
878.185	21424
878.313	21542
878.441	21557
878.568	21431
878.696	21481
878.824	21675
878.951	21603
879.079	21774
879.206	21873
879.333	21576
879.461	21549
879.588	21717
879.715	21686
879.842	21751
879.97	21629
880.097	21325
880.224	21370
880.351	21488
880.478	21424
880.605	21424
880.732	21325
880.859	21663
880.986	21416
881.112	21351
881.239	21302
881.366	21169
881.493	20937
881.619	20891
881.746	20952
881.872	21005
881.999	20960
882.125	20933
882.252	20963
882.378	20944
882.505	21001
882.631	20785
882.757	20735
882.883	20708
883.01	20575
883.136	20655
883.262	20503
883.388	20613
883.514	20716
883.64	20758
883.766	20545
883.892	20438
884.018	20480
884.143	20606
884.269	20727
884.395	20351
884.52	20290
884.646	20313
884.772	20115
884.897	20202
885.023	20248
885.148	20259
885.274	20507
885.399	20355
885.524	20313
885.65	20343
885.775	20317
885.9	20221
886.025	20332
886.15	20282
886.275	20218
886.4	20320
886.525	20294
886.65	20180
886.775	20111
886.9	20415
887.025	20499
887.149	20305
887.274	20077
887.399	20111
887.523	20054
887.648	19963
887.773	19963
887.897	20259
888.021	20233
888.146	20119
888.27	20172
888.395	20225
888.519	20126
888.643	20176
888.767	20115
888.891	19944
889.015	19890
889.139	20012
889.263	19814
889.387	19947
889.511	20020
889.635	19970
889.759	19917
889.883	19864
890.006	19936
890.13	19928
890.254	19723
890.377	19788
890.501	19632
890.624	19689
890.748	19681
890.871	19613
890.995	19419
891.118	19358
891.241	19453
891.364	19533
891.488	19567
891.611	19441
891.734	19445
891.857	19556
891.98	19537
892.103	19590
892.226	19480
892.349	19335
892.471	19244
892.594	19369
892.717	19453
892.839	19339
892.962	19400
893.085	19430
893.207	19411
893.33	19217
893.452	19335
893.575	19472
893.697	19335
893.819	19506
893.941	19662
894.064	19460
894.186	19327
894.308	19327
894.43	19495
894.552	19487
894.674	19548
894.796	19343
894.918	19422
895.04	19350
895.161	19441
895.283	19449
895.405	19358
895.526	19384
895.648	19384
895.769	19346
895.891	19365
896.012	19544
896.134	19396
896.255	19350
896.376	19499
896.498	19491
896.619	19460
896.74	19354
896.861	19449
896.982	19624
897.103	19738
897.224	19719
897.345	19670
897.466	19582
897.587	19616
897.708	19845
897.828	19616
897.949	19518
898.07	19483
898.19	19590
898.311	19750
898.431	19525
898.552	19685
898.672	19715
898.792	19666
898.913	19689
899.033	19540
899.153	19460
899.273	19346
899.393	19373
899.513	19324
899.633	19400
899.753	19331
899.873	19369
899.993	19499
900.113	19430
900.232	19365
900.352	19324
900.472	19259
900.591	19141
900.711	19225
900.83	19179
900.95	19274
901.069	19289
901.189	19076
901.308	18867
901.427	18738
901.546	18753
901.665	18829
901.784	18817
901.904	18589
902.023	18544
902.141	18350
902.26	18346
902.379	18448
902.498	18372
902.617	18338
902.735	18441
902.854	18239
902.973	18308
903.091	18034
903.21	18011
903.328	17977
903.446	17828
903.565	17824
903.683	17847
903.801	17657
903.919	17661
904.038	17680
904.156	17505
904.274	17687
904.392	17646
904.51	17589
904.627	17573
904.745	17608
904.863	17566
904.981	17406
905.098	17185
905.216	17231
905.334	17334
905.451	17303
905.569	17223
905.686	17227
905.803	17330
905.921	17056
906.038	17102
906.155	17086
906.272	17003
906.389	16919
906.506	16877
906.623	16805
906.74	16729
906.857	16725
906.974	16691
907.091	16729
907.208	16915
907.324	16755
907.441	16641
907.557	16497
907.674	16443
907.79	16440
907.907	16466
908.023	16432
908.139	16527
908.256	16569
908.372	16375
908.488	16337
908.604	16276
908.72	16147
908.836	16249
908.952	16265
909.068	16268
909.184	16280
909.3	16181
909.415	16295
909.531	16268
909.647	15972
909.762	15846
909.878	15941
909.993	15915
910.108	15930
910.224	15915
910.339	15869
910.454	15759
910.57	15682
910.685	15675
910.8	15975
910.915	15941
911.03	15701
911.145	15663
911.259	15523
911.374	15488
911.489	15553
911.604	15424
911.718	15291
911.833	15241
911.947	15207
912.062	15252
912.176	15317
912.291	15439
912.405	15306
912.519	15561
912.633	15485
912.748	15325
912.862	15268
912.976	15112
913.09	14883
913.204	15108
913.318	15127
913.431	15230
913.545	15294
913.659	15268
913.772	15032
913.886	14998
914	14944
914.113	15009
914.226	15024
914.34	14975
914.453	14883
914.566	14937
914.68	14792
914.793	14800
914.906	14613
915.019	14583
915.132	14465
915.245	14571
915.358	14636
915.47	14575
915.583	14587
915.696	14530
915.809	14689
915.921	14640
916.034	14454
916.146	14431
916.259	14438
916.371	14442
916.483	14522
916.595	14423
916.708	14461
916.82	14343
916.932	14362
917.044	14298
917.156	14286
917.268	14282
917.38	14256
917.491	14278
917.603	14305
917.715	14313
917.826	14328
917.938	14214
918.049	14103
918.161	14176
918.272	14309
918.384	14218
918.495	14115
918.606	13986
918.717	13978
918.828	13989
918.939	13978
919.05	13909
919.161	13947
919.272	13704
919.383	13837
919.494	14031
919.604	14286
919.715	13974
919.826	13799
919.936	13959
920.047	13993
920.157	13951
920.267	14107
920.378	13928
920.488	13883
920.598	14088
920.708	14317
920.818	14134
920.928	14187
921.038	14282
921.148	14282
921.258	13967
921.368	13761
921.477	13757
921.587	13693
921.697	13689
921.806	13647
921.916	13548
922.025	13472
922.134	13396
922.244	13354
922.353	13377
922.462	13335
922.571	13168
922.68	13050
922.789	12962
922.898	13099
923.007	12981
923.116	12977
923.224	12901
923.333	13057
923.442	12863
923.55	12878
923.659	12935
923.767	12962
923.876	12878
923.984	12856
924.092	12688
924.201	12802
924.309	12760
924.417	12711
924.525	12631
924.633	12669
924.741	13666
924.849	12445
924.956	12604
925.064	12483
925.172	12433
925.279	12536
925.387	12479
925.494	12509
925.602	12604
925.709	12513
925.816	12311
925.924	12517
926.031	12429
926.138	12418
926.245	12483
926.352	12372
926.459	12483
926.566	12475
926.673	12365
926.779	12258
926.886	12163
926.993	12041
927.099	12152
927.206	12022
927.312	11999
927.419	12079
927.525	11977
927.631	12026
927.737	11961
927.843	11969
927.95	11840
928.056	11783
928.162	11863
928.267	11946
928.373	12448
928.479	11942
928.585	11726
928.69	11813
928.796	11897
928.901	11699
929.007	11657
929.112	11809
929.218	11676
929.323	11710
929.428	11627
929.533	11718
929.638	11535
929.743	11589
929.848	11592
929.953	11547
930.058	11497
930.163	11269
930.267	11303
930.372	11490
930.477	11254
930.581	11512
930.685	11277
930.79	11235
930.894	11235
930.998	11159
931.103	11334
931.207	11029
931.311	10835
931.415	10771
931.519	10672
931.623	10607
