Data from test_V78500241_1290.txt Node
Date: Fri Mar 25 15:18:50 CST 2022
User: usil
Spectrometer: V785-0024
Trigger mode: 0
Integration Time (sec): 4.000000E-1
Scans to average: 1
Nonlinearity correction enabled: false
Boxcar width: 0
Storing dark spectrum: false
XAxis mode: Wavelengths
Number of Pixels in Spectrum: 1024
>>>>>Begin Spectral Data<<<<<
801.071	28238
801.214	28101
801.356	27876
801.499	27808
801.641	27663
801.783	27823
801.926	27732
802.068	27759
802.211	27641
802.353	27526
802.496	27321
802.638	27321
802.78	27294
802.923	27283
803.065	27222
803.208	27291
803.35	27310
803.492	27370
803.635	27633
803.777	27306
803.919	27568
804.061	27888
804.204	27622
804.346	27469
804.488	27370
804.63	27542
804.773	27473
804.915	27587
805.057	27610
805.199	27507
805.341	27671
805.483	27686
805.626	27720
805.768	27568
805.91	27629
806.052	27671
806.194	27610
806.336	27937
806.478	27675
806.62	27698
806.762	27637
806.904	27953
807.046	28226
807.188	27987
807.33	28112
807.472	28097
807.614	28010
807.756	28078
807.898	27956
808.04	27975
808.182	27968
808.324	28002
808.465	27899
808.607	28158
808.749	28341
808.891	28466
809.033	28455
809.174	28390
809.316	28356
809.458	28230
809.6	28363
809.741	28360
809.883	28493
810.025	28626
810.166	28755
810.308	28664
810.45	28535
810.591	28535
810.733	28337
810.875	28375
811.016	28226
811.158	28333
811.299	28481
811.441	28421
811.582	28531
811.724	28318
811.865	28356
812.007	28348
812.148	28322
812.29	28413
812.431	28508
812.573	28767
812.714	28805
812.855	28866
812.997	29010
813.138	28976
813.279	28946
813.421	28953
813.562	28904
813.703	28626
813.845	28535
813.986	28242
814.127	28177
814.268	28082
814.41	28154
814.551	28036
814.692	28185
814.833	28112
814.974	27991
815.115	28135
815.256	27865
815.397	27850
815.539	27892
815.68	27865
815.821	27667
815.962	27865
816.103	27812
816.244	27686
816.385	27523
816.526	27561
816.666	27416
816.807	27348
816.948	27378
817.089	27416
817.23	27393
817.371	27424
817.512	27336
817.653	27481
817.793	27397
817.934	27317
818.075	27370
818.216	27367
818.356	27321
818.497	27340
818.638	27089
818.778	27074
818.919	27081
819.06	27199
819.2	27230
819.341	27424
819.481	27454
819.622	27462
819.762	27682
819.903	27682
820.043	27496
820.184	27595
820.324	27454
820.465	27424
820.605	27408
820.746	27507
820.886	27306
821.026	27424
821.167	27401
821.307	27488
821.447	27207
821.588	27359
821.728	27131
821.868	26975
822.008	26750
822.149	26804
822.289	26826
822.429	26575
822.569	26526
822.709	26431
822.849	26358
822.99	26358
823.13	26248
823.27	26210
823.41	26134
823.55	26084
823.69	26161
823.83	26050
823.97	26024
824.11	26054
824.25	25925
824.389	25986
824.529	26084
824.669	26062
824.809	26039
824.949	25993
825.089	26077
825.228	26016
825.368	25860
825.508	25963
825.648	25883
825.787	25841
825.927	25913
826.067	25925
826.206	25928
826.346	25909
826.485	26065
826.625	25852
826.765	25940
826.904	25993
827.044	25639
827.183	25468
827.323	25533
827.462	25655
827.601	25597
827.741	25628
827.88	25521
828.02	25601
828.159	25537
828.298	25518
828.437	25674
828.577	25563
828.716	25704
828.855	25453
828.994	25304
829.134	25392
829.273	25468
829.412	25312
829.551	25103
829.69	25289
829.829	25396
829.968	25377
830.107	25259
830.246	25327
830.385	25278
830.524	25088
830.663	25148
830.802	25034
830.941	25091
831.08	24951
831.219	25000
831.357	25000
831.496	25031
831.635	24867
831.774	24776
831.913	24768
832.051	24658
832.19	24703
832.329	24764
832.467	24604
832.606	24513
832.744	24426
832.883	24445
833.022	24441
833.16	24570
833.299	24665
833.437	24559
833.576	24593
833.714	24688
833.852	24719
833.991	24582
834.129	24711
834.267	24745
834.406	24646
834.544	24559
834.682	24700
834.821	24726
834.959	24875
835.097	24551
835.235	24753
835.373	24551
835.511	24715
835.65	24471
835.788	24585
835.926	24414
836.064	24186
836.202	24182
836.34	24422
836.478	24547
836.615	24467
836.753	24559
836.891	24475
837.029	24505
837.167	24475
837.305	24448
837.443	24380
837.58	24342
837.718	24410
837.856	24292
837.993	24258
838.131	24319
838.269	24224
838.406	24102
838.544	24098
838.681	24060
838.819	23897
838.956	23718
839.094	23707
839.231	23805
839.369	23935
839.506	24125
839.643	23973
839.781	23661
839.918	23729
840.055	23737
840.193	23783
840.33	23714
840.467	23619
840.604	23756
840.742	23923
840.879	23687
841.016	23623
841.153	23623
841.29	23821
841.427	23608
841.564	23699
841.701	23805
841.838	23623
841.975	23509
842.112	23478
842.249	23467
842.385	23459
842.522	23543
842.659	23478
842.796	23360
842.933	23277
843.069	23398
843.206	23406
843.343	23463
843.479	23364
843.616	23410
843.752	23200
843.889	23121
844.025	23337
844.162	23090
844.298	23353
844.435	23159
844.571	23193
844.708	23258
844.844	23372
844.98	23330
845.117	23372
845.253	23155
845.389	22934
845.525	23147
845.661	22987
845.798	22995
845.934	22987
846.07	22824
846.206	22972
846.342	23010
846.478	22892
846.614	22706
846.75	22630
846.886	22774
847.022	22717
847.158	22729
847.294	22702
847.429	22698
847.565	22702
847.701	22896
847.837	22428
847.972	22421
848.108	22413
848.244	22489
848.379	22341
848.515	22223
848.65	22215
848.786	22238
848.921	22257
849.057	22386
849.192	22363
849.328	22246
849.463	22211
849.598	22356
849.734	22116
849.869	22086
850.004	21956
850.14	22093
850.275	22013
850.41	22029
850.545	21960
850.68	21972
850.815	21979
850.95	21968
851.085	22139
851.22	22166
851.355	22002
851.49	21964
851.625	21983
851.76	21994
851.895	21880
852.03	21781
852.165	21998
852.299	22097
852.434	21937
852.569	22097
852.703	22017
852.838	22112
852.973	22109
853.107	22196
853.242	21827
853.376	21884
853.511	21679
853.645	21968
853.78	21895
853.914	21934
854.048	21755
854.183	21705
854.317	21880
854.451	22051
854.585	21842
854.72	21724
854.854	21819
854.988	21747
855.122	21835
855.256	21747
855.39	21755
855.524	21983
855.658	21960
855.792	21831
855.926	21892
856.06	21804
856.194	21892
856.327	21880
856.461	21797
856.595	21838
856.729	21808
856.862	21991
856.996	21816
857.13	21835
857.263	21987
857.397	21911
857.53	21800
857.664	21945
857.797	21857
857.931	21934
858.064	21918
858.197	21892
858.331	21789
858.464	21850
858.597	21728
858.731	21869
858.864	21785
858.997	21800
859.13	21823
859.263	21869
859.396	22017
859.529	21793
859.662	21816
859.795	21751
859.928	21838
860.061	22006
860.194	22070
860.327	21934
860.46	21743
860.592	22013
860.725	21937
860.858	22051
860.99	21789
861.123	21717
861.256	21747
861.388	21873
861.521	22535
861.653	21739
861.786	21633
861.918	21629
862.05	21682
862.183	21770
862.315	21667
862.447	21876
862.58	21827
862.712	21534
862.844	21492
862.976	21690
863.108	21591
863.24	21941
863.372	21481
863.504	21450
863.636	21614
863.768	21507
863.9	21515
864.032	21401
864.164	21466
864.296	21542
864.428	21629
864.559	21701
864.691	21591
864.823	21564
864.954	21530
865.086	21389
865.217	21405
865.349	21260
865.48	21431
865.612	21519
865.743	21618
865.875	21450
866.006	21408
866.137	21393
866.269	21264
866.4	21374
866.531	21325
866.662	21256
866.793	21450
866.924	21351
867.055	21332
867.186	21393
867.317	21397
867.448	21302
867.579	21264
867.71	21214
867.841	21272
867.972	21340
868.103	21363
868.233	21405
868.364	21435
868.495	21469
868.625	21496
868.756	21717
868.886	21637
869.017	21557
869.147	21682
869.278	21686
869.408	21614
869.539	21637
869.669	21671
869.799	21652
869.929	21675
870.06	21762
870.19	21953
870.32	21808
870.45	21918
870.58	21960
870.71	22025
870.84	21941
870.97	21972
871.1	22032
871.23	22059
871.36	22192
871.489	22150
871.619	22120
871.749	22230
871.879	22207
872.008	22295
872.138	22169
872.267	22192
872.397	22090
872.526	22044
872.656	22010
872.785	21972
872.915	22333
873.044	22329
873.173	22188
873.303	22116
873.432	22341
873.561	22299
873.69	22287
873.819	22131
873.948	22356
874.077	22207
874.206	22181
874.335	22261
874.464	22379
874.593	22451
874.722	22363
874.851	22440
874.979	22413
875.108	22382
875.237	22291
875.365	22226
875.494	22284
875.623	22443
875.751	22303
875.88	22436
876.008	22508
876.136	22478
876.265	22713
876.393	22915
876.521	23003
876.65	22949
876.778	22820
876.906	22816
877.034	22698
877.162	22721
877.29	22702
877.418	22923
877.546	22885
877.674	22752
877.802	22793
877.93	22706
878.058	22660
878.185	22569
878.313	22694
878.441	22771
878.568	22550
878.696	22691
878.824	22755
878.951	22927
879.079	22976
879.206	23090
879.333	23014
879.461	22816
879.588	22790
879.715	22896
879.842	23056
879.97	22809
880.097	22523
880.224	22584
880.351	22546
880.478	22565
880.605	22451
880.732	22592
880.859	22755
880.986	22565
881.112	22679
881.239	22497
881.366	22341
881.493	22310
881.619	22207
881.746	22230
881.872	22204
881.999	22021
882.125	22272
882.252	22280
882.378	22128
882.505	22150
882.631	22097
882.757	21880
882.883	22013
883.01	21861
883.136	21778
883.262	21675
883.388	21644
883.514	21804
883.64	21903
883.766	21755
883.892	21682
884.018	21701
884.143	21907
884.269	21937
884.395	21580
884.52	21526
884.646	21526
884.772	21340
884.897	21291
885.023	21648
885.148	21656
885.274	21686
885.399	21481
885.524	21648
885.65	21485
885.775	21500
885.9	21466
886.025	21568
886.15	21591
886.275	21359
886.4	21321
886.525	21485
886.65	21382
886.775	21481
886.9	21564
887.025	21682
887.149	21439
887.274	21298
887.399	21310
887.523	21264
887.648	21157
887.773	21112
887.897	21321
888.021	21214
888.146	21207
888.27	21233
888.395	21351
888.519	21412
888.643	21291
888.767	21195
888.891	21230
889.015	21104
889.139	21089
889.263	20998
889.387	21127
889.511	21344
889.635	21123
889.759	21062
889.883	21013
890.006	20895
890.13	21127
890.254	20952
890.377	20937
890.501	20754
890.624	20743
890.748	20830
890.871	20727
890.995	20625
891.118	20507
891.241	20556
891.364	20590
891.488	20678
891.611	20541
891.734	20587
891.857	20724
891.98	20708
892.103	20727
892.226	20590
892.349	20530
892.471	20442
892.594	20571
892.717	20434
892.839	20423
892.962	20514
893.085	20499
893.207	20438
893.33	20396
893.452	20355
893.575	20602
893.697	20492
893.819	20655
893.941	20678
894.064	20769
894.186	20450
894.308	20419
894.43	20518
894.552	20648
894.674	20461
894.796	20328
894.918	20465
895.04	20450
895.161	20499
895.283	20533
895.405	20469
895.526	20488
895.648	20442
895.769	20423
895.891	20511
896.012	20613
896.134	20545
896.255	20522
896.376	20457
896.498	20454
896.619	20358
896.74	20530
896.861	20621
896.982	20880
897.103	20853
897.224	20845
897.345	20765
897.466	20670
897.587	20625
897.708	20876
897.828	20739
897.949	20667
898.07	20541
898.19	20648
898.311	20727
898.431	20693
898.552	20708
898.672	20739
898.792	20712
898.913	20701
899.033	20556
899.153	20507
899.273	20347
899.393	20545
899.513	20457
899.633	20355
899.753	20446
899.873	20438
899.993	20374
900.113	20336
900.232	20488
900.352	20351
900.472	20263
900.591	20191
900.711	20176
900.83	20149
900.95	20351
901.069	20271
901.189	20115
901.308	20016
901.427	19784
901.546	19788
901.665	19738
901.784	19822
901.904	19620
902.023	19586
902.141	19369
902.26	19293
902.379	19430
902.498	19217
902.617	19278
902.735	19350
902.854	19304
902.973	19263
903.091	19095
903.21	18928
903.328	18913
903.446	18947
903.565	18757
903.683	18722
903.801	18540
903.919	18711
904.038	18726
904.156	18601
904.274	18627
904.392	18521
904.51	18475
904.627	18513
904.745	18475
904.863	18566
904.981	18292
905.098	18121
905.216	18254
905.334	18235
905.451	18190
905.569	18228
905.686	18323
905.803	18197
905.921	17969
906.038	18049
906.155	17980
906.272	17828
906.389	17855
906.506	17680
906.623	17718
906.74	17741
906.857	17687
906.974	17577
907.091	17813
907.208	17942
907.324	17786
907.441	17638
907.557	17471
907.674	17414
907.79	17322
907.907	17425
908.023	17505
908.139	17471
908.256	17387
908.372	17296
908.488	17235
908.604	17178
908.72	17181
908.836	17025
908.952	17166
909.068	17231
909.184	17322
909.3	17174
909.415	17212
909.531	17193
909.647	16835
909.762	16904
909.878	16828
909.993	16824
910.108	16839
910.224	16725
910.339	16812
910.454	16721
910.57	16740
910.685	16664
910.8	16763
910.915	16820
911.03	16607
911.145	16455
911.259	16466
911.374	16485
911.489	16352
911.604	16363
911.718	16169
911.833	16249
911.947	16131
912.062	16124
912.176	16105
912.291	16158
912.405	16188
912.519	16322
912.633	16314
912.748	16284
912.862	16192
912.976	15994
913.09	15915
913.204	15937
913.318	16013
913.431	16128
913.545	16025
913.659	16090
913.772	16040
913.886	15850
914	15823
914.113	15800
914.226	16036
914.34	15800
914.453	15739
914.566	15789
914.68	15652
914.793	15580
914.906	15500
915.019	15439
915.132	15363
915.245	15367
915.358	15462
915.47	15321
915.583	15431
915.696	15389
915.809	15504
915.921	15523
916.034	15416
916.146	15329
916.259	15192
916.371	15420
916.483	15294
916.595	15249
916.708	15233
916.82	15169
916.932	15081
917.044	15245
917.156	15237
917.268	15055
917.38	15024
917.491	15077
917.603	15032
917.715	15013
917.826	14990
917.938	14998
918.049	14823
918.161	14994
918.272	15089
918.384	15119
918.495	14990
918.606	14815
918.717	14754
918.828	14853
918.939	14743
919.05	14663
919.161	14720
919.272	14625
919.383	14731
919.494	14842
919.604	14937
919.715	14792
919.826	14678
919.936	14750
920.047	14876
920.157	14758
920.267	14952
920.378	14819
920.488	14746
920.598	14880
920.708	15062
920.818	14876
920.928	14933
921.038	15058
921.148	14921
921.258	14640
921.368	14552
921.477	14457
921.587	14396
921.697	14366
921.806	14465
921.916	14305
922.025	14138
922.134	14035
922.244	14065
922.353	14259
922.462	13997
922.571	13913
922.68	13772
922.789	13761
922.898	13753
923.007	13704
923.116	13780
923.224	13772
923.333	13704
923.442	13578
923.55	13620
923.659	13681
923.767	13544
923.876	13601
923.984	13533
924.092	13476
924.201	13464
924.309	13476
924.417	13499
924.525	13388
924.633	13537
924.741	14370
924.849	13156
924.956	13316
925.064	13232
925.172	13183
925.279	13145
925.387	13194
925.494	13114
925.602	13301
925.709	13179
925.816	13072
925.924	13031
926.031	13202
926.138	13175
926.245	13171
926.352	13012
926.459	13149
926.566	13183
926.673	12966
926.779	12894
926.886	12882
926.993	12795
927.099	12677
927.206	12703
927.312	12654
927.419	12749
927.525	12760
927.631	12734
927.737	12597
927.843	12585
927.95	12399
928.056	12483
928.162	12559
928.267	12639
928.373	13251
928.479	12692
928.585	12426
928.69	12498
928.796	12544
928.901	12403
929.007	12228
929.112	12429
929.218	12395
929.323	12365
929.428	12254
929.533	12410
929.638	12254
929.743	12167
929.848	12140
929.953	12258
930.058	12106
930.163	11939
930.267	11969
930.372	12038
930.477	11889
930.581	12034
930.685	11931
930.79	11805
930.894	11904
930.998	11878
931.103	11939
931.207	11558
931.311	11528
931.415	11398
931.519	11166
931.623	11185
