Data from test_V78500241_892.txt Node
Date: Fri Mar 25 15:16:04 CST 2022
User: usil
Spectrometer: V785-0024
Trigger mode: 0
Integration Time (sec): 4.000000E-1
Scans to average: 1
Nonlinearity correction enabled: false
Boxcar width: 0
Storing dark spectrum: false
XAxis mode: Wavelengths
Number of Pixels in Spectrum: 1024
>>>>>Begin Spectral Data<<<<<
801.071	28101
801.214	28105
801.356	27918
801.499	27884
801.641	27778
801.783	27895
801.926	27667
802.068	27747
802.211	27656
802.353	27553
802.496	27458
802.638	27427
802.78	27359
802.923	27336
803.065	27462
803.208	27500
803.35	27511
803.492	27382
803.635	27542
803.777	27462
803.919	27679
804.061	27930
804.204	27614
804.346	27561
804.488	27496
804.63	27618
804.773	27545
804.915	27667
805.057	27766
805.199	27614
805.341	27671
805.483	27667
805.626	27770
805.768	27682
805.91	27800
806.052	27793
806.194	27606
806.336	27987
806.478	27823
806.62	27869
806.762	27941
806.904	28082
807.046	28325
807.188	28192
807.33	28158
807.472	28166
807.614	28196
807.756	28185
807.898	28051
808.04	27930
808.182	27960
808.324	28139
808.465	28234
808.607	28211
808.749	28413
808.891	28573
809.033	28580
809.174	28493
809.316	28379
809.458	28428
809.6	28325
809.741	28592
809.883	28489
810.025	28675
810.166	28862
810.308	28634
810.45	28790
810.591	28546
810.733	28371
810.875	28565
811.016	28409
811.158	28390
811.299	28584
811.441	28630
811.582	28546
811.724	28523
811.865	28470
812.007	28470
812.148	28447
812.29	28500
812.431	28584
812.573	28934
812.714	28721
812.855	29079
812.997	29075
813.138	29044
813.279	29155
813.421	28888
813.562	28942
813.703	28820
813.845	28675
813.986	28459
814.127	28150
814.268	28150
814.41	28173
814.551	28135
814.692	28185
814.833	28242
814.974	28086
815.115	28223
815.256	27975
815.397	28147
815.539	28135
815.68	27861
815.821	27880
815.962	27979
816.103	27922
816.244	27972
816.385	27675
816.526	27743
816.666	27534
816.807	27504
816.948	27561
817.089	27549
817.23	27542
817.371	27572
817.512	27462
817.653	27485
817.793	27500
817.934	27416
818.075	27469
818.216	27511
818.356	27534
818.497	27321
818.638	27218
818.778	27386
818.919	27230
819.06	27332
819.2	27260
819.341	27306
819.481	27435
819.622	27682
819.762	27800
819.903	27694
820.043	27606
820.184	27561
820.324	27652
820.465	27663
820.605	27785
820.746	27564
820.886	27473
821.026	27629
821.167	27576
821.307	27720
821.447	27618
821.588	27351
821.728	27272
821.868	27013
822.008	27051
822.149	27005
822.289	26940
822.429	26545
822.569	26590
822.709	26450
822.849	26423
822.99	26419
823.13	26385
823.27	26473
823.41	26278
823.55	26180
823.69	26252
823.83	26320
823.97	26218
824.11	26176
824.25	26035
824.389	26145
824.529	26103
824.669	26100
824.809	26309
824.949	26214
825.089	26309
825.228	26115
825.368	25928
825.508	26043
825.648	26024
825.787	26008
825.927	26058
826.067	25917
826.206	26012
826.346	26039
826.485	26199
826.625	26027
826.765	26012
826.904	25955
827.044	25811
827.183	25761
827.323	25685
827.462	25734
827.601	25620
827.741	25723
827.88	25651
828.02	25575
828.159	25624
828.298	25803
828.437	25746
828.577	25624
828.716	25769
828.855	25605
828.994	25544
829.134	25457
829.273	25491
829.412	25384
829.551	25236
829.69	25381
829.829	25514
829.968	25411
830.107	25411
830.246	25373
830.385	25403
830.524	25255
830.663	25251
830.802	25152
830.941	25110
831.08	24954
831.219	25122
831.357	25133
831.496	25316
831.635	24973
831.774	24821
831.913	24962
832.051	24840
832.19	24810
832.329	24867
832.467	24612
832.606	24521
832.744	24677
832.883	24829
833.022	24597
833.16	24677
833.299	24688
833.437	24722
833.576	24715
833.714	24932
833.852	24840
833.991	24844
834.129	24966
834.267	24875
834.406	24875
834.544	24779
834.682	24707
834.821	24711
834.959	24890
835.097	24642
835.235	24738
835.373	24730
835.511	24863
835.65	24563
835.788	24642
835.926	24570
836.064	24407
836.202	24422
836.34	24612
836.478	24570
836.615	24544
836.753	24661
836.891	24764
837.029	24532
837.167	24700
837.305	24452
837.443	24483
837.58	24429
837.718	24448
837.856	24475
837.993	24384
838.131	24350
838.269	24247
838.406	24281
838.544	24296
838.681	24190
838.819	23996
838.956	24064
839.094	23805
839.231	24041
839.369	24133
839.506	24350
839.643	23999
839.781	23980
839.918	23832
840.055	23908
840.193	23885
840.33	23775
840.467	23821
840.604	23882
840.742	24007
840.879	23802
841.016	23756
841.153	23558
841.29	24011
841.427	23813
841.564	23802
841.701	23745
841.838	23752
841.975	23649
842.112	23714
842.249	23684
842.385	23573
842.522	23661
842.659	23551
842.796	23539
842.933	23531
843.069	23520
843.206	23516
843.343	23562
843.479	23573
843.616	23684
843.752	23349
843.889	23311
844.025	23471
844.162	23296
844.298	23467
844.435	23277
844.571	23265
844.708	23406
844.844	23425
844.98	23558
845.117	23414
845.253	23322
845.389	23242
845.525	23132
845.661	23250
845.798	23128
845.934	23136
846.07	23136
846.206	23121
846.342	23307
846.478	23170
846.614	22904
846.75	22713
846.886	22854
847.022	22862
847.158	22763
847.294	22862
847.429	22793
847.565	22778
847.701	22976
847.837	22508
847.972	22557
848.108	22573
848.244	22607
848.379	22527
848.515	22318
848.65	22413
848.786	22432
848.921	22386
849.057	22630
849.192	22451
849.328	22470
849.463	22466
849.598	22287
849.734	22322
849.869	22253
850.004	22150
850.14	22207
850.275	22166
850.41	22154
850.545	22150
850.68	21949
850.815	22219
850.95	22120
851.085	22363
851.22	22257
851.355	22067
851.49	22078
851.625	22200
851.76	22181
851.895	21926
852.03	22093
852.165	22211
852.299	22116
852.434	22177
852.569	22188
852.703	22143
852.838	22280
852.973	22226
853.107	22261
853.242	22082
853.376	21994
853.511	21876
853.645	21937
853.78	21968
853.914	21930
854.048	22010
854.183	21888
854.317	22017
854.451	22109
854.585	21915
854.72	22036
854.854	22055
854.988	21915
855.122	21945
855.256	21892
855.39	21922
855.524	22055
855.658	22013
855.792	22082
855.926	21991
856.06	22059
856.194	21918
856.327	22036
856.461	21968
856.595	21937
856.729	21945
856.862	22097
856.996	21956
857.13	22055
857.263	22044
857.397	22051
857.53	21827
857.664	22029
857.797	22093
857.931	22093
858.064	21960
858.197	22154
858.331	21956
858.464	21975
858.597	21781
858.731	21895
858.864	21918
858.997	21899
859.13	21979
859.263	21915
859.396	22006
859.529	21918
859.662	21850
859.795	21895
859.928	21975
860.061	22105
860.194	22169
860.327	22025
860.46	22010
860.592	22048
860.725	22188
860.858	22124
860.99	21960
861.123	21968
861.256	22002
861.388	21964
861.521	22736
861.653	21854
861.786	21667
861.918	21789
862.05	21720
862.183	21915
862.315	21899
862.447	22040
862.58	21831
862.712	21660
862.844	21709
862.976	21774
863.108	21804
863.24	22128
863.372	21572
863.504	21732
863.636	21717
863.768	21682
863.9	21686
864.032	21610
864.164	21580
864.296	21515
864.428	21842
864.559	21671
864.691	21728
864.823	21641
864.954	21511
865.086	21633
865.217	21675
865.349	21515
865.48	21523
865.612	21603
865.743	21648
865.875	21606
866.006	21534
866.137	21507
866.269	21538
866.4	21633
866.531	21469
866.662	21420
866.793	21507
866.924	21466
867.055	21511
867.186	21386
867.317	21458
867.448	21374
867.579	21492
867.71	21412
867.841	21272
867.972	21488
868.103	21523
868.233	21519
868.364	21523
868.495	21542
868.625	21675
868.756	21945
868.886	21583
869.017	21652
869.147	21842
869.278	21762
869.408	21907
869.539	21698
869.669	21800
869.799	21732
869.929	21854
870.06	21793
870.19	22055
870.32	22017
870.45	22074
870.58	22131
870.71	22287
870.84	22116
870.97	22158
871.1	22109
871.23	22284
871.36	22382
871.489	22196
871.619	22253
871.749	22402
871.879	22363
872.008	22402
872.138	22394
872.267	22337
872.397	22234
872.526	22147
872.656	22230
872.785	22150
872.915	22226
873.044	22303
873.173	22348
873.303	22443
873.432	22409
873.561	22421
873.69	22318
873.819	22249
873.948	22409
874.077	22253
874.206	22367
874.335	22284
874.464	22375
874.593	22596
874.722	22561
874.851	22478
874.979	22584
875.108	22588
875.237	22660
875.365	22462
875.494	22527
875.623	22569
875.751	22542
875.88	22615
876.008	22641
876.136	22702
876.265	22930
876.393	23083
876.521	22984
876.65	22946
876.778	22820
876.906	22889
877.034	22866
877.162	22911
877.29	22839
877.418	23052
877.546	22961
877.674	22908
877.802	22889
877.93	22862
878.058	22801
878.185	22713
878.313	22831
878.441	22748
878.568	22694
878.696	22885
878.824	22984
878.951	22919
879.079	23041
879.206	23159
879.333	23075
879.461	22919
879.588	23083
879.715	23029
879.842	23143
879.97	22911
880.097	22782
880.224	22725
880.351	22656
880.478	22755
880.605	22702
880.732	22713
880.859	22987
880.986	22755
881.112	22698
881.239	22599
881.366	22306
881.493	22341
881.619	22211
881.746	22310
881.872	22223
881.999	22234
882.125	22181
882.252	22318
882.378	22272
882.505	22348
882.631	22242
882.757	21975
882.883	22070
883.01	21972
883.136	22010
883.262	21892
883.388	21797
883.514	21949
883.64	22002
883.766	21907
883.892	21781
884.018	21705
884.143	21804
884.269	21953
884.395	21660
884.52	21515
884.646	21675
884.772	21637
884.897	21473
885.023	21526
885.148	21644
885.274	21656
885.399	21660
885.524	21610
885.65	21538
885.775	21637
885.9	21545
886.025	21762
886.15	21572
886.275	21481
886.4	21462
886.525	21633
886.65	21477
886.775	21515
886.9	21781
887.025	21808
887.149	21641
887.274	21393
887.399	21473
887.523	21386
887.648	21199
887.773	21252
887.897	21424
888.021	21393
888.146	21443
888.27	21416
888.395	21488
888.519	21306
888.643	21488
888.767	21355
888.891	21405
889.015	21173
889.139	21192
889.263	21062
889.387	21108
889.511	21393
889.635	21325
889.759	21104
889.883	21100
890.006	21165
890.13	21249
890.254	21100
890.377	21036
890.501	20929
890.624	20804
890.748	20921
890.871	20758
890.995	20708
891.118	20598
891.241	20807
891.364	20746
891.488	20815
891.611	20720
891.734	20731
891.857	20750
891.98	20720
892.103	20727
892.226	20724
892.349	20629
892.471	20549
892.594	20556
892.717	20682
892.839	20663
892.962	20640
893.085	20678
893.207	20602
893.33	20465
893.452	20503
893.575	20678
893.697	20640
893.819	20758
893.941	20724
894.064	20826
894.186	20533
894.308	20537
894.43	20583
894.552	20644
894.674	20663
894.796	20385
894.918	20571
895.04	20590
895.161	20754
895.283	20686
895.405	20480
895.526	20708
895.648	20568
895.769	20613
895.891	20686
896.012	20644
896.134	20552
896.255	20606
896.376	20579
896.498	20594
896.619	20670
896.74	20537
896.861	20568
896.982	20807
897.103	21036
897.224	20853
897.345	20838
897.466	20659
897.587	20727
897.708	20963
897.828	20849
897.949	20781
898.07	20678
898.19	20632
898.311	20868
898.431	20777
898.552	20826
898.672	20815
898.792	20948
898.913	20800
899.033	20659
899.153	20488
899.273	20560
899.393	20602
899.513	20587
899.633	20556
899.753	20526
899.873	20473
899.993	20575
900.113	20495
900.232	20587
900.352	20438
900.472	20412
900.591	20237
900.711	20351
900.83	20202
900.95	20434
901.069	20358
901.189	20183
901.308	19936
901.427	19841
901.546	19921
901.665	20035
901.784	19902
901.904	19803
902.023	19548
902.141	19403
902.26	19449
902.379	19533
902.498	19426
902.617	19247
902.735	19434
902.854	19403
902.973	19301
903.091	19042
903.21	19015
903.328	19122
903.446	18970
903.565	18871
903.683	18871
903.801	18703
903.919	18897
904.038	18852
904.156	18677
904.274	18612
904.392	18608
904.51	18608
904.627	18677
904.745	18688
904.863	18711
904.981	18399
905.098	18327
905.216	18334
905.334	18391
905.451	18388
905.569	18232
905.686	18171
905.803	18300
905.921	18079
906.038	18194
906.155	18129
906.272	17973
906.389	18041
906.506	17843
906.623	17832
906.74	17942
906.857	17695
906.974	17722
907.091	17931
907.208	18003
907.324	17882
907.441	17737
907.557	17581
907.674	17490
907.79	17444
907.907	17535
908.023	17589
908.139	17539
908.256	17436
908.372	17414
908.488	17250
908.604	17345
908.72	17181
908.836	17216
908.952	17326
909.068	17315
909.184	17341
909.3	17311
909.415	17273
909.531	17280
909.647	17067
909.762	17075
909.878	16934
909.993	16991
910.108	16889
910.224	16984
910.339	16866
910.454	16869
910.57	16729
910.685	16713
910.8	17003
910.915	16923
911.03	16759
911.145	16577
911.259	16554
911.374	16630
911.489	16462
911.604	16436
911.718	16306
911.833	16253
911.947	16230
912.062	16112
912.176	16249
912.291	16303
912.405	16276
912.519	16386
912.633	16519
912.748	16310
912.862	16207
912.976	16124
913.09	15983
913.204	16082
913.318	16154
913.431	16177
913.545	16150
913.659	16181
913.772	16078
913.886	15835
914	15861
914.113	15972
914.226	16002
914.34	15998
914.453	15766
914.566	15926
914.68	15789
914.793	15774
914.906	15545
915.019	15428
915.132	15443
915.245	15408
915.358	15519
915.47	15519
915.583	15477
915.696	15507
915.809	15663
915.921	15603
916.034	15469
916.146	15424
916.259	15355
916.371	15469
916.483	15344
916.595	15332
916.708	15325
916.82	15344
916.932	15344
917.044	15245
917.156	15226
917.268	15176
917.38	15188
917.491	15161
917.603	15203
917.715	15268
917.826	15165
917.938	15097
918.049	14944
918.161	15165
918.272	15218
918.384	15218
918.495	15020
918.606	14967
918.717	14804
918.828	14918
918.939	14963
919.05	14746
919.161	14708
919.272	14731
919.383	14785
919.494	14914
919.604	15017
919.715	14823
919.826	14826
919.936	14750
920.047	14849
920.157	14826
920.267	15009
920.378	14807
920.488	14804
920.598	14960
920.708	15104
920.818	14986
920.928	14982
921.038	15112
921.148	14944
921.258	14739
921.368	14727
921.477	14552
921.587	14579
921.697	14351
921.806	14571
921.916	14412
922.025	14294
922.134	14202
922.244	14176
922.353	14229
922.462	14142
922.571	13967
922.68	13864
922.789	13849
922.898	13830
923.007	13723
923.116	13849
923.224	13868
923.333	13860
923.442	13632
923.55	13670
923.659	13746
923.767	13704
923.876	13533
923.984	13708
924.092	13499
924.201	13537
924.309	13525
924.417	13575
924.525	13346
924.633	13502
924.741	14282
924.849	13392
924.956	13381
925.064	13339
925.172	13137
925.279	13202
925.387	13324
925.494	13270
925.602	13419
925.709	13289
925.816	13209
925.924	13240
926.031	13266
926.138	13099
926.245	13236
926.352	13110
926.459	13225
926.566	13190
926.673	13129
926.779	13015
926.886	13076
926.993	12939
927.099	12810
927.206	12772
927.312	12658
927.419	12890
927.525	12859
927.631	12806
927.737	12722
927.843	12764
927.95	12555
928.056	12563
928.162	12673
928.267	12711
928.373	13339
928.479	12738
928.585	12498
928.69	12540
928.796	12650
928.901	12513
929.007	12429
929.112	12490
929.218	12509
929.323	12460
929.428	12376
929.533	12517
929.638	12338
929.743	12292
929.848	12437
929.953	12365
930.058	12178
930.163	11961
930.267	12053
930.372	12159
930.477	12019
930.581	12262
930.685	12095
930.79	11961
930.894	11950
930.998	11984
931.103	11988
931.207	11684
931.311	11627
931.415	11592
931.519	11360
931.623	11311
