Data from test_V78500241_2403.txt Node
Date: Fri Mar 25 15:26:35 CST 2022
User: usil
Spectrometer: V785-0024
Trigger mode: 0
Integration Time (sec): 4.000000E-1
Scans to average: 1
Nonlinearity correction enabled: false
Boxcar width: 0
Storing dark spectrum: false
XAxis mode: Wavelengths
Number of Pixels in Spectrum: 1024
>>>>>Begin Spectral Data<<<<<
801.071	27226
801.214	27222
801.356	26933
801.499	26800
801.641	26826
801.783	26804
801.926	26796
802.068	26891
802.211	26815
802.353	26674
802.496	26446
802.638	26431
802.78	26450
802.923	26431
803.065	26290
803.208	26377
803.35	26385
803.492	26598
803.635	26552
803.777	26484
803.919	26606
804.061	26773
804.204	26788
804.346	26606
804.488	26427
804.63	26507
804.773	26537
804.915	26560
805.057	26689
805.199	26438
805.341	26640
805.483	26746
805.626	26602
805.768	26526
805.91	26731
806.052	26735
806.194	26644
806.336	26823
806.478	26754
806.62	26632
806.762	26804
806.904	26891
807.046	27287
807.188	27017
807.33	27165
807.472	27146
807.614	27062
807.756	27058
807.898	26925
808.04	26823
808.182	26906
808.324	26906
808.465	27005
808.607	27096
808.749	27424
808.891	27184
809.033	27275
809.174	27192
809.316	27192
809.458	27131
809.6	27176
809.741	27420
809.883	27382
810.025	27523
810.166	27431
810.308	27557
810.45	27329
810.591	27355
810.733	27180
810.875	27279
811.016	27161
811.158	27119
811.299	27275
811.441	27382
811.582	27340
811.724	27233
811.865	27154
812.007	27173
812.148	27272
812.29	27184
812.431	27386
812.573	27561
812.714	27671
812.855	27648
812.997	27759
813.138	27922
813.279	27911
813.421	27728
813.562	27603
813.703	27587
813.845	27443
813.986	27252
814.127	27024
814.268	26838
814.41	26861
814.551	26826
814.692	26956
814.833	26823
814.974	26868
815.115	27005
815.256	26663
815.397	26785
815.539	26609
815.68	26792
815.821	26587
815.962	26659
816.103	26693
816.244	26621
816.385	26453
816.526	26461
816.666	26282
816.807	26126
816.948	26259
817.089	26233
817.23	26237
817.371	25993
817.512	26221
817.653	26138
817.793	26130
817.934	26153
818.075	26039
818.216	26134
818.356	26062
818.497	25875
818.638	25906
818.778	25780
818.919	25966
819.06	25921
819.2	25986
819.341	26138
819.481	26183
819.622	26393
819.762	26503
819.903	26343
820.043	26343
820.184	26187
820.324	26172
820.465	26412
820.605	26199
820.746	26164
820.886	26119
821.026	26240
821.167	26317
821.307	26351
821.447	26138
821.588	26119
821.728	25795
821.868	25868
822.008	25578
822.149	25734
822.289	25700
822.429	25331
822.569	25251
822.709	25343
822.849	25076
822.99	25133
823.13	25137
823.27	25038
823.41	24890
823.55	24757
823.69	24947
823.83	24901
823.97	24768
824.11	24772
824.25	24700
824.389	24646
824.529	24798
824.669	24741
824.809	24878
824.949	24962
825.089	24810
825.228	24806
825.368	24593
825.508	24692
825.648	24578
825.787	24639
825.927	24772
826.067	24578
826.206	24608
826.346	24612
826.485	24673
826.625	24593
826.765	24684
826.904	24703
827.044	24460
827.183	24334
827.323	24159
827.462	24365
827.601	24376
827.741	24194
827.88	24350
828.02	24148
828.159	24247
828.298	24319
828.437	24304
828.577	24380
828.716	24433
828.855	24262
828.994	24041
829.134	23923
829.273	24068
829.412	24022
829.551	24034
829.69	23942
829.829	24045
829.968	24049
830.107	24091
830.246	24087
830.385	23954
830.524	23908
830.663	23923
830.802	23878
830.941	23665
831.08	23638
831.219	23703
831.357	23733
831.496	23824
831.635	23623
831.774	23630
831.913	23558
832.051	23322
832.19	23292
832.329	23444
832.467	23467
832.606	23212
832.744	23315
832.883	23341
833.022	23227
833.16	23258
833.299	23284
833.437	23280
833.576	23318
833.714	23299
833.852	23391
833.991	23436
834.129	23349
834.267	23493
834.406	23463
834.544	23493
834.682	23395
834.821	23299
834.959	23558
835.097	23254
835.235	23463
835.373	23391
835.511	23395
835.65	23250
835.788	23204
835.926	23162
836.064	22942
836.202	23052
836.34	23254
836.478	23280
836.615	23204
836.753	23197
836.891	23376
837.029	23174
837.167	23140
837.305	23086
837.443	23064
837.58	23113
837.718	23064
837.856	23235
837.993	23033
838.131	23105
838.269	22995
838.406	22961
838.544	22923
838.681	22710
838.819	22664
838.956	22573
839.094	22634
839.231	22687
839.369	22839
839.506	22889
839.643	22889
839.781	22592
839.918	22500
840.055	22615
840.193	22447
840.33	22402
840.467	22516
840.604	22554
840.742	22653
840.879	22344
841.016	22455
841.153	22516
841.29	22546
841.427	22462
841.564	22455
841.701	22447
841.838	22417
841.975	22284
842.112	22447
842.249	22306
842.385	22268
842.522	22478
842.659	22337
842.796	22135
842.933	22219
843.069	22169
843.206	22158
843.343	22481
843.479	22215
843.616	22280
843.752	22051
843.889	22044
844.025	22200
844.162	21895
844.298	22143
844.435	22097
844.571	22044
844.708	22135
844.844	22169
844.98	22196
845.117	22116
845.253	21869
845.389	21922
845.525	21755
845.661	21918
845.798	21637
845.934	21660
846.07	21781
846.206	21827
846.342	21823
846.478	21675
846.614	21504
846.75	21561
846.886	21523
847.022	21500
847.158	21500
847.294	21454
847.429	21511
847.565	21466
847.701	21675
847.837	21260
847.972	21233
848.108	21226
848.244	21382
848.379	21142
848.515	21070
848.65	20998
848.786	21154
848.921	21020
849.057	21241
849.192	21135
849.328	21116
849.463	21043
849.598	20960
849.734	20986
849.869	20960
850.004	20857
850.14	20724
850.275	20857
850.41	20804
850.545	20861
850.68	20880
850.815	20971
850.95	20724
851.085	21001
851.22	20929
851.355	20857
851.49	20891
851.625	20781
851.76	20731
851.895	20712
852.03	20727
852.165	20804
852.299	20823
852.434	20967
852.569	20705
852.703	20891
852.838	20899
852.973	20872
853.107	20971
853.242	20804
853.376	20659
853.511	20564
853.645	20556
853.78	20765
853.914	20617
854.048	20678
854.183	20609
854.317	20663
854.451	20823
854.585	20693
854.72	20556
854.854	20765
854.988	20613
855.122	20587
855.256	20511
855.39	20545
855.524	20712
855.658	20705
855.792	20773
855.926	20701
856.06	20792
856.194	20727
856.327	20621
856.461	20541
856.595	20613
856.729	20590
856.862	20769
856.996	20587
857.13	20678
857.263	20754
857.397	20845
857.53	20579
857.664	20689
857.797	20594
857.931	20891
858.064	20686
858.197	20746
858.331	20686
858.464	20674
858.597	20587
858.731	20644
858.864	20606
858.997	20594
859.13	20781
859.263	20743
859.396	20788
859.529	20686
859.662	20609
859.795	20621
859.928	20575
860.061	20804
860.194	20845
860.327	20720
860.46	20663
860.592	20769
860.725	20845
860.858	20788
860.99	20625
861.123	20545
861.256	20609
861.388	20609
861.521	21233
861.653	20492
861.786	20427
861.918	20526
862.05	20488
862.183	20571
862.315	20461
862.447	20674
862.58	20571
862.712	20450
862.844	20286
862.976	20469
863.108	20465
863.24	20769
863.372	20374
863.504	20450
863.636	20446
863.768	20355
863.9	20415
864.032	20256
864.164	20336
864.296	20476
864.428	20465
864.559	20511
864.691	20526
864.823	20461
864.954	20320
865.086	20294
865.217	20313
865.349	20134
865.48	20370
865.612	20202
865.743	20385
865.875	20294
866.006	20233
866.137	20305
866.269	20275
866.4	20195
866.531	20229
866.662	20252
866.793	20138
866.924	20221
867.055	20119
867.186	20271
867.317	20202
867.448	20180
867.579	20134
867.71	20134
867.841	20103
867.972	20172
868.103	20183
868.233	20202
868.364	20415
868.495	20294
868.625	20541
868.756	20488
868.886	20419
869.017	20415
869.147	20465
869.278	20541
869.408	20434
869.539	20484
869.669	20583
869.799	20488
869.929	20609
870.06	20587
870.19	20769
870.32	20823
870.45	20895
870.58	20762
870.71	20944
870.84	20895
870.97	20929
871.1	20861
871.23	20982
871.36	21074
871.489	20952
871.619	21146
871.749	21119
871.879	21176
872.008	21127
872.138	21173
872.267	21062
872.397	20902
872.526	20842
872.656	21058
872.785	20944
872.915	21058
873.044	21157
873.173	21028
873.303	21154
873.432	21142
873.561	21154
873.69	21100
873.819	21055
873.948	21169
874.077	21085
874.206	20990
874.335	20998
874.464	21203
874.593	21298
874.722	21268
874.851	21389
874.979	21336
875.108	21302
875.237	21180
875.365	21165
875.494	21355
875.623	21374
875.751	21313
875.88	21428
876.008	21443
876.136	21591
876.265	21625
876.393	21873
876.521	21728
876.65	21709
876.778	21743
876.906	21629
877.034	21679
877.162	21648
877.29	21580
877.418	21679
877.546	21679
877.674	21743
877.802	21618
877.93	21736
878.058	21629
878.185	21561
878.313	21576
878.441	21652
878.568	21542
878.696	21515
878.824	21717
878.951	21709
879.079	21831
879.206	21835
879.333	21747
879.461	21785
879.588	21835
879.715	21827
879.842	21884
879.97	21808
880.097	21549
880.224	21485
880.351	21538
880.478	21644
880.605	21454
880.732	21492
880.859	21690
880.986	21549
881.112	21622
881.239	21424
881.366	21211
881.493	21207
881.619	21146
881.746	21161
881.872	21024
881.999	21024
882.125	20948
882.252	21043
882.378	20994
882.505	21157
882.631	20952
882.757	20815
882.883	20872
883.01	20792
883.136	20716
883.262	20701
883.388	20678
883.514	20838
883.64	20754
883.766	20678
883.892	20659
884.018	20590
884.143	20644
884.269	20902
884.395	20518
884.52	20351
884.646	20511
884.772	20408
884.897	20351
885.023	20575
885.148	20594
885.274	20530
885.399	20480
885.524	20419
885.65	20488
885.775	20457
885.9	20358
886.025	20587
886.15	20488
886.275	20465
886.4	20332
886.525	20446
886.65	20419
886.775	20336
886.9	20564
887.025	20613
887.149	20366
887.274	20221
887.399	20240
887.523	20149
887.648	20164
887.773	20100
887.897	20214
888.021	20271
888.146	20191
888.27	20244
888.395	20275
888.519	20183
888.643	20278
888.767	20229
888.891	20069
889.015	19936
889.139	20088
889.263	20088
889.387	20039
889.511	20134
889.635	20107
889.759	20054
889.883	20008
890.006	20065
890.13	20046
890.254	19913
890.377	20020
890.501	19780
890.624	19677
890.748	19830
890.871	19700
890.995	19674
891.118	19521
891.241	19643
891.364	19719
891.488	19742
891.611	19696
891.734	19590
891.857	19643
891.98	19556
892.103	19693
892.226	19609
892.349	19537
892.471	19400
892.594	19556
892.717	19616
892.839	19525
892.962	19438
893.085	19662
893.207	19571
893.33	19373
893.452	19392
893.575	19460
893.697	19495
893.819	19723
893.941	19776
894.064	19647
894.186	19403
894.308	19449
894.43	19582
894.552	19712
894.674	19510
894.796	19441
894.918	19491
895.04	19529
895.161	19510
895.283	19422
895.405	19392
895.526	19499
895.648	19552
895.769	19468
895.891	19655
896.012	19559
896.134	19666
896.255	19525
896.376	19407
896.498	19472
896.619	19514
896.74	19430
896.861	19548
896.982	19757
897.103	19951
897.224	19731
897.345	19742
897.466	19670
897.587	19868
897.708	19925
897.828	19845
897.949	19708
898.07	19521
898.19	19620
898.311	19879
898.431	19700
898.552	19700
898.672	19795
898.792	19856
898.913	19731
899.033	19693
899.153	19628
899.273	19438
899.393	19468
899.513	19559
899.633	19590
899.753	19460
899.873	19480
899.993	19422
900.113	19445
900.232	19434
900.352	19373
900.472	19331
900.591	19285
900.711	19285
900.83	19266
900.95	19304
901.069	19445
901.189	19263
901.308	18856
901.427	18810
901.546	18821
901.665	18901
901.784	18894
901.904	18856
902.023	18589
902.141	18559
902.26	18551
902.379	18589
902.498	18384
902.617	18361
902.735	18422
902.854	18334
902.973	18334
903.091	18057
903.21	18106
903.328	18133
903.446	18114
903.565	17885
903.683	17824
903.801	17851
903.919	17859
904.038	17748
904.156	17741
904.274	17824
904.392	17733
904.51	17596
904.627	17638
904.745	17661
904.863	17786
904.981	17452
905.098	17364
905.216	17330
905.334	17444
905.451	17406
905.569	17349
905.686	17307
905.803	17356
905.921	17121
906.038	17189
906.155	17170
906.272	17071
906.389	17025
906.506	16847
906.623	16885
906.74	16908
906.857	16801
906.974	16790
907.091	16892
907.208	16987
907.324	16881
907.441	16809
907.557	16607
907.674	16592
907.79	16481
907.907	16599
908.023	16588
908.139	16558
908.256	16519
908.372	16599
908.488	16500
908.604	16386
908.72	16230
908.836	16329
908.952	16303
909.068	16424
909.184	16424
909.3	16287
909.415	16367
909.531	16318
909.647	16131
909.762	15979
909.878	16040
909.993	16120
910.108	15941
910.224	15911
910.339	16036
910.454	15842
910.57	15956
910.685	15743
910.8	15994
910.915	15918
911.03	15884
911.145	15633
911.259	15671
911.374	15603
911.489	15557
911.604	15435
911.718	15416
911.833	15420
911.947	15268
912.062	15157
912.176	15412
912.291	15428
912.405	15302
912.519	15542
912.633	15492
912.748	15424
912.862	15428
912.976	15199
913.09	15154
913.204	15192
913.318	15226
913.431	15408
913.545	15340
913.659	15340
913.772	15165
913.886	14994
914	14975
914.113	15112
914.226	15093
914.34	14975
914.453	14910
914.566	15058
914.68	14868
914.793	14883
914.906	14629
915.019	14670
915.132	14492
915.245	14610
915.358	14636
915.47	14693
915.583	14503
915.696	14606
915.809	14769
915.921	14800
916.034	14571
916.146	14575
916.259	14522
916.371	14606
916.483	14598
916.595	14469
916.708	14465
916.82	14495
916.932	14473
917.044	14450
917.156	14408
917.268	14313
917.38	14343
917.491	14263
917.603	14320
917.715	14438
917.826	14442
917.938	14286
918.049	14275
918.161	14324
918.272	14351
918.384	14385
918.495	14225
918.606	14126
918.717	14073
918.828	14088
918.939	14111
919.05	14035
919.161	14081
919.272	13788
919.383	13967
919.494	14107
919.604	14282
919.715	14119
919.826	13932
919.936	13974
920.047	14103
920.157	14096
920.267	14267
920.378	14016
920.488	14027
920.598	14221
920.708	14336
920.818	14176
920.928	14206
921.038	14298
921.148	14286
921.258	14005
921.368	13963
921.477	13765
921.587	13772
921.697	13723
921.806	13841
921.916	13662
922.025	13529
922.134	13400
922.244	13434
922.353	13460
922.462	13358
922.571	13266
922.68	13095
922.789	13061
922.898	13069
923.007	12932
923.116	13095
923.224	13061
923.333	12966
923.442	12996
923.55	12859
923.659	12897
923.767	13031
923.876	12958
923.984	12993
924.092	12825
924.201	12814
924.309	12802
924.417	12829
924.525	12738
924.633	12798
924.741	13727
924.849	12551
924.956	12779
925.064	12601
925.172	12448
925.279	12441
925.387	12502
925.494	12471
925.602	12650
925.709	12483
925.816	12441
925.924	12448
926.031	12646
926.138	12437
926.245	12521
926.352	12350
926.459	12490
926.566	12536
926.673	12422
926.779	12323
926.886	12311
926.993	12175
927.099	12098
927.206	12060
927.312	12053
927.419	12182
927.525	12102
927.631	12171
927.737	12038
927.843	11969
927.95	11885
928.056	11973
928.162	11958
928.267	11954
928.373	12673
928.479	12041
928.585	11821
928.69	11912
928.796	12011
928.901	11733
929.007	11688
929.112	11893
929.218	11745
929.323	11726
929.428	11718
929.533	11783
929.638	11649
929.743	11657
929.848	11642
929.953	11615
930.058	11585
930.163	11414
930.267	11376
930.372	11486
930.477	11406
930.581	11551
930.685	11440
930.79	11254
930.894	11387
930.998	11269
931.103	11284
931.207	10999
931.311	10946
931.415	10919
931.519	10706
931.623	10672
