Data from test_V78500241_3446.txt Node
Date: Fri Mar 25 15:33:51 CST 2022
User: usil
Spectrometer: V785-0024
Trigger mode: 0
Integration Time (sec): 4.000000E-1
Scans to average: 1
Nonlinearity correction enabled: false
Boxcar width: 0
Storing dark spectrum: false
XAxis mode: Wavelengths
Number of Pixels in Spectrum: 1024
>>>>>Begin Spectral Data<<<<<
801.071	27382
801.214	27233
801.356	26940
801.499	27051
801.641	26883
801.783	26834
801.926	26902
802.068	26891
802.211	26804
802.353	26712
802.496	26499
802.638	26465
802.78	26461
802.923	26355
803.065	26442
803.208	26484
803.35	26545
803.492	26663
803.635	26735
803.777	26480
803.919	26640
804.061	27017
804.204	26777
804.346	26594
804.488	26579
804.63	26518
804.773	26522
804.915	26716
805.057	26739
805.199	26625
805.341	26640
805.483	26640
805.626	26720
805.768	26663
805.91	26739
806.052	26849
806.194	26594
806.336	26883
806.478	26689
806.62	26705
806.762	26994
806.904	26971
807.046	27268
807.188	27169
807.33	27214
807.472	27188
807.614	27093
807.756	27116
807.898	27085
808.04	26811
808.182	26921
808.324	27154
808.465	27074
808.607	27272
808.749	27393
808.891	27408
809.033	27336
809.174	27458
809.316	27378
809.458	27367
809.6	27325
809.741	27420
809.883	27538
810.025	27644
810.166	27587
810.308	27682
810.45	27686
810.591	27580
810.733	27519
810.875	27294
811.016	27077
811.158	27226
811.299	27374
811.441	27488
811.582	27424
811.724	27382
811.865	27397
812.007	27260
812.148	27275
812.29	27374
812.431	27576
812.573	27603
812.714	27755
812.855	27991
812.997	27739
813.138	28162
813.279	27968
813.421	27793
813.562	27732
813.703	27679
813.845	27660
813.986	27329
814.127	27096
814.268	26967
814.41	26933
814.551	26960
814.692	27005
814.833	26971
814.974	26986
815.115	26979
815.256	26948
815.397	26849
815.539	26746
815.68	26792
815.821	26800
815.962	26861
816.103	26849
816.244	26556
816.385	26438
816.526	26457
816.666	26317
816.807	26271
816.948	26415
817.089	26317
817.23	26309
817.371	26149
817.512	26248
817.653	26237
817.793	26161
817.934	26309
818.075	26237
818.216	26301
818.356	26168
818.497	26103
818.638	26100
818.778	25955
818.919	26077
819.06	26027
819.2	26229
819.341	26149
819.481	26267
819.622	26419
819.762	26457
819.903	26507
820.043	26431
820.184	26370
820.324	26301
820.465	26533
820.605	26465
820.746	26355
820.886	26191
821.026	26324
821.167	26237
821.307	26339
821.447	26267
821.588	26282
821.728	25993
821.868	25871
822.008	25693
822.149	25677
822.289	25723
822.429	25434
822.569	25441
822.709	25384
822.849	25156
822.99	25266
823.13	25228
823.27	25156
823.41	24996
823.55	24977
823.69	24954
823.83	25129
823.97	25004
824.11	24909
824.25	24795
824.389	24669
824.529	24954
824.669	24878
824.809	24916
824.949	25038
825.089	24840
825.228	24920
825.368	24730
825.508	24795
825.648	24597
825.787	24635
825.927	24753
826.067	24692
826.206	24688
826.346	24764
826.485	24852
826.625	24749
826.765	24916
826.904	24738
827.044	24601
827.183	24505
827.323	24323
827.462	24479
827.601	24505
827.741	24399
827.88	24513
828.02	24372
828.159	24460
828.298	24532
828.437	24566
828.577	24365
828.716	24502
828.855	24350
828.994	24114
829.134	24083
829.273	24251
829.412	24110
829.551	24133
829.69	24197
829.829	24129
829.968	24285
830.107	24232
830.246	24148
830.385	24201
830.524	24083
830.663	24049
830.802	23912
830.941	23619
831.08	23783
831.219	23939
831.357	23676
831.496	23851
831.635	23786
831.774	23665
831.913	23600
832.051	23520
832.19	23566
832.329	23615
832.467	23429
832.606	23512
832.744	23421
832.883	23356
833.022	23410
833.16	23482
833.299	23592
833.437	23406
833.576	23528
833.714	23528
833.852	23387
833.991	23558
834.129	23596
834.267	23634
834.406	23570
834.544	23528
834.682	23493
834.821	23482
834.959	23695
835.097	23490
835.235	23649
835.373	23360
835.511	23558
835.65	23490
835.788	23398
835.926	23239
836.064	23113
836.202	23200
836.34	23376
836.478	23406
836.615	23337
836.753	23292
836.891	23501
837.029	23429
837.167	23372
837.305	23239
837.443	23250
837.58	23044
837.718	23178
837.856	23220
837.993	23151
838.131	23204
838.269	23098
838.406	23246
838.544	23098
838.681	22854
838.819	22862
838.956	22869
839.094	22645
839.231	22729
839.369	22816
839.506	23086
839.643	22892
839.781	22713
839.918	22599
840.055	22653
840.193	22656
840.33	22725
840.467	22637
840.604	22767
840.742	22877
840.879	22462
841.016	22626
841.153	22485
841.29	22630
841.427	22634
841.564	22687
841.701	22721
841.838	22656
841.975	22550
842.112	22599
842.249	22573
842.385	22280
842.522	22683
842.659	22405
842.796	22356
842.933	22443
843.069	22280
843.206	22314
843.343	22284
843.479	22428
843.616	22341
843.752	22242
843.889	22211
844.025	22268
844.162	22078
844.298	22177
844.435	22124
844.571	22177
844.708	22261
844.844	22249
844.98	22390
845.117	22215
845.253	22109
845.389	21998
845.525	21876
845.661	21991
845.798	21956
845.934	22021
846.07	21854
846.206	21941
846.342	21915
846.478	21941
846.614	21622
846.75	21622
846.886	21671
847.022	21625
847.158	21534
847.294	21675
847.429	21526
847.565	21675
847.701	21812
847.837	21367
847.972	21386
848.108	21359
848.244	21431
848.379	21207
848.515	21211
848.65	21150
848.786	21287
848.921	21264
849.057	21321
849.192	21344
849.328	21222
849.463	21218
849.598	21203
849.734	21146
849.869	21135
850.004	21017
850.14	21100
850.275	21058
850.41	20906
850.545	20963
850.68	21036
850.815	21039
850.95	21036
851.085	21131
851.22	20990
851.355	21077
851.49	21020
851.625	20960
851.76	20941
851.895	20815
852.03	20933
852.165	21070
852.299	21039
852.434	21055
852.569	21081
852.703	21013
852.838	21077
852.973	21108
853.107	21283
853.242	21043
853.376	20769
853.511	20826
853.645	20746
853.78	20948
853.914	20838
854.048	20823
854.183	20731
854.317	20864
854.451	21020
854.585	20648
854.72	20826
854.854	20800
854.988	20731
855.122	20910
855.256	20762
855.39	20788
855.524	20906
855.658	20823
855.792	20929
855.926	20781
856.06	21028
856.194	20800
856.327	20834
856.461	20785
856.595	20796
856.729	20701
856.862	20933
856.996	20876
857.13	20948
857.263	20910
857.397	20883
857.53	20815
857.664	20899
857.797	20777
857.931	20861
858.064	20952
858.197	20910
858.331	20712
858.464	20765
858.597	20807
858.731	20682
858.864	20765
858.997	20621
859.13	20834
859.263	20788
859.396	20952
859.529	20792
859.662	20830
859.795	20727
859.928	20902
860.061	20944
860.194	21070
860.327	20918
860.46	20902
860.592	20880
860.725	21020
860.858	20883
860.99	20781
861.123	20720
861.256	20758
861.388	20720
861.521	21534
861.653	20731
861.786	20629
861.918	20686
862.05	20731
862.183	20648
862.315	20746
862.447	20807
862.58	20754
862.712	20526
862.844	20636
862.976	20800
863.108	20556
863.24	20937
863.372	20423
863.504	20461
863.636	20480
863.768	20663
863.9	20537
864.032	20473
864.164	20568
864.296	20461
864.428	20625
864.559	20549
864.691	20549
864.823	20617
864.954	20473
865.086	20469
865.217	20507
865.349	20282
865.48	20362
865.612	20427
865.743	20587
865.875	20514
866.006	20343
866.137	20389
866.269	20514
866.4	20389
866.531	20408
866.662	20423
866.793	20343
866.924	20404
867.055	20434
867.186	20396
867.317	20324
867.448	20271
867.579	20320
867.71	20286
867.841	20180
867.972	20347
868.103	20351
868.233	20309
868.364	20431
868.495	20480
868.625	20560
868.756	20655
868.886	20609
869.017	20636
869.147	20750
869.278	20788
869.408	20686
869.539	20560
869.669	20663
869.799	20674
869.929	20796
870.06	20636
870.19	21013
870.32	20872
870.45	20853
870.58	21093
870.71	21188
870.84	21135
870.97	21108
871.1	21066
871.23	21020
871.36	21192
871.489	21093
871.619	21184
871.749	21138
871.879	21214
872.008	21310
872.138	21184
872.267	21260
872.397	21112
872.526	20986
872.656	21093
872.785	21119
872.915	21188
873.044	21313
873.173	21226
873.303	21321
873.432	21336
873.561	21416
873.69	21161
873.819	21298
873.948	21454
874.077	21218
874.206	21203
874.335	21272
874.464	21405
874.593	21473
874.722	21363
874.851	21469
874.979	21424
875.108	21606
875.237	21500
875.365	21401
875.494	21504
875.623	21610
875.751	21466
875.88	21545
876.008	21629
876.136	21751
876.265	21937
876.393	21975
876.521	21857
876.65	21918
876.778	21926
876.906	21743
877.034	21854
877.162	21922
877.29	21827
877.418	21793
877.546	21926
877.674	21861
877.802	21922
877.93	21800
878.058	21751
878.185	21751
878.313	21857
878.441	21793
878.568	21614
878.696	21755
878.824	21968
878.951	21766
879.079	22006
879.206	22090
879.333	22025
879.461	21835
879.588	21945
879.715	21941
879.842	22124
879.97	21991
880.097	21656
880.224	21614
880.351	21762
880.478	21610
880.605	21667
880.732	21709
880.859	21793
880.986	21625
881.112	21633
881.239	21545
881.366	21447
881.493	21332
881.619	21199
881.746	21363
881.872	21226
881.999	21161
882.125	21264
882.252	21214
882.378	21131
882.505	21325
882.631	21112
882.757	20948
882.883	21032
883.01	20868
883.136	20921
883.262	20655
883.388	20800
883.514	20956
883.64	20956
883.766	20861
883.892	20724
884.018	20861
884.143	20861
884.269	21051
884.395	20621
884.52	20678
884.646	20575
884.772	20454
884.897	20408
885.023	20773
885.148	20568
885.274	20807
885.399	20659
885.524	20560
885.65	20492
885.775	20644
885.9	20590
886.025	20636
886.15	20648
886.275	20533
886.4	20621
886.525	20571
886.65	20495
886.775	20522
886.9	20602
887.025	20891
887.149	20442
887.274	20366
887.399	20339
887.523	20396
887.648	20278
887.773	20237
887.897	20438
888.021	20511
888.146	20355
888.27	20362
888.395	20473
888.519	20400
888.643	20366
888.767	20358
888.891	20237
889.015	20256
889.139	20202
889.263	20252
889.387	20484
889.511	20400
889.635	20442
889.759	20142
889.883	20100
890.006	20149
890.13	20107
890.254	20126
890.377	20145
890.501	19967
890.624	19875
890.748	19921
890.871	19845
890.995	19807
891.118	19681
891.241	19833
891.364	19719
891.488	19742
891.611	19830
891.734	19871
891.857	19742
891.98	19849
892.103	19841
892.226	19723
892.349	19738
892.471	19578
892.594	19647
892.717	19616
892.839	19544
892.962	19605
893.085	19628
893.207	19674
893.33	19567
893.452	19620
893.575	19689
893.697	19639
893.819	19742
893.941	19871
894.064	19753
894.186	19674
894.308	19548
894.43	19803
894.552	19795
894.674	19791
894.796	19529
894.918	19689
895.04	19620
895.161	19712
895.283	19765
895.405	19647
895.526	19674
895.648	19772
895.769	19613
895.891	19750
896.012	19750
896.134	19776
896.255	19666
896.376	19552
896.498	19693
896.619	19708
896.74	19693
896.861	19769
896.982	20046
897.103	20092
897.224	20001
897.345	19978
897.466	19803
897.587	19902
897.708	19940
897.828	19902
897.949	19841
898.07	19811
898.19	19849
898.311	20012
898.431	19959
898.552	19715
898.672	19947
898.792	20024
898.913	19890
899.033	19734
899.153	19772
899.273	19643
899.393	19719
899.513	19742
899.633	19700
899.753	19647
899.873	19620
899.993	19715
900.113	19655
900.232	19712
900.352	19578
900.472	19483
900.591	19403
900.711	19422
900.83	19324
900.95	19567
901.069	19472
901.189	19320
901.308	19179
901.427	18947
901.546	19004
901.665	19042
901.784	19019
901.904	18916
902.023	18738
902.141	18658
902.26	18574
902.379	18597
902.498	18540
902.617	18521
902.735	18513
902.854	18437
902.973	18384
903.091	18182
903.21	18235
903.328	18262
903.446	18053
903.565	18019
903.683	18041
903.801	17946
903.919	18057
904.038	17942
904.156	17726
904.274	17843
904.392	17771
904.51	17729
904.627	17950
904.745	17745
904.863	17882
904.981	17543
905.098	17596
905.216	17608
905.334	17505
905.451	17410
905.569	17425
905.686	17387
905.803	17440
905.921	17197
906.038	17315
906.155	17280
906.272	17143
906.389	17147
906.506	16987
906.623	17079
906.74	17071
906.857	16801
906.974	16877
907.091	17048
907.208	17147
907.324	17052
907.441	16953
907.557	16683
907.674	16687
907.79	16592
907.907	16660
908.023	16748
908.139	16702
908.256	16687
908.372	16577
908.488	16691
908.604	16569
908.72	16470
908.836	16519
908.952	16504
909.068	16424
909.184	16470
909.3	16405
909.415	16508
909.531	16398
909.647	16185
909.762	16154
909.878	16048
909.993	16169
910.108	16116
910.224	16124
910.339	16120
910.454	16036
910.57	15941
910.685	16029
910.8	16166
910.915	16112
911.03	15960
911.145	15804
911.259	15781
911.374	15781
911.489	15705
911.604	15671
911.718	15481
911.833	15519
911.947	15454
912.062	15363
912.176	15530
912.291	15538
912.405	15450
912.519	15679
912.633	15724
912.748	15584
912.862	15485
912.976	15306
913.09	15188
913.204	15359
913.318	15336
913.431	15454
913.545	15450
913.659	15450
913.772	15412
913.886	15146
914	15070
914.113	15127
914.226	15317
914.34	15157
914.453	15028
914.566	15173
914.68	14994
914.793	14986
914.906	14762
915.019	14750
915.132	14708
915.245	14750
915.358	14735
915.47	14773
915.583	14762
915.696	14830
915.809	14853
915.921	14769
916.034	14743
916.146	14689
916.259	14663
916.371	14727
916.483	14735
916.595	14556
916.708	14629
916.82	14511
916.932	14530
917.044	14522
917.156	14518
917.268	14396
917.38	14450
917.491	14514
917.603	14374
917.715	14522
917.826	14495
917.938	14370
918.049	14286
918.161	14465
918.272	14514
918.384	14450
918.495	14347
918.606	14202
918.717	14096
918.828	14278
918.939	14103
919.05	14039
919.161	14161
919.272	13989
919.383	14077
919.494	14225
919.604	14385
919.715	14206
919.826	13993
919.936	14153
920.047	14324
920.157	14176
920.267	14412
920.378	14172
920.488	14248
920.598	14347
920.708	14469
920.818	14351
920.928	14298
921.038	14511
921.148	14408
921.258	14084
921.368	13982
921.477	13913
921.587	13944
921.697	13734
921.806	13868
921.916	13772
922.025	13647
922.134	13662
922.244	13468
922.353	13559
922.462	13472
922.571	13430
922.68	13263
922.789	13141
922.898	13236
923.007	13164
923.116	13236
923.224	13198
923.333	13297
923.442	13122
923.55	13023
923.659	13015
923.767	13053
923.876	12973
923.984	13042
924.092	12886
924.201	13031
924.309	13015
924.417	12966
924.525	12871
924.633	12867
924.741	13822
924.849	12658
924.956	12848
925.064	12726
925.172	12593
925.279	12612
925.387	12597
925.494	12662
925.602	12772
925.709	12642
925.816	12498
925.924	12604
926.031	12677
926.138	12631
926.245	12604
926.352	12509
926.459	12601
926.566	12719
926.673	12471
926.779	12369
926.886	12361
926.993	12205
927.099	12254
927.206	12190
927.312	12045
927.419	12266
927.525	12148
927.631	12220
927.737	12117
927.843	12045
927.95	11988
928.056	11999
928.162	12038
928.267	12072
928.373	12604
928.479	12049
928.585	11901
928.69	12034
928.796	12091
928.901	11912
929.007	11771
929.112	11920
929.218	11920
929.323	11764
929.428	11783
929.533	11935
929.638	11760
929.743	11741
929.848	11726
929.953	11798
930.058	11596
930.163	11490
930.267	11440
930.372	11649
930.477	11482
930.581	11680
930.685	11497
930.79	11341
930.894	11334
930.998	11356
931.103	11452
931.207	11094
931.311	11037
931.415	10949
931.519	10744
931.623	10687
