Data from test_V78500241_3393.txt Node
Date: Fri Mar 25 15:33:29 CST 2022
User: usil
Spectrometer: V785-0024
Trigger mode: 0
Integration Time (sec): 4.000000E-1
Scans to average: 1
Nonlinearity correction enabled: false
Boxcar width: 0
Storing dark spectrum: false
XAxis mode: Wavelengths
Number of Pixels in Spectrum: 1024
>>>>>Begin Spectral Data<<<<<
801.071	27272
801.214	27123
801.356	26998
801.499	26807
801.641	26785
801.783	26651
801.926	26861
802.068	26689
802.211	26739
802.353	26636
802.496	26450
802.638	26461
802.78	26377
802.923	26278
803.065	26282
803.208	26328
803.35	26393
803.492	26522
803.635	26629
803.777	26480
803.919	26507
804.061	26906
804.204	26697
804.346	26488
804.488	26434
804.63	26522
804.773	26465
804.915	26495
805.057	26556
805.199	26564
805.341	26530
805.483	26697
805.626	26655
805.768	26522
805.91	26651
806.052	26777
806.194	26678
806.336	26689
806.478	26697
806.62	26609
806.762	26743
806.904	26906
807.046	27119
807.188	27123
807.33	27100
807.472	27104
807.614	26952
807.756	26902
807.898	26853
808.04	27032
808.182	26944
808.324	26994
808.465	27051
808.607	27005
808.749	27252
808.891	27393
809.033	27530
809.174	27256
809.316	27310
809.458	27214
809.6	27203
809.741	27408
809.883	27313
810.025	27447
810.166	27564
810.308	27515
810.45	27435
810.591	27370
810.733	27272
810.875	27302
811.016	27199
811.158	27173
811.299	27298
811.441	27291
811.582	27412
811.724	27233
811.865	27214
812.007	27150
812.148	27192
812.29	27359
812.431	27450
812.573	27378
812.714	27629
812.855	27728
812.997	27857
813.138	27873
813.279	27869
813.421	27705
813.562	27759
813.703	27633
813.845	27496
813.986	27081
814.127	27051
814.268	26830
814.41	27024
814.551	26899
814.692	26952
814.833	26834
814.974	26735
815.115	27119
815.256	26765
815.397	26842
815.539	26914
815.68	26705
815.821	26667
815.962	26724
816.103	26743
816.244	26564
816.385	26602
816.526	26514
816.666	26172
816.807	26100
816.948	26267
817.089	26115
817.23	26267
817.371	26142
817.512	26138
817.653	26218
817.793	26088
817.934	26199
818.075	26138
818.216	26119
818.356	26115
818.497	26039
818.638	25966
818.778	25993
818.919	25928
819.06	25947
819.2	26077
819.341	26317
819.481	26058
819.622	26320
819.762	26606
819.903	26282
820.043	26309
820.184	26446
820.324	26225
820.465	26298
820.605	26362
820.746	26336
820.886	26103
821.026	26271
821.167	26111
821.307	26187
821.447	26157
821.588	26126
821.728	25913
821.868	25765
822.008	25639
822.149	25727
822.289	25655
822.429	25377
822.569	25263
822.709	25236
822.849	25091
822.99	25034
823.13	25126
823.27	25148
823.41	24924
823.55	24814
823.69	24928
823.83	24958
823.97	24848
824.11	24700
824.25	24673
824.389	24757
824.529	24692
824.669	24848
824.809	24840
824.949	24928
825.089	24814
825.228	24814
825.368	24673
825.508	24707
825.648	24684
825.787	24604
825.927	24745
826.067	24658
826.206	24639
826.346	24707
826.485	24730
826.625	24635
826.765	24738
826.904	24730
827.044	24486
827.183	24471
827.323	24369
827.462	24342
827.601	24369
827.741	24258
827.88	24357
828.02	24277
828.159	24407
828.298	24452
828.437	24395
828.577	24330
828.716	24486
828.855	24304
828.994	24079
829.134	24022
829.273	24072
829.412	24060
829.551	23908
829.69	24026
829.829	23999
829.968	24057
830.107	24140
830.246	24053
830.385	24022
830.524	23977
830.663	23824
830.802	23779
830.941	23596
831.08	23882
831.219	23897
831.357	23847
831.496	23920
831.635	23859
831.774	23608
831.913	23474
832.051	23440
832.19	23436
832.329	23589
832.467	23372
832.606	23372
832.744	23353
832.883	23337
833.022	23311
833.16	23402
833.299	23376
833.437	23356
833.576	23543
833.714	23410
833.852	23539
833.991	23490
834.129	23516
834.267	23486
834.406	23395
834.544	23520
834.682	23414
834.821	23440
834.959	23592
835.097	23398
835.235	23467
835.373	23429
835.511	23497
835.65	23318
835.788	23269
835.926	23292
836.064	23170
836.202	23117
836.34	23208
836.478	23258
836.615	23296
836.753	23383
836.891	23288
837.029	23376
837.167	23246
837.305	23216
837.443	23307
837.58	23117
837.718	23208
837.856	23140
837.993	22934
838.131	23216
838.269	22965
838.406	23086
838.544	22987
838.681	22812
838.819	22812
838.956	22512
839.094	22611
839.231	22569
839.369	22713
839.506	23102
839.643	22934
839.781	22580
839.918	22637
840.055	22641
840.193	22645
840.33	22664
840.467	22508
840.604	22637
840.742	22816
840.879	22447
841.016	22489
841.153	22402
841.29	22493
841.427	22580
841.564	22561
841.701	22466
841.838	22577
841.975	22466
842.112	22584
842.249	22169
842.385	22303
842.522	22615
842.659	22390
842.796	22226
842.933	22436
843.069	22188
843.206	22177
843.343	22390
843.479	22219
843.616	22196
843.752	22109
843.889	22078
844.025	22341
844.162	22090
844.298	22253
844.435	21979
844.571	22139
844.708	22173
844.844	22223
844.98	22344
845.117	22177
845.253	22082
845.389	21994
845.525	21994
845.661	22040
845.798	21869
845.934	21857
846.07	21759
846.206	21850
846.342	21884
846.478	21850
846.614	21648
846.75	21530
846.886	21629
847.022	21682
847.158	21504
847.294	21580
847.429	21648
847.565	21625
847.701	21835
847.837	21355
847.972	21291
848.108	21302
848.244	21355
848.379	21199
848.515	21131
848.65	21157
848.786	21093
848.921	21100
849.057	21268
849.192	21233
849.328	21268
849.463	21268
849.598	21138
849.734	21013
849.869	21142
850.004	21009
850.14	21123
850.275	21024
850.41	20842
850.545	20883
850.68	20807
850.815	21009
850.95	20910
851.085	21100
851.22	21024
851.355	20914
851.49	20864
851.625	20929
851.76	20868
851.895	20815
852.03	20826
852.165	20914
852.299	21096
852.434	20933
852.569	20883
852.703	20857
852.838	21017
852.973	21135
853.107	21039
853.242	20853
853.376	20796
853.511	20537
853.645	20762
853.78	20834
853.914	20773
854.048	20815
854.183	20727
854.317	20849
854.451	21013
854.585	20792
854.72	20899
854.854	20861
854.988	20781
855.122	20735
855.256	20750
855.39	20727
855.524	20899
855.658	20830
855.792	20804
855.926	20887
856.06	20796
856.194	20853
856.327	20720
856.461	20651
856.595	20674
856.729	20693
856.862	20880
856.996	20708
857.13	20830
857.263	20746
857.397	20891
857.53	20754
857.664	20864
857.797	20743
857.931	20880
858.064	20906
858.197	20796
858.331	20731
858.464	20735
858.597	20617
858.731	20659
858.864	20720
858.997	20689
859.13	20640
859.263	20617
859.396	20834
859.529	20815
859.662	20682
859.795	20705
859.928	20727
860.061	20914
860.194	20861
860.327	20720
860.46	20800
860.592	20857
860.725	20948
860.858	20762
860.99	20705
861.123	20663
861.256	20670
861.388	20796
861.521	21454
861.653	20613
861.786	20533
861.918	20636
862.05	20644
862.183	20640
862.315	20701
862.447	20739
862.58	20644
862.712	20518
862.844	20404
862.976	20564
863.108	20568
863.24	20804
863.372	20442
863.504	20450
863.636	20499
863.768	20545
863.9	20473
864.032	20320
864.164	20530
864.296	20640
864.428	20552
864.559	20545
864.691	20549
864.823	20484
864.954	20381
865.086	20351
865.217	20408
865.349	20305
865.48	20415
865.612	20343
865.743	20454
865.875	20328
866.006	20339
866.137	20427
866.269	20313
866.4	20347
866.531	20351
866.662	20237
866.793	20328
866.924	20282
867.055	20336
867.186	20267
867.317	20309
867.448	20191
867.579	20237
867.71	20271
867.841	20153
867.972	20351
868.103	20332
868.233	20294
868.364	20381
868.495	20374
868.625	20602
868.756	20701
868.886	20476
869.017	20511
869.147	20617
869.278	20663
869.408	20541
869.539	20575
869.669	20575
869.799	20564
869.929	20777
870.06	20686
870.19	20933
870.32	20785
870.45	20880
870.58	21047
870.71	21036
870.84	21104
870.97	21024
871.1	20880
871.23	21135
871.36	21184
871.489	21096
871.619	21127
871.749	21154
871.879	21131
872.008	21184
872.138	21135
872.267	21180
872.397	20998
872.526	20952
872.656	20914
872.785	21081
872.915	21256
873.044	21256
873.173	21211
873.303	21233
873.432	21249
873.561	21214
873.69	21230
873.819	21211
873.948	21317
874.077	21180
874.206	21131
874.335	21142
874.464	21348
874.593	21477
874.722	21428
874.851	21466
874.979	21477
875.108	21473
875.237	21405
875.365	21287
875.494	21359
875.623	21500
875.751	21355
875.88	21443
876.008	21542
876.136	21622
876.265	21880
876.393	21907
876.521	21819
876.65	21857
876.778	21873
876.906	21778
877.034	21778
877.162	21835
877.29	21686
877.418	21800
877.546	21675
877.674	21785
877.802	21857
877.93	21759
878.058	21728
878.185	21614
878.313	21762
878.441	21641
878.568	21580
878.696	21679
878.824	21739
878.951	21983
879.079	21892
879.206	22032
879.333	21838
879.461	21766
879.588	21895
879.715	21998
879.842	22055
879.97	21937
880.097	21641
880.224	21652
880.351	21648
880.478	21564
880.605	21625
880.732	21774
880.859	21911
880.986	21671
881.112	21774
881.239	21587
881.366	21424
881.493	21363
881.619	21237
881.746	21218
881.872	21195
881.999	21146
882.125	21123
882.252	21150
882.378	21211
882.505	21416
882.631	20982
882.757	20883
882.883	20982
883.01	21009
883.136	20861
883.262	20792
883.388	20632
883.514	20914
883.64	20994
883.766	20895
883.892	20667
884.018	20743
884.143	20739
884.269	21005
884.395	20682
884.52	20568
884.646	20613
884.772	20511
884.897	20575
885.023	20526
885.148	20606
885.274	20667
885.399	20629
885.524	20556
885.65	20469
885.775	20568
885.9	20473
886.025	20678
886.15	20678
886.275	20571
886.4	20415
886.525	20476
886.65	20530
886.775	20507
886.9	20750
887.025	20796
887.149	20560
887.274	20351
887.399	20317
887.523	20412
887.648	20191
887.773	20275
887.897	20240
888.021	20374
888.146	20229
888.27	20427
888.395	20450
888.519	20389
888.643	20366
888.767	20431
888.891	20313
889.015	20130
889.139	20240
889.263	20126
889.387	20225
889.511	20423
889.635	20305
889.759	20206
889.883	20130
890.006	20168
890.13	20157
890.254	20103
890.377	20039
890.501	19978
890.624	19803
890.748	19921
890.871	19780
890.995	19727
891.118	19719
891.241	19811
891.364	19723
891.488	19887
891.611	19643
891.734	19712
891.857	19761
891.98	19712
892.103	19769
892.226	19742
892.349	19651
892.471	19480
892.594	19620
892.717	19685
892.839	19643
892.962	19674
893.085	19601
893.207	19704
893.33	19518
893.452	19495
893.575	19556
893.697	19651
893.819	19765
893.941	19795
894.064	19772
894.186	19590
894.308	19624
894.43	19708
894.552	19807
894.674	19723
894.796	19525
894.918	19460
895.04	19590
895.161	19681
895.283	19746
895.405	19559
895.526	19613
895.648	19712
895.769	19628
895.891	19761
896.012	19769
896.134	19780
896.255	19609
896.376	19518
896.498	19594
896.619	19712
896.74	19689
896.861	19635
896.982	19955
897.103	19986
897.224	20020
897.345	19761
897.466	19807
897.587	19925
897.708	20035
897.828	19890
897.949	19715
898.07	19655
898.19	19795
898.311	19906
898.431	19795
898.552	19959
898.672	19951
898.792	19902
898.913	19898
899.033	19856
899.153	19548
899.273	19620
899.393	19693
899.513	19647
899.633	19601
899.753	19647
899.873	19521
899.993	19613
900.113	19544
900.232	19601
900.352	19559
900.472	19403
900.591	19266
900.711	19483
900.83	19388
900.95	19464
901.069	19571
901.189	19388
901.308	19129
901.427	18935
901.546	19031
901.665	19015
901.784	18973
901.904	18833
902.023	18932
902.141	18673
902.26	18490
902.379	18585
902.498	18540
902.617	18517
902.735	18532
902.854	18437
902.973	18464
903.091	18205
903.21	18285
903.328	18121
903.446	18148
903.565	17939
903.683	18079
903.801	17958
903.919	17935
904.038	17912
904.156	17802
904.274	17878
904.392	17764
904.51	17726
904.627	17707
904.745	17802
904.863	17764
904.981	17524
905.098	17463
905.216	17455
905.334	17429
905.451	17406
905.569	17379
905.686	17509
905.803	17512
905.921	17170
906.038	17414
906.155	17235
906.272	17193
906.389	17162
906.506	16934
906.623	17025
906.74	16968
906.857	16828
906.974	16919
907.091	16957
907.208	17006
907.324	17045
907.441	16908
907.557	16866
907.674	16713
907.79	16713
907.907	16607
908.023	16774
908.139	16755
908.256	16626
908.372	16599
908.488	16512
908.604	16554
908.72	16375
908.836	16466
908.952	16413
909.068	16459
909.184	16519
909.3	16432
909.415	16379
909.531	16348
909.647	16112
909.762	16158
909.878	16067
909.993	16124
910.108	16051
910.224	16139
910.339	16002
910.454	16013
910.57	15934
910.685	15911
910.8	16162
910.915	16120
911.03	15926
911.145	15857
911.259	15800
911.374	15804
911.489	15682
911.604	15637
911.718	15561
911.833	15504
911.947	15370
912.062	15306
912.176	15511
912.291	15530
912.405	15416
912.519	15587
912.633	15614
912.748	15603
912.862	15473
912.976	15321
913.09	15169
913.204	15222
913.318	15302
913.431	15325
913.545	15382
913.659	15447
913.772	15344
913.886	15214
914	15199
914.113	15173
914.226	15184
914.34	15173
914.453	15043
914.566	15100
914.68	14979
914.793	14918
914.906	14807
915.019	14731
915.132	14689
915.245	14731
915.358	14781
915.47	14712
915.583	14819
915.696	14804
915.809	14769
915.921	14861
916.034	14743
916.146	14655
916.259	14549
916.371	14705
916.483	14705
916.595	14579
916.708	14640
916.82	14560
916.932	14629
917.044	14518
917.156	14476
917.268	14339
917.38	14499
917.491	14396
917.603	14400
917.715	14446
917.826	14526
917.938	14408
918.049	14233
918.161	14298
918.272	14549
918.384	14499
918.495	14298
918.606	14271
918.717	14100
918.828	14199
918.939	14244
919.05	14115
919.161	14149
919.272	13928
919.383	14031
919.494	14126
919.604	14408
919.715	14123
919.826	13967
919.936	14043
920.047	14240
920.157	14168
920.267	14278
920.378	14263
920.488	14119
920.598	14282
920.708	14419
920.818	14275
920.928	14157
921.038	14431
921.148	14343
921.258	14088
921.368	14005
921.477	13845
921.587	13871
921.697	13731
921.806	13818
921.916	13746
922.025	13590
922.134	13552
922.244	13487
922.353	13559
922.462	13453
922.571	13358
922.68	13206
922.789	13145
922.898	13206
923.007	13187
923.116	13126
923.224	13187
923.333	13129
923.442	13061
923.55	12993
923.659	13084
923.767	13076
923.876	12909
923.984	13023
924.092	12924
924.201	13008
924.309	12973
924.417	12928
924.525	12817
924.633	12821
924.741	13784
924.849	12669
924.956	12810
925.064	12662
925.172	12608
925.279	12585
925.387	12684
925.494	12635
925.602	12715
925.709	12612
925.816	12475
925.924	12506
926.031	12635
926.138	12627
926.245	12540
926.352	12464
926.459	12658
926.566	12604
926.673	12517
926.779	12475
926.886	12380
926.993	12292
927.099	12262
927.206	12133
927.312	12148
927.419	12213
927.525	12247
927.631	12209
927.737	12083
927.843	11992
927.95	11946
928.056	11999
928.162	12083
928.267	12136
928.373	12604
928.479	12106
928.585	11821
928.69	11904
928.796	12041
928.901	11828
929.007	11824
929.112	11866
929.218	11863
929.323	11722
929.428	11726
929.533	11832
929.638	11741
929.743	11676
929.848	11737
929.953	11646
930.058	11604
930.163	11490
930.267	11520
930.372	11566
930.477	11448
930.581	11627
930.685	11509
930.79	11292
930.894	11417
930.998	11360
931.103	11493
931.207	11045
931.311	11064
931.415	10927
931.519	10755
931.623	10668
