Data from test_V78500241_1870.txt Node
Date: Fri Mar 25 15:22:52 CST 2022
User: usil
Spectrometer: V785-0024
Trigger mode: 0
Integration Time (sec): 4.000000E-1
Scans to average: 1
Nonlinearity correction enabled: false
Boxcar width: 0
Storing dark spectrum: false
XAxis mode: Wavelengths
Number of Pixels in Spectrum: 1024
>>>>>Begin Spectral Data<<<<<
801.071	28032
801.214	27823
801.356	27530
801.499	27511
801.641	27454
801.783	27389
801.926	27420
802.068	27237
802.211	27279
802.353	27207
802.496	27127
802.638	27047
802.78	27039
802.923	27017
803.065	26906
803.208	26960
803.35	27020
803.492	27237
803.635	27214
803.777	27039
803.919	27313
804.061	27405
804.204	27287
804.346	27268
804.488	27100
804.63	27184
804.773	27108
804.915	27233
805.057	27275
805.199	27226
805.341	27340
805.483	27431
805.626	27424
805.768	27184
805.91	27272
806.052	27291
806.194	27287
806.336	27374
806.478	27260
806.62	27363
806.762	27443
806.904	27652
807.046	27949
807.188	27850
807.33	27667
807.472	27831
807.614	27667
807.756	27747
807.898	27542
808.04	27587
808.182	27629
808.324	27553
808.465	27736
808.607	27835
808.749	27937
808.891	28021
809.033	28070
809.174	28078
809.316	27949
809.458	27968
809.6	28029
809.741	28086
809.883	28032
810.025	28253
810.166	28238
810.308	28303
810.45	28268
810.591	28249
810.733	27960
810.875	27926
811.016	27949
811.158	27914
811.299	28063
811.441	28204
811.582	28063
811.724	27873
811.865	27876
812.007	28010
812.148	27968
812.29	28128
812.431	28226
812.573	28280
812.714	28363
812.855	28459
812.997	28577
813.138	28713
813.279	28649
813.421	28382
813.562	28440
813.703	28421
813.845	28150
813.986	28040
814.127	27785
814.268	27538
814.41	27675
814.551	27606
814.692	27732
814.833	27587
814.974	27667
815.115	27633
815.256	27545
815.397	27492
815.539	27603
815.68	27443
815.821	27336
815.962	27439
816.103	27420
816.244	27272
816.385	27214
816.526	27230
816.666	27039
816.807	26762
816.948	27055
817.089	27112
817.23	26944
817.371	26933
817.512	26952
817.653	27013
817.793	26895
817.934	26918
818.075	26967
818.216	26853
818.356	26899
818.497	26781
818.638	26606
818.778	26792
818.919	26739
819.06	26769
819.2	26857
819.341	27039
819.481	27001
819.622	27108
819.762	27264
819.903	27260
820.043	27089
820.184	27252
820.324	26990
820.465	27176
820.605	27108
820.746	27005
820.886	26876
821.026	26975
821.167	27093
821.307	27169
821.447	26899
821.588	26880
821.728	26765
821.868	26556
822.008	26282
822.149	26385
822.289	26484
822.429	26240
822.569	26096
822.709	26153
822.849	26111
822.99	25959
823.13	25894
823.27	25883
823.41	25807
823.55	25757
823.69	25822
823.83	25712
823.97	25750
824.11	25529
824.25	25537
824.389	25651
824.529	25742
824.669	25578
824.809	25540
824.949	25521
825.089	25727
825.228	25696
825.368	25362
825.508	25487
825.648	25415
825.787	25430
825.927	25567
826.067	25320
826.206	25552
826.346	25369
826.485	25483
826.625	25460
826.765	25540
826.904	25499
827.044	25179
827.183	25110
827.323	25053
827.462	25270
827.601	25076
827.741	25217
827.88	25240
828.02	25107
828.159	25076
828.298	25289
828.437	25278
828.577	25206
828.716	25198
828.855	25080
828.994	25031
829.134	24882
829.273	24825
829.412	24840
829.551	24810
829.69	24802
829.829	24905
829.968	24985
830.107	24920
830.246	24791
830.385	24852
830.524	24798
830.663	24654
830.802	24585
830.941	24502
831.08	24445
831.219	24597
831.357	24509
831.496	24734
831.635	24517
831.774	24414
831.913	24429
832.051	24342
832.19	24315
832.329	24292
832.467	24144
832.606	24053
832.744	24155
832.883	24163
833.022	24235
833.16	24277
833.299	24254
833.437	24091
833.576	24289
833.714	24228
833.852	24452
833.991	24201
834.129	24277
834.267	24391
834.406	24239
834.544	24300
834.682	24201
834.821	24190
834.959	24323
835.097	24209
835.235	24201
835.373	24178
835.511	24224
835.65	24117
835.788	24098
835.926	24140
836.064	23946
836.202	23984
836.34	24034
836.478	24068
836.615	24038
836.753	24106
836.891	24232
837.029	24011
837.167	23961
837.305	24049
837.443	23901
837.58	23885
837.718	24030
837.856	24007
837.993	23855
838.131	23927
838.269	23718
838.406	23920
838.544	23729
838.681	23615
838.819	23638
838.956	23330
839.094	23395
839.231	23410
839.369	23562
839.506	23710
839.643	23577
839.781	23395
839.918	23322
840.055	23303
840.193	23376
840.33	23239
840.467	23376
840.604	23417
840.742	23623
840.879	23174
841.016	23330
841.153	23155
841.29	23421
841.427	23372
841.564	23360
841.701	23261
841.838	23303
841.975	23193
842.112	23273
842.249	23048
842.385	23064
842.522	23284
842.659	23064
842.796	23079
842.933	23113
843.069	22934
843.206	23086
843.343	23117
843.479	23022
843.616	23044
843.752	22892
843.889	22949
844.025	22953
844.162	22831
844.298	23003
844.435	22869
844.571	22831
844.708	22877
844.844	23162
844.98	23022
845.117	23105
845.253	22786
845.389	22698
845.525	22790
845.661	22687
845.798	22500
845.934	22531
846.07	22546
846.206	22584
846.342	22706
846.478	22596
846.614	22303
846.75	22162
846.886	22253
847.022	22352
847.158	22367
847.294	22417
847.429	22379
847.565	22291
847.701	22512
847.837	22044
847.972	22048
848.108	22082
848.244	22166
848.379	21968
848.515	21956
848.65	21895
848.786	21949
848.921	21972
849.057	22090
849.192	21937
849.328	22002
849.463	21983
849.598	21812
849.734	21892
849.869	21705
850.004	21652
850.14	21694
850.275	21606
850.41	21561
850.545	21526
850.68	21625
850.815	21667
850.95	21618
851.085	21785
851.22	21770
851.355	21637
851.49	21629
851.625	21561
851.76	21549
851.895	21614
852.03	21553
852.165	21671
852.299	21660
852.434	21720
852.569	21755
852.703	21652
852.838	21800
852.973	21724
853.107	21781
853.242	21526
853.376	21583
853.511	21302
853.645	21405
853.78	21504
853.914	21526
854.048	21523
854.183	21515
854.317	21648
854.451	21614
854.585	21458
854.72	21583
854.854	21580
854.988	21462
855.122	21412
855.256	21431
855.39	21523
855.524	21622
855.658	21447
855.792	21519
855.926	21473
856.06	21614
856.194	21591
856.327	21439
856.461	21382
856.595	21428
856.729	21401
856.862	21625
856.996	21500
857.13	21637
857.263	21477
857.397	21447
857.53	21447
857.664	21507
857.797	21644
857.931	21564
858.064	21496
858.197	21755
858.331	21568
858.464	21294
858.597	21412
858.731	21504
858.864	21412
858.997	21393
859.13	21534
859.263	21511
859.396	21595
859.529	21507
859.662	21462
859.795	21561
859.928	21401
860.061	21549
860.194	21629
860.327	21564
860.46	21580
860.592	21599
860.725	21663
860.858	21572
860.99	21637
861.123	21431
861.256	21386
861.388	21507
861.521	22276
861.653	21374
861.786	21230
861.918	21275
862.05	21408
862.183	21386
862.315	21424
862.447	21523
862.58	21443
862.712	21313
862.844	21180
862.976	21294
863.108	21173
863.24	21564
863.372	21317
863.504	21161
863.636	21123
863.768	21188
863.9	21135
864.032	21112
864.164	21268
864.296	21203
864.428	21226
864.559	21283
864.691	21203
864.823	21161
864.954	21233
865.086	21237
865.217	21089
865.349	21077
865.48	20952
865.612	21043
865.743	21283
865.875	21218
866.006	21001
866.137	21013
866.269	20986
866.4	21157
866.531	20971
866.662	21043
866.793	21062
866.924	20990
867.055	21024
867.186	21020
867.317	20986
867.448	20960
867.579	21009
867.71	20826
867.841	20948
867.972	21131
868.103	21062
868.233	20994
868.364	21077
868.495	21085
868.625	21317
868.756	21294
868.886	21154
869.017	21192
869.147	21351
869.278	21420
869.408	21378
869.539	21272
869.669	21241
869.799	21317
869.929	21321
870.06	21306
870.19	21561
870.32	21542
870.45	21671
870.58	21648
870.71	21766
870.84	21705
870.97	21705
871.1	21679
871.23	21819
871.36	21869
871.489	21934
871.619	21701
871.749	21781
871.879	21888
872.008	21994
872.138	21918
872.267	21907
872.397	21728
872.526	21679
872.656	21637
872.785	21732
872.915	21926
873.044	21880
873.173	21922
873.303	22090
873.432	22090
873.561	21968
873.69	21854
873.819	21850
873.948	21972
874.077	21930
874.206	21736
874.335	21766
874.464	21994
874.593	22112
874.722	21937
874.851	22120
874.979	22040
875.108	22169
875.237	22112
875.365	22143
875.494	22078
875.623	22124
875.751	22120
875.88	22040
876.008	22150
876.136	22299
876.265	22523
876.393	22607
876.521	22596
876.65	22622
876.778	22561
876.906	22500
877.034	22462
877.162	22436
877.29	22318
877.418	22375
877.546	22341
877.674	22519
877.802	22428
877.93	22375
878.058	22424
878.185	22295
878.313	22360
878.441	22386
878.568	22166
878.696	22265
878.824	22516
878.951	22527
879.079	22755
879.206	22717
879.333	22683
879.461	22497
879.588	22569
879.715	22603
879.842	22687
879.97	22538
880.097	22276
880.224	22246
880.351	22268
880.478	22215
880.605	22310
880.732	22211
880.859	22451
880.986	22268
881.112	22166
881.239	22051
881.366	22017
881.493	21934
881.619	21880
881.746	21949
881.872	21793
881.999	21892
882.125	21739
882.252	21876
882.378	21785
882.505	21934
882.631	21606
882.757	21648
882.883	21599
883.01	21496
883.136	21523
883.262	21344
883.388	21485
883.514	21485
883.64	21481
883.766	21382
883.892	21256
884.018	21340
884.143	21648
884.269	21618
884.395	21230
884.52	21058
884.646	21157
884.772	21104
884.897	21173
885.023	21180
885.148	21268
885.274	21275
885.399	21154
885.524	21146
885.65	21135
885.775	21249
885.9	21104
886.025	21359
886.15	21199
886.275	21127
886.4	21062
886.525	21108
886.65	21146
886.775	21123
886.9	21268
887.025	21340
887.149	21218
887.274	21043
887.399	21024
887.523	21100
887.648	20902
887.773	20883
887.897	21017
888.021	21074
888.146	20925
888.27	21116
888.395	21093
888.519	21051
888.643	20982
888.767	20982
888.891	20788
889.015	20720
889.139	20788
889.263	20708
889.387	20944
889.511	20994
889.635	20998
889.759	20788
889.883	20678
890.006	20731
890.13	20758
890.254	20629
890.377	20659
890.501	20549
890.624	20442
890.748	20587
890.871	20351
890.995	20271
891.118	20168
891.241	20290
891.364	20263
891.488	20358
891.611	20244
891.734	20286
891.857	20389
891.98	20339
892.103	20404
892.226	20351
892.349	20275
892.471	20111
892.594	20256
892.717	20252
892.839	20062
892.962	20252
893.085	20351
893.207	20134
893.33	20138
893.452	20024
893.575	20233
893.697	20240
893.819	20412
893.941	20579
894.064	20309
894.186	20172
894.308	20119
894.43	20328
894.552	20305
894.674	20309
894.796	20320
894.918	20336
895.04	20164
895.161	20263
895.283	20343
895.405	20153
895.526	20225
895.648	20237
895.769	20256
895.891	20286
896.012	20237
896.134	20358
896.255	20328
896.376	20084
896.498	20233
896.619	20256
896.74	20210
896.861	20218
896.982	20495
897.103	20705
897.224	20526
897.345	20412
897.466	20275
897.587	20381
897.708	20514
897.828	20492
897.949	20415
898.07	20210
898.19	20343
898.311	20503
898.431	20286
898.552	20511
898.672	20530
898.792	20476
898.913	20427
899.033	20339
899.153	20218
899.273	20111
899.393	20233
899.513	20157
899.633	20206
899.753	20267
899.873	20058
899.993	20259
900.113	20107
900.232	20172
900.352	20054
900.472	19951
900.591	19864
900.711	19925
900.83	19940
900.95	20142
901.069	20012
901.189	19765
901.308	19540
901.427	19453
901.546	19586
901.665	19521
901.784	19666
901.904	19388
902.023	19270
902.141	19103
902.26	18970
902.379	19183
902.498	18973
902.617	19027
902.735	19076
902.854	19000
902.973	19031
903.091	18700
903.21	18669
903.328	18703
903.446	18677
903.565	18604
903.683	18540
903.801	18395
903.919	18574
904.038	18403
904.156	18258
904.274	18445
904.392	18346
904.51	18228
904.627	18205
904.745	18258
904.863	18304
904.981	18167
905.098	18019
905.216	18041
905.334	18019
905.451	17973
905.569	17904
905.686	18034
905.803	17961
905.921	17802
906.038	17878
906.155	17836
906.272	17687
906.389	17703
906.506	17360
906.623	17577
906.74	17444
906.857	17398
906.974	17383
907.091	17463
907.208	17604
907.324	17467
907.441	17410
907.557	17254
907.674	17303
907.79	17174
907.907	17132
908.023	17337
908.139	17208
908.256	17166
908.372	17121
908.488	17060
908.604	17079
908.72	16904
908.836	16911
908.952	16942
909.068	16995
909.184	16968
909.3	16805
909.415	17014
909.531	17033
909.647	16717
909.762	16653
909.878	16622
909.993	16599
910.108	16561
910.224	16516
910.339	16451
910.454	16611
910.57	16341
910.685	16402
910.8	16603
910.915	16577
911.03	16519
911.145	16242
911.259	16204
911.374	16173
911.489	16276
911.604	16177
911.718	15956
911.833	15903
911.947	15926
912.062	15732
912.176	15888
912.291	15949
912.405	15907
912.519	16082
912.633	16150
912.748	16017
912.862	15934
912.976	15850
913.09	15644
913.204	15720
913.318	15816
913.431	15804
913.545	15975
913.659	15987
913.772	15656
913.886	15603
914	15584
914.113	15698
914.226	15682
914.34	15599
914.453	15557
914.566	15580
914.68	15492
914.793	15507
914.906	15378
915.019	15100
915.132	15066
915.245	15173
915.358	15150
915.47	15218
915.583	15062
915.696	15180
915.809	15378
915.921	15313
916.034	15176
916.146	15112
916.259	15077
916.371	15142
916.483	15112
916.595	14979
916.708	14979
916.82	15093
916.932	14948
917.044	15013
917.156	14952
917.268	14845
917.38	14785
917.491	14914
917.603	14826
917.715	14941
917.826	14941
917.938	14765
918.049	14697
918.161	14788
918.272	14891
918.384	14853
918.495	14762
918.606	14674
918.717	14495
918.828	14617
918.939	14610
919.05	14431
919.161	14465
919.272	14324
919.383	14450
919.494	14594
919.604	14716
919.715	14598
919.826	14442
919.936	14412
920.047	14625
920.157	14488
920.267	14743
920.378	14587
920.488	14469
920.598	14735
920.708	14819
920.818	14667
920.928	14640
921.038	14830
921.148	14788
921.258	14499
921.368	14355
921.477	14275
921.587	14275
921.697	14195
921.806	14248
921.916	14069
922.025	13974
922.134	13856
922.244	13833
922.353	14001
922.462	13795
922.571	13696
922.68	13529
922.789	13559
922.898	13521
923.007	13472
923.116	13521
923.224	13616
923.333	13552
923.442	13430
923.55	13335
923.659	13449
923.767	13373
923.876	13293
923.984	13346
924.092	13308
924.201	13365
924.309	13301
924.417	13335
924.525	13255
924.633	13236
924.741	14134
924.849	13088
924.956	13198
925.064	13019
925.172	12897
925.279	12897
925.387	13084
925.494	12935
925.602	13145
925.709	12973
925.816	12897
925.924	12901
926.031	13110
926.138	12882
926.245	12989
926.352	12867
926.459	12939
926.566	13107
926.673	12878
926.779	12764
926.886	12711
926.993	12547
927.099	12608
927.206	12521
927.312	12456
927.419	12585
927.525	12525
927.631	12563
927.737	12407
927.843	12429
927.95	12296
928.056	12388
928.162	12330
928.267	12437
928.373	12871
928.479	12418
928.585	12068
928.69	12289
928.796	12266
928.901	12247
929.007	12098
929.112	12220
929.218	12155
929.323	12133
929.428	12011
929.533	12175
929.638	11992
929.743	12057
929.848	12034
929.953	12117
930.058	11931
930.163	11870
930.267	11714
930.372	11950
930.477	11710
930.581	11946
930.685	11855
930.79	11630
930.894	11630
930.998	11688
931.103	11718
931.207	11341
931.311	11345
931.415	11216
931.519	11003
931.623	11022
