Data from test_V78500241_303.txt Node
Date: Fri Mar 25 15:11:58 CST 2022
User: usil
Spectrometer: V785-0024
Trigger mode: 0
Integration Time (sec): 4.000000E-1
Scans to average: 1
Nonlinearity correction enabled: false
Boxcar width: 0
Storing dark spectrum: false
XAxis mode: Wavelengths
Number of Pixels in Spectrum: 1024
>>>>>Begin Spectral Data<<<<<
801.071	27968
801.214	27781
801.356	27785
801.499	27766
801.641	27523
801.783	27576
801.926	27629
802.068	27561
802.211	27420
802.353	27405
802.496	27287
802.638	27321
802.78	27264
802.923	27184
803.065	27028
803.208	27131
803.35	27100
803.492	27382
803.635	27466
803.777	27192
803.919	27424
804.061	27694
804.204	27496
804.346	27260
804.488	27306
804.63	27192
804.773	27272
804.915	27298
805.057	27393
805.199	27195
805.341	27252
805.483	27416
805.626	27458
805.768	27256
805.91	27454
806.052	27447
806.194	27302
806.336	27614
806.478	27405
806.62	27492
806.762	27397
806.904	27690
807.046	27873
807.188	27831
807.33	27762
807.472	27945
807.614	27755
807.756	27827
807.898	27561
808.04	27652
808.182	27633
808.324	27724
808.465	27576
808.607	27667
808.749	27907
808.891	28150
809.033	28147
809.174	28162
809.316	28032
809.458	27949
809.6	27911
809.741	28101
809.883	28086
810.025	28329
810.166	28272
810.308	28299
810.45	28124
810.591	28101
810.733	28128
810.875	27945
811.016	27914
811.158	27892
811.299	28131
811.441	28158
811.582	28139
811.724	27953
811.865	27835
812.007	28044
812.148	27838
812.29	27968
812.431	28128
812.573	28352
812.714	28333
812.855	28523
812.997	28660
813.138	28816
813.279	28561
813.421	28489
813.562	28527
813.703	28401
813.845	28185
813.986	27960
814.127	27591
814.268	27675
814.41	27542
814.551	27603
814.692	27690
814.833	27629
814.974	27568
815.115	27610
815.256	27466
815.397	27473
815.539	27382
815.68	27450
815.821	27485
815.962	27401
816.103	27412
816.244	27344
816.385	27382
816.526	26998
816.666	27032
816.807	26895
816.948	26899
817.089	27051
817.23	26910
817.371	26826
817.512	26804
817.653	26750
817.793	26823
817.934	26918
818.075	26769
818.216	26830
818.356	26826
818.497	26727
818.638	26651
818.778	26606
818.919	26552
819.06	26583
819.2	26830
819.341	26746
819.481	26746
819.622	26956
819.762	27123
819.903	27157
820.043	26979
820.184	26975
820.324	26864
820.465	26998
820.605	26979
820.746	26781
820.886	26956
821.026	26910
821.167	26925
821.307	26899
821.447	26899
821.588	26735
821.728	26629
821.868	26457
822.008	26259
822.149	26305
822.289	26355
822.429	25978
822.569	25947
822.709	26039
822.849	25761
822.99	25830
823.13	25765
823.27	25769
823.41	25658
823.55	25491
823.69	25613
823.83	25449
823.97	25548
824.11	25411
824.25	25407
824.389	25350
824.529	25548
824.669	25411
824.809	25575
824.949	25476
825.089	25453
825.228	25472
825.368	25304
825.508	25183
825.648	25331
825.787	25190
825.927	25308
826.067	25225
826.206	25282
826.346	25331
826.485	25316
826.625	25316
826.765	25468
826.904	25460
827.044	25076
827.183	24897
827.323	24958
827.462	24996
827.601	25019
827.741	24913
827.88	24814
828.02	24878
828.159	25038
828.298	24985
828.437	24894
828.577	24859
828.716	25091
828.855	24871
828.994	24791
829.134	24665
829.273	24749
829.412	24768
829.551	24559
829.69	24719
829.829	24719
829.968	24665
830.107	24646
830.246	24707
830.385	24589
830.524	24597
830.663	24464
830.802	24467
830.941	24308
831.08	24277
831.219	24323
831.357	24414
831.496	24547
831.635	24243
831.774	24315
831.913	24049
832.051	24053
832.19	23942
832.329	23973
832.467	23893
832.606	23946
832.744	24022
832.883	23901
833.022	23916
833.16	23996
833.299	23958
833.437	23950
833.576	24068
833.714	23973
833.852	23977
833.991	24083
834.129	23980
834.267	24083
834.406	23950
834.544	24163
834.682	23954
834.821	23912
834.959	24034
835.097	23988
835.235	23878
835.373	23859
835.511	23977
835.65	23805
835.788	23828
835.926	23672
836.064	23627
836.202	23714
836.34	23863
836.478	23859
836.615	23790
836.753	23824
836.891	23824
837.029	23760
837.167	23741
837.305	23775
837.443	23756
837.58	23642
837.718	23668
837.856	23691
837.993	23627
838.131	23668
838.269	23566
838.406	23543
838.544	23554
838.681	23334
838.819	23220
838.956	23018
839.094	23056
839.231	23090
839.369	23277
839.506	23436
839.643	23433
839.781	23242
839.918	23151
840.055	23117
840.193	23067
840.33	22965
840.467	23025
840.604	22972
840.742	23220
840.879	23018
841.016	22976
841.153	22930
841.29	23174
841.427	22839
841.564	23132
841.701	22968
841.838	23079
841.975	22892
842.112	22911
842.249	22675
842.385	22809
842.522	22984
842.659	22713
842.796	22630
842.933	22733
843.069	22626
843.206	22752
843.343	22767
843.479	22687
843.616	22683
843.752	22455
843.889	22470
844.025	22584
844.162	22569
844.298	22557
844.435	22436
844.571	22481
844.708	22504
844.844	22637
844.98	22538
845.117	22653
845.253	22417
845.389	22405
845.525	22402
845.661	22367
845.798	22242
845.934	22375
846.07	22192
846.206	22310
846.342	22402
846.478	22116
846.614	21979
846.75	21987
846.886	21892
847.022	22158
847.158	21994
847.294	22044
847.429	22025
847.565	21987
847.701	22261
847.837	21633
847.972	21667
848.108	21667
848.244	21774
848.379	21633
848.515	21523
848.65	21481
848.786	21534
848.921	21515
849.057	21534
849.192	21633
849.328	21572
849.463	21564
849.598	21469
849.734	21500
849.869	21435
850.004	21344
850.14	21252
850.275	21344
850.41	21249
850.545	21184
850.68	21325
850.815	21348
850.95	21325
851.085	21477
851.22	21405
851.355	21313
851.49	21256
851.625	21207
851.76	21264
851.895	21207
852.03	21211
852.165	21161
852.299	21188
852.434	21450
852.569	21275
852.703	21287
852.838	21389
852.973	21523
853.107	21420
853.242	21222
853.376	21051
853.511	20952
853.645	21024
853.78	21230
853.914	21051
854.048	21017
854.183	21017
854.317	21169
854.451	21279
854.585	21131
854.72	21123
854.854	21123
854.988	21028
855.122	21112
855.256	21024
855.39	21081
855.524	21131
855.658	21161
855.792	21074
855.926	21188
856.06	21081
856.194	21116
856.327	21085
856.461	21112
856.595	21009
856.729	21062
856.862	21176
856.996	21108
857.13	21157
857.263	21192
857.397	21279
857.53	21013
857.664	21089
857.797	21081
857.931	21344
858.064	21146
858.197	21161
858.331	21051
858.464	21104
858.597	21001
858.731	21047
858.864	21024
858.997	21131
859.13	21119
859.263	21131
859.396	21081
859.529	20952
859.662	21104
859.795	20998
859.928	21081
860.061	21268
860.194	21272
860.327	21074
860.46	21066
860.592	21195
860.725	21260
860.858	21161
860.99	21077
861.123	20967
861.256	21081
861.388	21138
861.521	21743
861.653	20933
861.786	20937
861.918	20982
862.05	20960
862.183	21001
862.315	21036
862.447	21188
862.58	21047
862.712	20811
862.844	20811
862.976	20948
863.108	20777
863.24	21245
863.372	20727
863.504	20830
863.636	20781
863.768	20777
863.9	20781
864.032	20640
864.164	20674
864.296	20834
864.428	20887
864.559	20743
864.691	20765
864.823	20842
864.954	20743
865.086	20731
865.217	20727
865.349	20537
865.48	20632
865.612	20678
865.743	20834
865.875	20754
866.006	20625
866.137	20689
866.269	20746
866.4	20541
866.531	20625
866.662	20488
866.793	20522
866.924	20670
867.055	20503
867.186	20613
867.317	20594
867.448	20526
867.579	20503
867.71	20541
867.841	20415
867.972	20629
868.103	20568
868.233	20537
868.364	20552
868.495	20796
868.625	20933
868.756	20914
868.886	20826
869.017	20880
869.147	20906
869.278	20849
869.408	20952
869.539	20872
869.669	21058
869.799	20857
869.929	21020
870.06	20979
870.19	21055
870.32	21096
870.45	21272
870.58	21230
870.71	21382
870.84	21306
870.97	21199
871.1	21272
871.23	21401
871.36	21462
871.489	21412
871.619	21329
871.749	21348
871.879	21511
872.008	21473
872.138	21424
872.267	21485
872.397	21173
872.526	21188
872.656	21298
872.785	21291
872.915	21473
873.044	21591
873.173	21428
873.303	21583
873.432	21450
873.561	21557
873.69	21488
873.819	21538
873.948	21587
874.077	21450
874.206	21428
874.335	21511
874.464	21774
874.593	21625
874.722	21652
874.851	21781
874.979	21720
875.108	21778
875.237	21755
875.365	21545
875.494	21766
875.623	21682
875.751	21523
875.88	21682
876.008	21850
876.136	21827
876.265	22101
876.393	22154
876.521	22143
876.65	22276
876.778	22017
876.906	22032
877.034	22055
877.162	22109
877.29	22067
877.418	21968
877.546	22105
877.674	22131
877.802	22101
877.93	22154
878.058	21960
878.185	22063
878.313	22029
878.441	21968
878.568	21835
878.696	21861
878.824	22013
878.951	22173
879.079	22196
879.206	22352
879.333	22135
879.461	21979
879.588	22032
879.715	22299
879.842	22299
879.97	22169
880.097	21850
880.224	21873
880.351	21888
880.478	21956
880.605	21766
880.732	21865
880.859	22070
880.986	21823
881.112	21869
881.239	21660
881.366	21542
881.493	21591
881.619	21443
881.746	21386
881.872	21496
881.999	21504
882.125	21439
882.252	21511
882.378	21488
882.505	21481
882.631	21233
882.757	21211
882.883	21203
883.01	21218
883.136	21116
883.262	21009
883.388	20971
883.514	21161
883.64	21256
883.766	20986
883.892	20929
884.018	20982
884.143	21123
884.269	21138
884.395	20883
884.52	20838
884.646	20823
884.772	20678
884.897	20587
885.023	20872
885.148	20823
885.274	20925
885.399	20857
885.524	20807
885.65	20807
885.775	20804
885.9	20739
886.025	20861
886.15	20815
886.275	20743
886.4	20667
886.525	20796
886.65	20712
886.775	20739
886.9	20876
887.025	21001
887.149	20727
887.274	20526
887.399	20579
887.523	20533
887.648	20571
887.773	20446
887.897	20545
888.021	20655
888.146	20488
888.27	20602
888.395	20689
888.519	20583
888.643	20594
888.767	20533
888.891	20374
889.015	20377
889.139	20423
889.263	20374
889.387	20434
889.511	20651
889.635	20476
889.759	20317
889.883	20358
890.006	20301
890.13	20454
890.254	20381
890.377	20214
890.501	20065
890.624	20024
890.748	20259
890.871	19982
890.995	19883
891.118	19887
891.241	20035
891.364	19925
891.488	19902
891.611	19894
891.734	19864
891.857	20012
891.98	19982
892.103	20107
892.226	19883
892.349	19921
892.471	19742
892.594	19727
892.717	19887
892.839	19856
892.962	19845
893.085	19856
893.207	19799
893.33	19689
893.452	19803
893.575	19791
893.697	19814
893.819	19913
893.941	20012
894.064	19989
894.186	19860
894.308	19700
894.43	19818
894.552	19940
894.674	19944
894.796	19788
894.918	19784
895.04	19803
895.161	20001
895.283	19811
895.405	19856
895.526	19814
895.648	19814
895.769	19841
895.891	19932
896.012	20077
896.134	19849
896.255	19913
896.376	19822
896.498	19769
896.619	19921
896.74	19700
896.861	19864
896.982	20168
897.103	20259
897.224	20103
897.345	20107
897.466	20092
897.587	20145
897.708	20157
897.828	19959
897.949	20062
898.07	19871
898.19	19970
898.311	20096
898.431	20081
898.552	20195
898.672	20130
898.792	20081
898.913	19947
899.033	19951
899.153	19807
899.273	19597
899.393	19757
899.513	19811
899.633	19845
899.753	19883
899.873	19757
899.993	19822
900.113	19742
900.232	19826
900.352	19788
900.472	19655
900.591	19586
900.711	19616
900.83	19693
900.95	19704
901.069	19670
901.189	19468
901.308	19293
901.427	19202
901.546	19080
901.665	19213
901.784	19255
901.904	18981
902.023	18848
902.141	18719
902.26	18715
902.379	18810
902.498	18661
902.617	18658
902.735	18646
902.854	18597
902.973	18536
903.091	18369
903.21	18441
903.328	18327
903.446	18216
903.565	18163
903.683	18152
903.801	18030
903.919	18079
904.038	18144
904.156	17885
904.274	17931
904.392	17931
904.51	17920
904.627	17958
904.745	17923
904.863	17965
904.981	17718
905.098	17642
905.216	17505
905.334	17535
905.451	17611
905.569	17528
905.686	17703
905.803	17505
905.921	17364
906.038	17383
906.155	17376
906.272	17429
906.389	17376
906.506	17185
906.623	17174
906.74	17113
906.857	17006
906.974	16946
907.091	17200
907.208	17284
907.324	17117
907.441	17056
907.557	16923
907.674	16957
907.79	16847
907.907	16778
908.023	16904
908.139	16889
908.256	16820
908.372	16713
908.488	16630
908.604	16584
908.72	16596
908.836	16554
908.952	16535
909.068	16664
909.184	16561
909.3	16603
909.415	16546
909.531	16565
909.647	16314
909.762	16310
909.878	16188
909.993	16268
910.108	16169
910.224	16211
910.339	16207
910.454	16086
910.57	16093
910.685	15956
910.8	16272
910.915	16200
911.03	16013
911.145	15926
911.259	15918
911.374	15888
911.489	15751
911.604	15660
911.718	15584
911.833	15629
911.947	15584
912.062	15420
912.176	15580
912.291	15679
912.405	15568
912.519	15705
912.633	15751
912.748	15667
912.862	15614
912.976	15485
913.09	15344
913.204	15370
913.318	15393
913.431	15530
913.545	15515
913.659	15462
913.772	15264
913.886	15203
914	15268
914.113	15294
914.226	15306
914.34	15298
914.453	15074
914.566	15264
914.68	15154
914.793	15013
914.906	14838
915.019	14906
915.132	14716
915.245	14815
915.358	14880
915.47	14887
915.583	14796
915.696	14800
915.809	14971
915.921	14876
916.034	14773
916.146	14804
916.259	14602
916.371	14743
916.483	14800
916.595	14705
916.708	14644
916.82	14678
916.932	14659
917.044	14606
917.156	14583
917.268	14526
917.38	14518
917.491	14427
917.603	14488
917.715	14594
917.826	14640
917.938	14377
918.049	14271
918.161	14412
918.272	14629
918.384	14632
918.495	14503
918.606	14358
918.717	14202
918.828	14218
918.939	14374
919.05	14202
919.161	14244
919.272	13997
919.383	14100
919.494	14358
919.604	14377
919.715	14221
919.826	14206
919.936	14176
920.047	14298
920.157	14134
920.267	14404
920.378	14248
920.488	14145
920.598	14328
920.708	14549
920.818	14343
920.928	14229
921.038	14541
921.148	14484
921.258	14191
921.368	14084
921.477	14039
921.587	13928
921.697	13750
921.806	13917
921.916	13898
922.025	13685
922.134	13655
922.244	13563
922.353	13639
922.462	13483
922.571	13362
922.68	13297
922.789	13244
922.898	13240
923.007	13213
923.116	13236
923.224	13213
923.333	13118
923.442	13004
923.55	13027
923.659	12989
923.767	13107
923.876	12981
923.984	13072
924.092	12920
924.201	12890
924.309	12913
924.417	13023
924.525	12863
924.633	12871
924.741	13708
924.849	12745
924.956	12867
925.064	12669
925.172	12597
925.279	12582
925.387	12658
925.494	12665
925.602	12810
925.709	12616
925.816	12570
925.924	12623
926.031	12703
926.138	12521
926.245	12669
926.352	12536
926.459	12631
926.566	12585
926.673	12589
926.779	12437
926.886	12350
926.993	12304
927.099	12243
927.206	12178
927.312	12129
927.419	12350
927.525	12273
927.631	12239
927.737	12194
927.843	12034
927.95	11931
928.056	12038
928.162	12079
928.267	12144
928.373	12711
928.479	12148
928.585	11885
928.69	11969
928.796	12064
928.901	11942
929.007	11805
929.112	11980
929.218	11885
929.323	11802
929.428	11802
929.533	11927
929.638	11714
929.743	11737
929.848	11748
929.953	11794
930.058	11630
930.163	11486
930.267	11395
930.372	11592
930.477	11417
930.581	11619
930.685	11524
930.79	11376
930.894	11288
930.998	11387
931.103	11459
931.207	11098
931.311	10987
931.415	10949
931.519	10759
931.623	10782
