Data from test_V78500241_2572.txt Node
Date: Fri Mar 25 15:27:46 CST 2022
User: usil
Spectrometer: V785-0024
Trigger mode: 0
Integration Time (sec): 4.000000E-1
Scans to average: 1
Nonlinearity correction enabled: false
Boxcar width: 0
Storing dark spectrum: false
XAxis mode: Wavelengths
Number of Pixels in Spectrum: 1024
>>>>>Begin Spectral Data<<<<<
801.071	27310
801.214	27222
801.356	27119
801.499	26940
801.641	27032
801.783	26796
801.926	26876
802.068	26853
802.211	26853
802.353	26617
802.496	26659
802.638	26533
802.78	26423
802.923	26450
803.065	26434
803.208	26568
803.35	26438
803.492	26613
803.635	26522
803.777	26602
803.919	26674
804.061	27051
804.204	26731
804.346	26636
804.488	26583
804.63	26530
804.773	26609
804.915	26758
805.057	26727
805.199	26735
805.341	26674
805.483	26773
805.626	26750
805.768	26518
805.91	26777
806.052	26739
806.194	26655
806.336	26906
806.478	26743
806.62	26746
806.762	26838
806.904	27005
807.046	27325
807.188	27249
807.33	27218
807.472	27123
807.614	27131
807.756	27188
807.898	27062
808.04	26861
808.182	26842
808.324	26929
808.465	27150
808.607	27272
808.749	27420
808.891	27477
809.033	27591
809.174	27401
809.316	27146
809.458	27241
809.6	27291
809.741	27561
809.883	27462
810.025	27743
810.166	27583
810.308	27652
810.45	27637
810.591	27530
810.733	27325
810.875	27291
811.016	27302
811.158	27351
811.299	27329
811.441	27523
811.582	27481
811.724	27302
811.865	27351
812.007	27325
812.148	27447
812.29	27386
812.431	27500
812.573	27553
812.714	27720
812.855	27720
812.997	27854
813.138	28029
813.279	28044
813.421	27808
813.562	27819
813.703	27599
813.845	27367
813.986	27351
814.127	27112
814.268	27051
814.41	27009
814.551	27047
814.692	27058
814.833	26853
814.974	27032
815.115	27047
815.256	26823
815.397	26796
815.539	26883
815.68	26842
815.821	26735
815.962	26815
816.103	26720
816.244	26621
816.385	26667
816.526	26393
816.666	26389
816.807	26389
816.948	26271
817.089	26381
817.23	26305
817.371	26393
817.512	26168
817.653	26339
817.793	26290
817.934	26233
818.075	26275
818.216	26396
818.356	26180
818.497	26092
818.638	26008
818.778	26008
818.919	25963
819.06	26126
819.2	26077
819.341	26233
819.481	26351
819.622	26476
819.762	26526
819.903	26499
820.043	26442
820.184	26377
820.324	26320
820.465	26450
820.605	26263
820.746	26415
820.886	26225
821.026	26366
821.167	26256
821.307	26355
821.447	26206
821.588	26199
821.728	26115
821.868	25982
822.008	25769
822.149	25693
822.289	25616
822.429	25510
822.569	25343
822.709	25430
822.849	25316
822.99	25316
823.13	25225
823.27	25225
823.41	25042
823.55	25008
823.69	25190
823.83	25168
823.97	25107
824.11	24825
824.25	24916
824.389	24817
824.529	24996
824.669	24932
824.809	24958
824.949	24962
825.089	24943
825.228	24795
825.368	24707
825.508	24783
825.648	24810
825.787	24833
825.927	24856
826.067	24730
826.206	24795
826.346	25034
826.485	24673
826.625	24753
826.765	25015
826.904	24814
827.044	24407
827.183	24547
827.323	24490
827.462	24513
827.601	24521
827.741	24418
827.88	24593
828.02	24258
828.159	24422
828.298	24555
828.437	24540
828.577	24369
828.716	24578
828.855	24528
828.994	24068
829.134	24239
829.273	24254
829.412	24186
829.551	24186
829.69	24125
829.829	24289
829.968	24232
830.107	24186
830.246	24243
830.385	24068
830.524	24095
830.663	23977
830.802	23916
830.941	23836
831.08	23672
831.219	23950
831.357	23950
831.496	23965
831.635	23821
831.774	23714
831.913	23729
832.051	23604
832.19	23596
832.329	23573
832.467	23634
832.606	23383
832.744	23322
832.883	23391
833.022	23429
833.16	23554
833.299	23516
833.437	23436
833.576	23634
833.714	23482
833.852	23436
833.991	23535
834.129	23672
834.267	23611
834.406	23505
834.544	23535
834.682	23596
834.821	23364
834.959	23703
835.097	23379
835.235	23718
835.373	23543
835.511	23341
835.65	23360
835.788	23448
835.926	23311
836.064	23109
836.202	23261
836.34	23482
836.478	23433
836.615	23467
836.753	23334
836.891	23528
837.029	23429
837.167	23345
837.305	23299
837.443	23360
837.58	23204
837.718	23220
837.856	23277
837.993	23231
838.131	23212
838.269	23124
838.406	23143
838.544	23071
838.681	22919
838.819	22831
838.956	22767
839.094	22767
839.231	22767
839.369	22892
839.506	23128
839.643	22892
839.781	22763
839.918	22607
840.055	22831
840.193	22645
840.33	22664
840.467	22634
840.604	22824
840.742	22976
840.879	22371
841.016	22641
841.153	22466
841.29	22645
841.427	22599
841.564	22656
841.701	22656
841.838	22630
841.975	22573
842.112	22641
842.249	22698
842.385	22535
842.522	22592
842.659	22554
842.796	22367
842.933	22344
843.069	22428
843.206	22375
843.343	22462
843.479	22382
843.616	22379
843.752	22276
843.889	22211
844.025	22318
844.162	22185
844.298	22306
844.435	22211
844.571	22177
844.708	22211
844.844	22379
844.98	22253
845.117	22371
845.253	22158
845.389	22128
845.525	22181
845.661	22036
845.798	21876
845.934	22010
846.07	21865
846.206	21979
846.342	21972
846.478	21888
846.614	21701
846.75	21591
846.886	21736
847.022	21701
847.158	21641
847.294	21823
847.429	21686
847.565	21720
847.701	21895
847.837	21416
847.972	21245
848.108	21515
848.244	21496
848.379	21241
848.515	21279
848.65	21233
848.786	21268
848.921	21214
849.057	21367
849.192	21325
849.328	21226
849.463	21252
849.598	21165
849.734	21154
849.869	21112
850.004	21089
850.14	21157
850.275	21077
850.41	20929
850.545	20918
850.68	20910
850.815	21013
850.95	20994
851.085	21184
851.22	21211
851.355	21085
851.49	20910
851.625	20925
851.76	21058
851.895	20998
852.03	20823
852.165	21096
852.299	21039
852.434	21055
852.569	21017
852.703	20994
852.838	21043
852.973	21222
853.107	21116
853.242	21055
853.376	20876
853.511	20785
853.645	20762
853.78	20944
853.914	20876
854.048	20823
854.183	20899
854.317	20887
854.451	21058
854.585	20838
854.72	20876
854.854	20975
854.988	20815
855.122	20849
855.256	20792
855.39	20857
855.524	20998
855.658	20804
855.792	20902
855.926	20807
856.06	20933
856.194	21074
856.327	20864
856.461	20754
856.595	20731
856.729	20781
856.862	20979
856.996	20876
857.13	20868
857.263	20929
857.397	20899
857.53	20910
857.664	20876
857.797	20861
857.931	20944
858.064	20883
858.197	20864
858.331	20804
858.464	20792
858.597	20765
858.731	20906
858.864	20883
858.997	20872
859.13	20899
859.263	20895
859.396	20872
859.529	20876
859.662	20811
859.795	20838
859.928	20861
860.061	21039
860.194	21180
860.327	20880
860.46	20880
860.592	20929
860.725	21039
860.858	20952
860.99	20826
861.123	20750
861.256	20815
861.388	20880
861.521	21454
861.653	20708
861.786	20648
861.918	20575
862.05	20792
862.183	20785
862.315	20788
862.447	20758
862.58	20773
862.712	20583
862.844	20571
862.976	20636
863.108	20762
863.24	21135
863.372	20522
863.504	20545
863.636	20537
863.768	20526
863.9	20674
864.032	20598
864.164	20533
864.296	20594
864.428	20667
864.559	20720
864.691	20632
864.823	20682
864.954	20556
865.086	20564
865.217	20431
865.349	20385
865.48	20431
865.612	20552
865.743	20659
865.875	20541
866.006	20488
866.137	20476
866.269	20396
866.4	20457
866.531	20366
866.662	20351
866.793	20507
866.924	20351
867.055	20400
867.186	20396
867.317	20427
867.448	20301
867.579	20419
867.71	20240
867.841	20404
867.972	20377
868.103	20438
868.233	20355
868.364	20423
868.495	20507
868.625	20670
868.756	20773
868.886	20560
869.017	20758
869.147	20746
869.278	20838
869.408	20735
869.539	20693
869.669	20769
869.799	20735
869.929	20724
870.06	20746
870.19	20895
870.32	21089
870.45	21131
870.58	21005
870.71	21173
870.84	21119
870.97	21074
871.1	21066
871.23	21203
871.36	21192
871.489	21135
871.619	21161
871.749	21230
871.879	21382
872.008	21405
872.138	21264
872.267	21306
872.397	21161
872.526	21112
872.656	21047
872.785	21089
872.915	21245
873.044	21408
873.173	21218
873.303	21348
873.432	21382
873.561	21348
873.69	21237
873.819	21359
873.948	21344
874.077	21264
874.206	21226
874.335	21291
874.464	21386
874.593	21526
874.722	21454
874.851	21496
874.979	21557
875.108	21603
875.237	21477
875.365	21462
875.494	21466
875.623	21606
875.751	21469
875.88	21507
876.008	21603
876.136	21660
876.265	21880
876.393	22173
876.521	21975
876.65	21880
876.778	21930
876.906	21819
877.034	21979
877.162	21907
877.29	21823
877.418	21812
877.546	21842
877.674	21884
877.802	21903
877.93	21899
878.058	21854
878.185	21618
878.313	21781
878.441	21838
878.568	21781
878.696	21873
878.824	21854
878.951	21895
879.079	21960
879.206	22093
879.333	22010
879.461	21964
879.588	21907
879.715	22074
879.842	22147
879.97	21812
880.097	21720
880.224	21770
880.351	21751
880.478	21804
880.605	21629
880.732	21743
880.859	21808
880.986	21656
881.112	21781
881.239	21641
881.366	21561
881.493	21374
881.619	21325
881.746	21272
881.872	21245
881.999	21214
882.125	21291
882.252	21313
882.378	21374
882.505	21374
882.631	21013
882.757	20929
882.883	21112
883.01	21013
883.136	20910
883.262	20788
883.388	20777
883.514	21013
883.64	21047
883.766	20925
883.892	20777
884.018	20823
884.143	20883
884.269	21009
884.395	20731
884.52	20564
884.646	20693
884.772	20552
884.897	20537
885.023	20655
885.148	20838
885.274	20769
885.399	20739
885.524	20598
885.65	20712
885.775	20629
885.9	20594
886.025	20823
886.15	20644
886.275	20632
886.4	20625
886.525	20499
886.65	20537
886.775	20552
886.9	20765
887.025	20952
887.149	20530
887.274	20499
887.399	20370
887.523	20473
887.648	20339
887.773	20252
887.897	20415
888.021	20381
888.146	20183
888.27	20549
888.395	20442
888.519	20267
888.643	20613
888.767	20442
888.891	20248
889.015	20176
889.139	20286
889.263	20256
889.387	20290
889.511	20431
889.635	20408
889.759	20252
889.883	20229
890.006	20256
890.13	20431
890.254	20100
890.377	20092
890.501	20062
890.624	19947
890.748	20058
890.871	19780
890.995	19776
891.118	19738
891.241	19666
891.364	19761
891.488	19826
891.611	19917
891.734	19890
891.857	19765
891.98	19651
892.103	19887
892.226	19841
892.349	19776
892.471	19639
892.594	19620
892.717	19742
892.839	19540
892.962	19746
893.085	19765
893.207	19811
893.33	19544
893.452	19704
893.575	19632
893.697	19700
893.819	19818
893.941	19871
894.064	19879
894.186	19544
894.308	19715
894.43	19734
894.552	19879
894.674	19776
894.796	19613
894.918	19635
895.04	19674
895.161	19708
895.283	19731
895.405	19552
895.526	19719
895.648	19601
895.769	19772
895.891	19761
896.012	19784
896.134	19727
896.255	19742
896.376	19605
896.498	19750
896.619	19742
896.74	19670
896.861	19734
896.982	20142
897.103	20210
897.224	20008
897.345	20001
897.466	19860
897.587	19947
897.708	20088
897.828	19974
897.949	19833
898.07	19791
898.19	19830
898.311	19947
898.431	19860
898.552	19811
898.672	20027
898.792	19982
898.913	19913
899.033	19849
899.153	19731
899.273	19620
899.393	19632
899.513	19666
899.633	19647
899.753	19681
899.873	19613
899.993	19719
900.113	19601
900.232	19597
900.352	19628
900.472	19510
900.591	19449
900.711	19419
900.83	19396
900.95	19499
901.069	19453
901.189	19377
901.308	19061
901.427	19046
901.546	19050
901.665	19072
901.784	18993
901.904	18894
902.023	18760
902.141	18578
902.26	18547
902.379	18677
902.498	18506
902.617	18566
902.735	18593
902.854	18604
902.973	18506
903.091	18258
903.21	18201
903.328	18194
903.446	18213
903.565	18083
903.683	18045
903.801	17859
903.919	17984
904.038	17946
904.156	17878
904.274	17980
904.392	17783
904.51	17836
904.627	17783
904.745	17863
904.863	17908
904.981	17551
905.098	17478
905.216	17535
905.334	17520
905.451	17573
905.569	17433
905.686	17512
905.803	17539
905.921	17322
906.038	17360
906.155	17364
906.272	17231
906.389	17258
906.506	16999
906.623	17094
906.74	17075
906.857	16797
906.974	16968
907.091	17067
907.208	17174
907.324	17037
907.441	17064
907.557	16759
907.674	16763
907.79	16706
907.907	16672
908.023	16828
908.139	16786
908.256	16698
908.372	16641
908.488	16710
908.604	16611
908.72	16466
908.836	16485
908.952	16546
909.068	16497
909.184	16611
909.3	16459
909.415	16546
909.531	16424
909.647	16238
909.762	16207
909.878	16196
909.993	16181
910.108	16253
910.224	16139
910.339	16181
910.454	16162
910.57	16013
910.685	15892
910.8	16154
910.915	16131
911.03	16017
911.145	15861
911.259	15804
911.374	15724
911.489	15663
911.604	15641
911.718	15507
911.833	15500
911.947	15576
912.062	15458
912.176	15561
912.291	15641
912.405	15660
912.519	15747
912.633	15705
912.748	15587
912.862	15488
912.976	15450
913.09	15283
913.204	15355
913.318	15420
913.431	15431
913.545	15397
913.659	15485
913.772	15237
913.886	15222
914	15169
914.113	15237
914.226	15233
914.34	15150
914.453	15070
914.566	15173
914.68	15142
914.793	15032
914.906	14800
915.019	14773
915.132	14746
915.245	14830
915.358	14811
915.47	14735
915.583	14705
915.696	14823
915.809	14864
915.921	14864
916.034	14708
916.146	14678
916.259	14670
916.371	14788
916.483	14750
916.595	14659
916.708	14750
916.82	14594
916.932	14518
917.044	14537
917.156	14549
917.268	14454
917.38	14579
917.491	14400
917.603	14495
917.715	14473
917.826	14571
917.938	14381
918.049	14328
918.161	14343
918.272	14587
918.384	14484
918.495	14317
918.606	14237
918.717	14240
918.828	14271
918.939	14233
919.05	14100
919.161	14252
919.272	14031
919.383	14020
919.494	14210
919.604	14419
919.715	14157
919.826	14103
919.936	14233
920.047	14332
920.157	14176
920.267	14271
920.378	14221
920.488	14130
920.598	14374
920.708	14476
920.818	14351
920.928	14263
921.038	14461
921.148	14484
921.258	14172
921.368	14123
921.477	14008
921.587	13883
921.697	13795
921.806	13947
921.916	13746
922.025	13655
922.134	13567
922.244	13575
922.353	13597
922.462	13449
922.571	13392
922.68	13228
922.789	13168
922.898	13274
923.007	13209
923.116	13255
923.224	13194
923.333	13118
923.442	13053
923.55	13031
923.659	13133
923.767	13141
923.876	12966
923.984	13046
924.092	13038
924.201	12947
924.309	13023
924.417	12935
924.525	12989
924.633	12890
924.741	13757
924.849	12722
924.956	12890
925.064	12677
925.172	12639
925.279	12673
925.387	12654
925.494	12635
925.602	12753
925.709	12749
925.816	12528
925.924	12635
926.031	12700
926.138	12635
926.245	12673
926.352	12437
926.459	12764
926.566	12677
926.673	12563
926.779	12467
926.886	12426
926.993	12258
927.099	12213
927.206	12148
927.312	12167
927.419	12353
927.525	12262
927.631	12232
927.737	12102
927.843	12038
927.95	11942
928.056	12083
928.162	12136
928.267	12121
928.373	12570
928.479	12121
928.585	11923
928.69	12068
928.796	11977
928.901	11878
929.007	11771
929.112	12011
929.218	11935
929.323	11722
929.428	11790
929.533	12007
929.638	11714
929.743	11688
929.848	11775
929.953	11771
930.058	11535
930.163	11501
930.267	11528
930.372	11562
930.477	11433
930.581	11653
930.685	11547
930.79	11330
930.894	11425
930.998	11277
931.103	11493
931.207	11090
931.311	11090
931.415	11003
931.519	10710
931.623	10786
