Data from test_V78500241_3544.txt Node
Date: Fri Mar 25 15:34:32 CST 2022
User: usil
Spectrometer: V785-0024
Trigger mode: 0
Integration Time (sec): 4.000000E-1
Scans to average: 1
Nonlinearity correction enabled: false
Boxcar width: 0
Storing dark spectrum: false
XAxis mode: Wavelengths
Number of Pixels in Spectrum: 1024
>>>>>Begin Spectral Data<<<<<
801.071	27291
801.214	27275
801.356	26956
801.499	27009
801.641	26811
801.783	26819
801.926	26834
802.068	26781
802.211	26773
802.353	26636
802.496	26587
802.638	26659
802.78	26404
802.923	26453
803.065	26355
803.208	26309
803.35	26427
803.492	26663
803.635	26644
803.777	26499
803.919	26689
804.061	26834
804.204	26617
804.346	26648
804.488	26579
804.63	26632
804.773	26461
804.915	26621
805.057	26796
805.199	26625
805.341	26686
805.483	26667
805.626	26800
805.768	26659
805.91	26712
806.052	26781
806.194	26670
806.336	26906
806.478	26731
806.62	26613
806.762	26777
806.904	27005
807.046	27340
807.188	27195
807.33	27275
807.472	27161
807.614	26952
807.756	27070
807.898	27005
808.04	26933
808.182	26834
808.324	26940
808.465	26986
808.607	27173
808.749	27211
808.891	27287
809.033	27530
809.174	27443
809.316	27329
809.458	27245
809.6	27294
809.741	27382
809.883	27359
810.025	27591
810.166	27652
810.308	27751
810.45	27606
810.591	27614
810.733	27431
810.875	27317
811.016	27127
811.158	27233
811.299	27534
811.441	27580
811.582	27329
811.724	27370
811.865	27279
812.007	27291
812.148	27359
812.29	27401
812.431	27424
812.573	27739
812.714	27686
812.855	27770
812.997	27846
813.138	28082
813.279	28021
813.421	27850
813.562	27720
813.703	27759
813.845	27408
813.986	27359
814.127	27089
814.268	27135
814.41	27138
814.551	27009
814.692	27028
814.833	26819
814.974	26857
815.115	27017
815.256	26872
815.397	26804
815.539	26891
815.68	26746
815.821	26712
815.962	26823
816.103	26758
816.244	26651
816.385	26473
816.526	26476
816.666	26317
816.807	26221
816.948	26374
817.089	26298
817.23	26362
817.371	26305
817.512	26396
817.653	26271
817.793	26206
817.934	26263
818.075	26305
818.216	26336
818.356	26305
818.497	26138
818.638	25989
818.778	25997
818.919	26092
819.06	26046
819.2	26062
819.341	26237
819.481	26180
819.622	26355
819.762	26492
819.903	26431
820.043	26473
820.184	26267
820.324	26434
820.465	26469
820.605	26408
820.746	26248
820.886	26263
821.026	26339
821.167	26206
821.307	26423
821.447	26271
821.588	26130
821.728	26043
821.868	25928
822.008	25750
822.149	25616
822.289	25616
822.429	25460
822.569	25468
822.709	25411
822.849	25282
822.99	25236
823.13	25137
823.27	25190
823.41	24943
823.55	24981
823.69	25107
823.83	25027
823.97	24996
824.11	24882
824.25	24715
824.389	24890
824.529	24882
824.669	24947
824.809	25046
824.949	24924
825.089	24863
825.228	24764
825.368	24738
825.508	24661
825.648	24696
825.787	24764
825.927	24844
826.067	24711
826.206	24719
826.346	24795
826.485	24779
826.625	24616
826.765	24840
826.904	24825
827.044	24547
827.183	24521
827.323	24490
827.462	24494
827.601	24479
827.741	24395
827.88	24471
828.02	24330
828.159	24346
828.298	24407
828.437	24486
828.577	24384
828.716	24544
828.855	24437
828.994	24148
829.134	24266
829.273	24216
829.412	24087
829.551	23912
829.69	24117
829.829	24243
829.968	24098
830.107	24353
830.246	24186
830.385	24148
830.524	24079
830.663	24068
830.802	23889
830.941	23695
831.08	23646
831.219	23828
831.357	23855
831.496	23950
831.635	23817
831.774	23657
831.913	23638
832.051	23615
832.19	23531
832.329	23535
832.467	23406
832.606	23368
832.744	23440
832.883	23577
833.022	23455
833.16	23554
833.299	23512
833.437	23414
833.576	23581
833.714	23455
833.852	23596
833.991	23573
834.129	23467
834.267	23581
834.406	23436
834.544	23672
834.682	23440
834.821	23467
834.959	23786
835.097	23608
835.235	23623
835.373	23391
835.511	23528
835.65	23478
835.788	23406
835.926	23246
836.064	23246
836.202	23265
836.34	23452
836.478	23433
836.615	23273
836.753	23467
836.891	23471
837.029	23391
837.167	23288
837.305	23227
837.443	23151
837.58	23216
837.718	23303
837.856	23284
837.993	23258
838.131	23250
838.269	23071
838.406	22987
838.544	23083
838.681	22892
838.819	22843
838.956	22664
839.094	22618
839.231	22843
839.369	22934
839.506	23086
839.643	22923
839.781	22736
839.918	22592
840.055	22630
840.193	22736
840.33	22706
840.467	22611
840.604	22653
840.742	22892
840.879	22527
841.016	22653
841.153	22485
841.29	22736
841.427	22634
841.564	22774
841.701	22611
841.838	22592
841.975	22580
842.112	22527
842.249	22577
842.385	22394
842.522	22683
842.659	22459
842.796	22390
842.933	22409
843.069	22382
843.206	22295
843.343	22443
843.479	22417
843.616	22443
843.752	22204
843.889	22196
844.025	22344
844.162	22204
844.298	22207
844.435	22207
844.571	22128
844.708	22112
844.844	22333
844.98	22287
845.117	22234
845.253	22048
845.389	21945
845.525	22010
845.661	22116
845.798	21964
845.934	22051
846.07	21800
846.206	21884
846.342	21964
846.478	21918
846.614	21648
846.75	21690
846.886	21622
847.022	21694
847.158	21679
847.294	21641
847.429	21709
847.565	21652
847.701	21911
847.837	21481
847.972	21252
848.108	21439
848.244	21500
848.379	21313
848.515	21207
848.65	21131
848.786	21272
848.921	21127
849.057	21351
849.192	21302
849.328	21264
849.463	21222
849.598	21142
849.734	21104
849.869	21176
850.004	20975
850.14	21070
850.275	21032
850.41	20902
850.545	20861
850.68	21047
850.815	21100
850.95	21013
851.085	21173
851.22	20910
851.355	21058
851.49	20948
851.625	21009
851.76	21020
851.895	20910
852.03	20994
852.165	20990
852.299	21039
852.434	21100
852.569	21070
852.703	20998
852.838	21104
852.973	21264
853.107	21100
853.242	20933
853.376	20701
853.511	20720
853.645	20876
853.78	20800
853.914	20891
854.048	20788
854.183	20838
854.317	20876
854.451	21047
854.585	20762
854.72	20823
854.854	20963
854.988	20731
855.122	20834
855.256	20807
855.39	20872
855.524	20845
855.658	20842
855.792	20785
855.926	20918
856.06	20880
856.194	20925
856.327	20868
856.461	20754
856.595	20883
856.729	20804
856.862	20925
856.996	20743
857.13	20929
857.263	20948
857.397	20899
857.53	20857
857.664	20891
857.797	20868
857.931	20861
858.064	20800
858.197	20853
858.331	20773
858.464	20781
858.597	20743
858.731	20788
858.864	20823
858.997	20891
859.13	20815
859.263	20838
859.396	20918
859.529	20735
859.662	20777
859.795	20746
859.928	20876
860.061	20994
860.194	21131
860.327	20906
860.46	20807
860.592	20887
860.725	21028
860.858	21001
860.99	20834
861.123	20868
861.256	20815
861.388	20811
861.521	21637
861.653	20648
861.786	20594
861.918	20674
862.05	20655
862.183	20739
862.315	20765
862.447	20826
862.58	20731
862.712	20549
862.844	20492
862.976	20598
863.108	20686
863.24	20895
863.372	20522
863.504	20530
863.636	20606
863.768	20492
863.9	20568
864.032	20461
864.164	20427
864.296	20488
864.428	20617
864.559	20629
864.691	20583
864.823	20484
864.954	20454
865.086	20587
865.217	20533
865.349	20389
865.48	20480
865.612	20575
865.743	20598
865.875	20556
866.006	20404
866.137	20549
866.269	20492
866.4	20518
866.531	20480
866.662	20343
866.793	20381
866.924	20374
867.055	20469
867.186	20499
867.317	20362
867.448	20244
867.579	20415
867.71	20400
867.841	20210
867.972	20339
868.103	20351
868.233	20423
868.364	20419
868.495	20522
868.625	20727
868.756	20682
868.886	20560
869.017	20670
869.147	20724
869.278	20720
869.408	20609
869.539	20727
869.669	20697
869.799	20720
869.929	20807
870.06	20769
870.19	20952
870.32	20868
870.45	20967
870.58	21070
870.71	21062
870.84	21104
870.97	20933
871.1	21169
871.23	21188
871.36	21245
871.489	21135
871.619	21154
871.749	21154
871.879	21363
872.008	21264
872.138	21241
872.267	21310
872.397	21093
872.526	20895
872.656	20941
872.785	21028
872.915	21287
873.044	21291
873.173	21268
873.303	21287
873.432	21340
873.561	21317
873.69	21317
873.819	21332
873.948	21264
874.077	21211
874.206	21157
874.335	21310
874.464	21291
874.593	21496
874.722	21587
874.851	21538
874.979	21591
875.108	21682
875.237	21557
875.365	21397
875.494	21370
875.623	21435
875.751	21466
875.88	21553
876.008	21637
876.136	21663
876.265	21987
876.393	22105
876.521	21941
876.65	22067
876.778	21979
876.906	21793
877.034	21934
877.162	21781
877.29	21827
877.418	21895
877.546	21857
877.674	21899
877.802	21800
877.93	21937
878.058	21876
878.185	21778
878.313	21759
878.441	21922
878.568	21644
878.696	21884
878.824	21892
878.951	21899
879.079	21994
879.206	22048
879.333	21956
879.461	22013
879.588	22017
879.715	21987
879.842	22135
879.97	21873
880.097	21679
880.224	21720
880.351	21701
880.478	21667
880.605	21599
880.732	21698
880.859	21915
880.986	21614
881.112	21720
881.239	21515
881.366	21435
881.493	21397
881.619	21211
881.746	21321
881.872	21332
881.999	21173
882.125	21252
882.252	21241
882.378	21291
882.505	21389
882.631	21138
882.757	20967
882.883	21077
883.01	20971
883.136	20868
883.262	20788
883.388	20720
883.514	20941
883.64	20937
883.766	20971
883.892	20811
884.018	20765
884.143	20956
884.269	21039
884.395	20739
884.52	20575
884.646	20712
884.772	20590
884.897	20473
885.023	20693
885.148	20682
885.274	20758
885.399	20735
885.524	20606
885.65	20617
885.775	20674
885.9	20590
886.025	20727
886.15	20667
886.275	20541
886.4	20533
886.525	20606
886.65	20488
886.775	20560
886.9	20754
887.025	20853
887.149	20564
887.274	20465
887.399	20309
887.523	20358
887.648	20275
887.773	20240
887.897	20465
888.021	20533
888.146	20278
888.27	20583
888.395	20476
888.519	20358
888.643	20396
888.767	20358
888.891	20366
889.015	20278
889.139	20358
889.263	20073
889.387	20332
889.511	20522
889.635	20278
889.759	20202
889.883	20168
890.006	20210
890.13	20195
890.254	20180
890.377	20134
890.501	19925
890.624	19902
890.748	20031
890.871	19841
890.995	19753
891.118	19719
891.241	19731
891.364	19776
891.488	19906
891.611	19807
891.734	19719
891.857	19795
891.98	19753
892.103	19738
892.226	19750
892.349	19715
892.471	19476
892.594	19757
892.717	19780
892.839	19655
892.962	19674
893.085	19780
893.207	19700
893.33	19578
893.452	19655
893.575	19753
893.697	19708
893.819	19776
893.941	19932
894.064	19940
894.186	19582
894.308	19586
894.43	19803
894.552	19833
894.674	19837
894.796	19552
894.918	19651
895.04	19727
895.161	19734
895.283	19704
895.405	19521
895.526	19647
895.648	19738
895.769	19772
895.891	19723
896.012	19795
896.134	19662
896.255	19746
896.376	19563
896.498	19704
896.619	19704
896.74	19635
896.861	19658
896.982	19974
897.103	20058
897.224	19993
897.345	19986
897.466	19799
897.587	19902
897.708	19993
897.828	19925
897.949	19830
898.07	19704
898.19	19833
898.311	19993
898.431	19921
898.552	19947
898.672	20012
898.792	19959
898.913	19909
899.033	19715
899.153	19712
899.273	19590
899.393	19765
899.513	19772
899.633	19670
899.753	19723
899.873	19666
899.993	19628
900.113	19567
900.232	19658
900.352	19514
900.472	19453
900.591	19354
900.711	19354
900.83	19400
900.95	19514
901.069	19533
901.189	19278
901.308	19122
901.427	18977
901.546	18947
901.665	19091
901.784	19034
901.904	18878
902.023	18928
902.141	18555
902.26	18604
902.379	18681
902.498	18555
902.617	18525
902.735	18601
902.854	18547
902.973	18559
903.091	18270
903.21	18277
903.328	18209
903.446	18152
903.565	18049
903.683	18068
903.801	17908
903.919	18053
904.038	18019
904.156	17783
904.274	17912
904.392	17794
904.51	17870
904.627	17771
904.745	17821
904.863	17863
904.981	17589
905.098	17486
905.216	17459
905.334	17509
905.451	17585
905.569	17554
905.686	17478
905.803	17417
905.921	17277
906.038	17383
906.155	17299
906.272	17231
906.389	17239
906.506	17010
906.623	16949
906.74	17010
906.857	16881
906.974	16949
907.091	17056
907.208	17128
907.324	17041
907.441	16908
907.557	16774
907.674	16637
907.79	16656
907.907	16729
908.023	16767
908.139	16843
908.256	16713
908.372	16596
908.488	16626
908.604	16554
908.72	16447
908.836	16584
908.952	16394
909.068	16451
909.184	16504
909.3	16462
909.415	16523
909.531	16398
909.647	16207
909.762	16162
909.878	16166
909.993	16219
910.108	16150
910.224	16147
910.339	16207
910.454	16090
910.57	15998
910.685	15876
910.8	16226
910.915	16067
911.03	16010
911.145	15918
911.259	15819
911.374	15816
911.489	15671
911.604	15747
911.718	15538
911.833	15530
911.947	15580
912.062	15397
912.176	15526
912.291	15492
912.405	15530
912.519	15660
912.633	15747
912.748	15511
912.862	15538
912.976	15378
913.09	15325
913.204	15325
913.318	15291
913.431	15447
913.545	15412
913.659	15462
913.772	15313
913.886	15138
914	15249
914.113	15199
914.226	15169
914.34	15272
914.453	15055
914.566	15165
914.68	15123
914.793	15085
914.906	14880
915.019	14762
915.132	14674
915.245	14705
915.358	14686
915.47	14708
915.583	14720
915.696	14785
915.809	14921
915.921	14876
916.034	14686
916.146	14708
916.259	14727
916.371	14781
916.483	14762
916.595	14503
916.708	14632
916.82	14610
916.932	14560
917.044	14571
917.156	14564
917.268	14438
917.38	14488
917.491	14431
917.603	14530
917.715	14465
917.826	14514
917.938	14278
918.049	14263
918.161	14473
918.272	14465
918.384	14541
918.495	14381
918.606	14263
918.717	14161
918.828	14252
918.939	14339
919.05	14161
919.161	14183
919.272	13967
919.383	14126
919.494	14282
919.604	14370
919.715	14142
919.826	14043
919.936	14168
920.047	14263
920.157	14111
920.267	14415
920.378	14138
920.488	14107
920.598	14278
920.708	14541
920.818	14278
920.928	14343
921.038	14480
921.148	14450
921.258	14142
921.368	14027
921.477	13887
921.587	13837
921.697	13856
921.806	13841
921.916	13753
922.025	13567
922.134	13510
922.244	13472
922.353	13628
922.462	13293
922.571	13346
922.68	13297
922.789	13270
922.898	13179
923.007	13122
923.116	13263
923.224	13069
923.333	13137
923.442	13050
923.55	12943
923.659	13034
923.767	13183
923.876	12962
923.984	13088
924.092	12932
924.201	13053
924.309	12928
924.417	12985
924.525	12894
924.633	12951
924.741	13696
924.849	12722
924.956	12783
925.064	12639
925.172	12593
925.279	12601
925.387	12623
925.494	12654
925.602	12768
925.709	12692
925.816	12601
925.924	12635
926.031	12715
926.138	12612
926.245	12604
926.352	12517
926.459	12673
926.566	12635
926.673	12490
926.779	12448
926.886	12460
926.993	12308
927.099	12262
927.206	12148
927.312	12148
927.419	12182
927.525	12216
927.631	12243
927.737	12159
927.843	12030
927.95	11939
928.056	12060
928.162	12049
928.267	12178
928.373	12608
928.479	12133
928.585	11965
928.69	12045
928.796	11958
928.901	11893
929.007	11817
929.112	11878
929.218	11832
929.323	11798
929.428	11779
929.533	11916
929.638	11688
929.743	11786
929.848	11756
929.953	11756
930.058	11600
930.163	11410
930.267	11482
930.372	11577
930.477	11398
930.581	11737
930.685	11547
930.79	11356
930.894	11364
930.998	11364
931.103	11436
931.207	11124
931.311	11075
931.415	10987
931.519	10729
931.623	10740
