Data from test_V78500241_1668.txt Node
Date: Fri Mar 25 15:21:28 CST 2022
User: usil
Spectrometer: V785-0024
Trigger mode: 0
Integration Time (sec): 4.000000E-1
Scans to average: 1
Nonlinearity correction enabled: false
Boxcar width: 0
Storing dark spectrum: false
XAxis mode: Wavelengths
Number of Pixels in Spectrum: 1024
>>>>>Begin Spectral Data<<<<<
801.071	27930
801.214	27960
801.356	27682
801.499	27732
801.641	27519
801.783	27542
801.926	27572
802.068	27530
802.211	27545
802.353	27496
802.496	27146
802.638	27287
802.78	27237
802.923	27184
803.065	27013
803.208	27233
803.35	27176
803.492	27466
803.635	27230
803.777	27279
803.919	27408
804.061	27816
804.204	27420
804.346	27348
804.488	27256
804.63	27283
804.773	27264
804.915	27420
805.057	27507
805.199	27317
805.341	27416
805.483	27572
805.626	27538
805.768	27363
805.91	27614
806.052	27576
806.194	27393
806.336	27842
806.478	27701
806.62	27553
806.762	27694
806.904	27739
807.046	28112
807.188	27899
807.33	27918
807.472	28120
807.614	27895
807.756	27880
807.898	27720
808.04	27675
808.182	27633
808.324	27812
808.465	27892
808.607	28044
808.749	28166
808.891	28131
809.033	28360
809.174	28211
809.316	28124
809.458	28188
809.6	28101
809.741	28272
809.883	28272
810.025	28478
810.166	28557
810.308	28485
810.45	28314
810.591	28306
810.733	28036
810.875	28101
811.016	28044
811.158	28044
811.299	28299
811.441	28272
811.582	28192
811.724	27972
811.865	28177
812.007	28074
812.148	28234
812.29	28257
812.431	28337
812.573	28474
812.714	28527
812.855	28519
812.997	28771
813.138	28828
813.279	28752
813.421	28691
813.562	28656
813.703	28618
813.845	28382
813.986	28131
814.127	27922
814.268	27823
814.41	27823
814.551	27884
814.692	27918
814.833	27816
814.974	27854
815.115	27831
815.256	27709
815.397	27713
815.539	27713
815.68	27835
815.821	27682
815.962	27717
816.103	27603
816.244	27557
816.385	27439
816.526	27378
816.666	27279
816.807	27142
816.948	27279
817.089	27287
817.23	27161
817.371	27226
817.512	27226
817.653	27116
817.793	27108
817.934	27150
818.075	27138
818.216	27096
818.356	27051
818.497	27028
818.638	26830
818.778	26724
818.919	26845
819.06	26925
819.2	27032
819.341	27123
819.481	27093
819.622	27249
819.762	27580
819.903	27397
820.043	27317
820.184	27275
820.324	27344
820.465	27325
820.605	27260
820.746	27127
820.886	27020
821.026	27355
821.167	27104
821.307	27332
821.447	27222
821.588	26925
821.728	26940
821.868	26746
822.008	26708
822.149	26708
822.289	26663
822.429	26298
822.569	26305
822.709	26134
822.849	26138
822.99	26278
823.13	26100
823.27	26069
823.41	25951
823.55	25841
823.69	25879
823.83	26001
823.97	25947
824.11	25959
824.25	25689
824.389	25860
824.529	25898
824.669	25776
824.809	25871
824.949	25875
825.089	25822
825.228	25731
825.368	25655
825.508	25601
825.648	25635
825.787	25738
825.927	25811
826.067	25681
826.206	25670
826.346	25647
826.485	25685
826.625	25590
826.765	25761
826.904	25647
827.044	25407
827.183	25514
827.323	25396
827.462	25457
827.601	25411
827.741	25362
827.88	25362
828.02	25110
828.159	25487
828.298	25293
828.437	25320
828.577	25438
828.716	25403
828.855	25339
828.994	25046
829.134	25107
829.273	25004
829.412	25050
829.551	24958
829.69	25034
829.829	25099
829.968	25080
830.107	25088
830.246	25053
830.385	24989
830.524	24924
830.663	24863
830.802	24734
830.941	24661
831.08	24696
831.219	24711
831.357	24753
831.496	24935
831.635	24715
831.774	24635
831.913	24540
832.051	24475
832.19	24319
832.329	24479
832.467	24357
832.606	24437
832.744	24334
832.883	24262
833.022	24273
833.16	24376
833.299	24410
833.437	24273
833.576	24441
833.714	24414
833.852	24494
833.991	24475
834.129	24509
834.267	24490
834.406	24376
834.544	24540
834.682	24338
834.821	24452
834.959	24578
835.097	24403
835.235	24460
835.373	24467
835.511	24323
835.65	24323
835.788	24216
835.926	24163
836.064	24159
836.202	23980
836.34	24327
836.478	24376
836.615	24220
836.753	24232
836.891	24330
837.029	24186
837.167	24209
837.305	24125
837.443	24106
837.58	24087
837.718	24083
837.856	24163
837.993	23999
838.131	24102
838.269	24072
838.406	23977
838.544	23843
838.681	23707
838.819	23748
838.956	23566
839.094	23490
839.231	23627
839.369	23760
839.506	23946
839.643	23882
839.781	23611
839.918	23554
840.055	23589
840.193	23493
840.33	23531
840.467	23558
840.604	23596
840.742	23714
840.879	23265
841.016	23452
841.153	23345
841.29	23653
841.427	23516
841.564	23433
841.701	23493
841.838	23471
841.975	23299
842.112	23353
842.249	23391
842.385	23216
842.522	23406
842.659	23223
842.796	23235
842.933	23132
843.069	23311
843.206	23231
843.343	23395
843.479	23318
843.616	23208
843.752	23041
843.889	23083
844.025	23140
844.162	23010
844.298	23064
844.435	23014
844.571	22934
844.708	23022
844.844	23200
844.98	23086
845.117	23086
845.253	22984
845.389	22801
845.525	22980
845.661	22843
845.798	22755
845.934	22816
846.07	22744
846.206	22755
846.342	22839
846.478	22778
846.614	22386
846.75	22417
846.886	22356
847.022	22615
847.158	22443
847.294	22394
847.429	22470
847.565	22443
847.701	22793
847.837	22086
847.972	22246
848.108	22177
848.244	22303
848.379	22169
848.515	22032
848.65	22002
848.786	21953
848.921	22192
849.057	22173
849.192	22044
849.328	21975
849.463	22093
849.598	21983
849.734	21968
849.869	21835
850.004	21804
850.14	21789
850.275	21774
850.41	21827
850.545	21728
850.68	21812
850.815	21842
850.95	21854
851.085	21899
851.22	21770
851.355	21892
851.49	21694
851.625	21755
851.76	21770
851.895	21797
852.03	21816
852.165	21739
852.299	21903
852.434	21831
852.569	21861
852.703	21888
852.838	21934
852.973	21922
853.107	21972
853.242	21789
853.376	21759
853.511	21561
853.645	21633
853.78	21713
853.914	21705
854.048	21595
854.183	21652
854.317	21599
854.451	21781
854.585	21625
854.72	21606
854.854	21736
854.988	21492
855.122	21561
855.256	21595
855.39	21667
855.524	21736
855.658	21800
855.792	21485
855.926	21641
856.06	21606
856.194	21728
856.327	21732
856.461	21519
856.595	21496
856.729	21504
856.862	21797
856.996	21736
857.13	21682
857.263	21698
857.397	21667
857.53	21587
857.664	21599
857.797	21747
857.931	21713
858.064	21534
858.197	21667
858.331	21606
858.464	21542
858.597	21458
858.731	21633
858.864	21545
858.997	21652
859.13	21629
859.263	21641
859.396	21812
859.529	21549
859.662	21515
859.795	21671
859.928	21717
860.061	21804
860.194	21759
860.327	21701
860.46	21606
860.592	21705
860.725	21797
860.858	21663
860.99	21599
861.123	21587
861.256	21523
861.388	21534
861.521	22219
861.653	21587
861.786	21370
861.918	21526
862.05	21431
862.183	21511
862.315	21576
862.447	21583
862.58	21568
862.712	21283
862.844	21447
862.976	21477
863.108	21462
863.24	21842
863.372	21173
863.504	21302
863.636	21298
863.768	21397
863.9	21249
864.032	21165
864.164	21256
864.296	21428
864.428	21405
864.559	21374
864.691	21462
864.823	21199
864.954	21454
865.086	21298
865.217	21252
865.349	21146
865.48	21192
865.612	21306
865.743	21317
865.875	21207
866.006	21184
866.137	21416
866.269	21340
866.4	21218
866.531	21176
866.662	21024
866.793	21131
866.924	21207
867.055	21169
867.186	21218
867.317	21112
867.448	21180
867.579	21077
867.71	20937
867.841	21028
867.972	21188
868.103	21237
868.233	21298
868.364	21146
868.495	21222
868.625	21401
868.756	21538
868.886	21306
869.017	21492
869.147	21606
869.278	21591
869.408	21408
869.539	21431
869.669	21420
869.799	21412
869.929	21580
870.06	21458
870.19	21679
870.32	21728
870.45	21778
870.58	21679
870.71	21953
870.84	21808
870.97	21785
871.1	21800
871.23	21918
871.36	22044
871.489	21835
871.619	21842
871.749	22002
871.879	22101
872.008	22112
872.138	21918
872.267	21922
872.397	21907
872.526	21884
872.656	21797
872.785	21804
872.915	21960
873.044	22032
873.173	22063
873.303	21964
873.432	22143
873.561	22097
873.69	22040
873.819	22074
873.948	22158
874.077	22017
874.206	21911
874.335	21979
874.464	22059
874.593	22230
874.722	22097
874.851	22234
874.979	22268
875.108	22246
875.237	22177
875.365	22097
875.494	22234
875.623	22238
875.751	22249
875.88	22291
876.008	22356
876.136	22398
876.265	22523
876.393	22866
876.521	22744
876.65	22744
876.778	22675
876.906	22599
877.034	22622
877.162	22615
877.29	22557
877.418	22729
877.546	22519
877.674	22580
877.802	22611
877.93	22660
878.058	22542
878.185	22447
878.313	22569
878.441	22596
878.568	22413
878.696	22634
878.824	22577
878.951	22622
879.079	22725
879.206	22824
879.333	22702
879.461	22641
879.588	22611
879.715	22664
879.842	22736
879.97	22740
880.097	22462
880.224	22402
880.351	22367
880.478	22462
880.605	22428
880.732	22405
880.859	22687
880.986	22409
881.112	22306
881.239	22230
881.366	22177
881.493	22097
881.619	21998
881.746	22124
881.872	21968
881.999	21892
882.125	22036
882.252	22036
882.378	21960
882.505	21953
882.631	21846
882.757	21618
882.883	21835
883.01	21701
883.136	21671
883.262	21515
883.388	21408
883.514	21652
883.64	21526
883.766	21583
883.892	21416
884.018	21462
884.143	21564
884.269	21709
884.395	21431
884.52	21268
884.646	21291
884.772	21279
884.897	21222
885.023	21317
885.148	21325
885.274	21408
885.399	21317
885.524	21420
885.65	21332
885.775	21386
885.9	21260
886.025	21344
886.15	21386
886.275	21279
886.4	21268
886.525	21424
886.65	21165
886.775	21123
886.9	21393
887.025	21545
887.149	21230
887.274	21131
887.399	21081
887.523	21085
887.648	21039
887.773	20914
887.897	21001
888.021	21116
888.146	21058
888.27	21070
888.395	21135
888.519	21051
888.643	20963
888.767	21123
888.891	20880
889.015	20842
889.139	20929
889.263	20910
889.387	20956
889.511	21157
889.635	20910
889.759	20830
889.883	20785
890.006	21036
890.13	20944
890.254	20785
890.377	20838
890.501	20674
890.624	20507
890.748	20712
890.871	20484
890.995	20465
891.118	20408
891.241	20549
891.364	20469
891.488	20533
891.611	20442
891.734	20492
891.857	20370
891.98	20545
892.103	20469
892.226	20457
892.349	20389
892.471	20233
892.594	20347
892.717	20396
892.839	20336
892.962	20374
893.085	20476
893.207	20355
893.33	20252
893.452	20267
893.575	20328
893.697	20408
893.819	20434
893.941	20640
894.064	20583
894.186	20256
894.308	20183
894.43	20343
894.552	20480
894.674	20374
894.796	20328
894.918	20301
895.04	20161
895.161	20275
895.283	20408
895.405	20370
895.526	20317
895.648	20229
895.769	20324
895.891	20301
896.012	20469
896.134	20457
896.255	20347
896.376	20358
896.498	20210
896.619	20377
896.74	20324
896.861	20381
896.982	20644
897.103	20826
897.224	20541
897.345	20484
897.466	20400
897.587	20556
897.708	20556
897.828	20583
897.949	20526
898.07	20370
898.19	20393
898.311	20678
898.431	20507
898.552	20412
898.672	20507
898.792	20560
898.913	20579
899.033	20461
899.153	20343
899.273	20248
899.393	20218
899.513	20233
899.633	20374
899.753	20305
899.873	20187
899.993	20343
900.113	20336
900.232	20263
900.352	20267
900.472	19993
900.591	20020
900.711	20069
900.83	19917
900.95	20149
901.069	20073
901.189	19978
901.308	19651
901.427	19639
901.546	19655
901.665	19609
901.784	19662
901.904	19430
902.023	19426
902.141	19263
902.26	19228
902.379	19304
902.498	19168
902.617	19114
902.735	19103
902.854	19255
902.973	18962
903.091	18840
903.21	18810
903.328	18825
903.446	18825
903.565	18608
903.683	18544
903.801	18483
903.919	18544
904.038	18570
904.156	18380
904.274	18357
904.392	18334
904.51	18391
904.627	18338
904.745	18353
904.863	18407
904.981	18178
905.098	18064
905.216	18087
905.334	18057
905.451	18072
905.569	18034
905.686	18011
905.803	18007
905.921	17950
906.038	17942
906.155	17821
906.272	17752
906.389	17775
906.506	17573
906.623	17562
906.74	17608
906.857	17528
906.974	17463
907.091	17558
907.208	17657
907.324	17630
907.441	17532
907.557	17265
907.674	17273
907.79	17284
907.907	17155
908.023	17406
908.139	17349
908.256	17265
908.372	17143
908.488	17242
908.604	17071
908.72	16972
908.836	16961
908.952	17083
909.068	17094
909.184	17140
909.3	17056
909.415	17037
909.531	17064
909.647	16763
909.762	16664
909.878	16755
909.993	16675
910.108	16630
910.224	16687
910.339	16626
910.454	16664
910.57	16618
910.685	16519
910.8	16637
910.915	16672
911.03	16474
911.145	16344
911.259	16344
911.374	16234
911.489	16242
911.604	16169
911.718	16029
911.833	16025
911.947	15926
912.062	15903
912.176	16010
912.291	16158
912.405	15987
912.519	16223
912.633	16177
912.748	16097
912.862	16029
912.976	15960
913.09	15797
913.204	15804
913.318	15846
913.431	15983
913.545	16029
913.659	15975
913.772	15835
913.886	15701
914	15633
914.113	15747
914.226	15724
914.34	15610
914.453	15561
914.566	15652
914.68	15542
914.793	15447
914.906	15363
915.019	15306
915.132	15211
915.245	15294
915.358	15260
915.47	15268
915.583	15237
915.696	15222
915.809	15393
915.921	15378
916.034	15188
916.146	15150
916.259	15058
916.371	15264
916.483	15207
916.595	15036
916.708	15055
916.82	15058
916.932	15043
917.044	15009
917.156	15001
917.268	14952
917.38	14998
917.491	14921
917.603	14925
917.715	15017
917.826	15020
917.938	14785
918.049	14788
918.161	14857
918.272	15009
918.384	15028
918.495	14815
918.606	14613
918.717	14568
918.828	14727
918.939	14670
919.05	14579
919.161	14667
919.272	14419
919.383	14564
919.494	14632
919.604	14796
919.715	14571
919.826	14625
919.936	14610
920.047	14629
920.157	14648
920.267	14819
920.378	14670
920.488	14484
920.598	14727
920.708	15001
920.818	14712
920.928	14743
921.038	14857
921.148	14880
921.258	14495
921.368	14564
921.477	14415
921.587	14358
921.697	14290
921.806	14278
921.916	14210
922.025	14031
922.134	14081
922.244	13940
922.353	14077
922.462	13772
922.571	13849
922.68	13715
922.789	13685
922.898	13582
923.007	13609
923.116	13552
923.224	13620
923.333	13590
923.442	13480
923.55	13483
923.659	13365
923.767	13567
923.876	13377
923.984	13445
924.092	13407
924.201	13354
924.309	13384
924.417	13388
924.525	13343
924.633	13343
924.741	14103
924.849	13099
924.956	13320
925.064	13126
925.172	12954
925.279	13034
925.387	13046
925.494	13042
925.602	13118
925.709	13065
925.816	12939
925.924	12996
926.031	13137
926.138	13046
926.245	13046
926.352	12920
926.459	13084
926.566	13015
926.673	12867
926.779	12779
926.886	12741
926.993	12665
927.099	12639
927.206	12597
927.312	12559
927.419	12646
927.525	12536
927.631	12467
927.737	12498
927.843	12506
927.95	12342
928.056	12460
928.162	12441
928.267	12566
928.373	13034
928.479	12513
928.585	12296
928.69	12403
928.796	12369
928.901	12251
929.007	12144
929.112	12258
929.218	12273
929.323	12155
929.428	12125
929.533	12266
929.638	12068
929.743	12125
929.848	12114
929.953	12007
930.058	11992
930.163	11809
930.267	11904
930.372	11988
930.477	11748
930.581	11980
930.685	11893
930.79	11665
930.894	11764
930.998	11775
931.103	11847
931.207	11524
931.311	11387
931.415	11273
931.519	11140
931.623	11056
