Data from test_V78500241_51.txt Node
Date: Fri Mar 25 15:10:13 CST 2022
User: usil
Spectrometer: V785-0024
Trigger mode: 0
Integration Time (sec): 4.000000E-1
Scans to average: 1
Nonlinearity correction enabled: false
Boxcar width: 0
Storing dark spectrum: false
XAxis mode: Wavelengths
Number of Pixels in Spectrum: 1024
>>>>>Begin Spectral Data<<<<<
801.071	28801
801.214	28831
801.356	28531
801.499	28371
801.641	28352
801.783	28401
801.926	28314
802.068	28371
802.211	28238
802.353	28196
802.496	27979
802.638	27854
802.78	27854
802.923	27816
803.065	27831
803.208	27892
803.35	27861
803.492	28013
803.635	28017
803.777	27975
803.919	28166
804.061	28303
804.204	28040
804.346	27968
804.488	27972
804.63	27922
804.773	27892
804.915	27991
805.057	27991
805.199	27873
805.341	28135
805.483	28200
805.626	28036
805.768	27956
805.91	27949
806.052	28086
806.194	28074
806.336	28268
806.478	28207
806.62	28116
806.762	28192
806.904	28306
807.046	28546
807.188	28493
807.33	28436
807.472	28474
807.614	28295
807.756	28367
807.898	28234
808.04	28268
808.182	28287
808.324	28310
808.465	28226
808.607	28363
808.749	28596
808.891	28630
809.033	28706
809.174	28698
809.316	28451
809.458	28592
809.6	28577
809.741	28656
809.883	28584
810.025	28752
810.166	28755
810.308	28809
810.45	28668
810.591	28713
810.733	28527
810.875	28531
811.016	28295
811.158	28459
811.299	28607
811.441	28615
811.582	28618
811.724	28519
811.865	28398
812.007	28497
812.148	28436
812.29	28580
812.431	28786
812.573	28771
812.714	28938
812.855	28927
812.997	29029
813.138	29254
813.279	29018
813.421	28949
813.562	28763
813.703	28786
813.845	28622
813.986	28246
814.127	28177
814.268	28010
814.41	28116
814.551	27991
814.692	28097
814.833	27998
814.974	27991
815.115	28109
815.256	27945
815.397	27991
815.539	27861
815.68	27850
815.821	27724
815.962	27827
816.103	27770
816.244	27515
816.385	27469
816.526	27568
816.666	27363
816.807	27336
816.948	27329
817.089	27401
817.23	27378
817.371	27233
817.512	27317
817.653	27195
817.793	27096
817.934	27203
818.075	27256
818.216	27294
818.356	27150
818.497	26933
818.638	26876
818.778	26849
818.919	26811
819.06	26948
819.2	27032
819.341	27119
819.481	27169
819.622	27298
819.762	27450
819.903	27355
820.043	27192
820.184	27211
820.324	27077
820.465	27287
820.605	27226
820.746	27104
820.886	26994
821.026	27089
821.167	27039
821.307	27207
821.447	27009
821.588	26857
821.728	26883
821.868	26636
822.008	26541
822.149	26670
822.289	26377
822.429	26275
822.569	26244
822.709	26229
822.849	25989
822.99	25989
823.13	25921
823.27	25883
823.41	25776
823.55	25556
823.69	25852
823.83	25822
823.97	25894
824.11	25578
824.25	25620
824.389	25590
824.529	25685
824.669	25552
824.809	25537
824.949	25651
825.089	25567
825.228	25628
825.368	25354
825.508	25312
825.648	25343
825.787	25266
825.927	25525
826.067	25369
826.206	25369
826.346	25346
826.485	25411
826.625	25278
826.765	25400
826.904	25438
827.044	25209
827.183	25217
827.323	24985
827.462	25213
827.601	25057
827.741	25053
827.88	25072
828.02	24973
828.159	24901
828.298	25168
828.437	25072
828.577	24939
828.716	25046
828.855	24886
828.994	24741
829.134	24711
829.273	24673
829.412	24517
829.551	24700
829.69	24722
829.829	24661
829.968	24669
830.107	24711
830.246	24616
830.385	24677
830.524	24612
830.663	24429
830.802	24262
830.941	24330
831.08	24106
831.219	24342
831.357	24266
831.496	24437
831.635	24213
831.774	24022
831.913	24034
832.051	23988
832.19	23927
832.329	24049
832.467	23794
832.606	23847
832.744	23843
832.883	23771
833.022	23836
833.16	23832
833.299	23790
833.437	23901
833.576	23908
833.714	24026
833.852	23870
833.991	23920
834.129	23999
834.267	24041
834.406	23859
834.544	23946
834.682	23885
834.821	23885
834.959	23935
835.097	23748
835.235	23840
835.373	23821
835.511	23741
835.65	23748
835.788	23691
835.926	23490
836.064	23524
836.202	23497
836.34	23726
836.478	23802
836.615	23764
836.753	23695
836.891	23752
837.029	23661
837.167	23585
837.305	23509
837.443	23478
837.58	23474
837.718	23566
837.856	23467
837.993	23566
838.131	23444
838.269	23463
838.406	23406
838.544	23311
838.681	23166
838.819	23242
838.956	22961
839.094	22995
839.231	22991
839.369	23003
839.506	23364
839.643	23223
839.781	22984
839.918	22839
840.055	22911
840.193	22786
840.33	22877
840.467	22691
840.604	22778
840.742	23102
840.879	22664
841.016	22634
841.153	22656
841.29	22908
841.427	22736
841.564	22885
841.701	22839
841.838	22622
841.975	22649
842.112	22668
842.249	22554
842.385	22466
842.522	22664
842.659	22573
842.796	22485
842.933	22565
843.069	22394
843.206	22405
843.343	22519
843.479	22550
843.616	22451
843.752	22284
843.889	22261
844.025	22318
844.162	22131
844.298	22188
844.435	22394
844.571	22150
844.708	22211
844.844	22337
844.98	22310
845.117	22272
845.253	22154
845.389	22090
845.525	22055
845.661	21972
845.798	22006
845.934	22032
846.07	21926
846.206	21956
846.342	22013
846.478	21873
846.614	21732
846.75	21595
846.886	21755
847.022	21728
847.158	21724
847.294	21732
847.429	21644
847.565	21583
847.701	21895
847.837	21405
847.972	21435
848.108	21374
848.244	21526
848.379	21275
848.515	21260
848.65	21230
848.786	21233
848.921	21226
849.057	21306
849.192	21249
849.328	21207
849.463	21195
849.598	21199
849.734	21116
849.869	21051
850.004	20941
850.14	21024
850.275	21024
850.41	20971
850.545	20861
850.68	20929
850.815	20967
850.95	20788
851.085	20990
851.22	21142
851.355	20937
851.49	20906
851.625	20758
851.76	20842
851.895	20910
852.03	20724
852.165	20849
852.299	20982
852.434	21009
852.569	21051
852.703	20979
852.838	20960
852.973	21085
853.107	21055
853.242	20876
853.376	20876
853.511	20632
853.645	20720
853.78	20849
853.914	20762
854.048	20708
854.183	20629
854.317	20758
854.451	20933
854.585	20758
854.72	20708
854.854	20693
854.988	20686
855.122	20689
855.256	20594
855.39	20644
855.524	20785
855.658	20788
855.792	20667
855.926	20670
856.06	20891
856.194	20777
856.327	20693
856.461	20613
856.595	20640
856.729	20674
856.862	20663
856.996	20800
857.13	20800
857.263	20899
857.397	20788
857.53	20720
857.664	20724
857.797	20689
857.931	20838
858.064	20754
858.197	20902
858.331	20617
858.464	20609
858.597	20499
858.731	20625
858.864	20549
858.997	20564
859.13	20762
859.263	20640
859.396	20693
859.529	20621
859.662	20583
859.795	20602
859.928	20644
860.061	20754
860.194	20887
860.327	20693
860.46	20682
860.592	20758
860.725	20925
860.858	20655
860.99	20590
861.123	20587
861.256	20484
861.388	20613
861.521	21245
861.653	20556
861.786	20457
861.918	20370
862.05	20583
862.183	20632
862.315	20693
862.447	20682
862.58	20507
862.712	20476
862.844	20313
862.976	20389
863.108	20457
863.24	20830
863.372	20275
863.504	20336
863.636	20358
863.768	20450
863.9	20339
864.032	20305
864.164	20229
864.296	20282
864.428	20286
864.559	20332
864.691	20408
864.823	20343
864.954	20313
865.086	20336
865.217	20157
865.349	20111
865.48	20176
865.612	20180
865.743	20256
865.875	20191
866.006	20168
866.137	20176
866.269	20199
866.4	20252
866.531	20225
866.662	20084
866.793	20103
866.924	20092
867.055	20180
867.186	20130
867.317	20244
867.448	19925
867.579	20073
867.71	19967
867.841	20058
867.972	20153
868.103	20107
868.233	20126
868.364	20145
868.495	20122
868.625	20263
868.756	20537
868.886	20294
869.017	20355
869.147	20385
869.278	20530
869.408	20419
869.539	20347
869.669	20495
869.799	20457
869.929	20549
870.06	20480
870.19	20716
870.32	20613
870.45	20659
870.58	20781
870.71	20868
870.84	20880
870.97	20769
871.1	20758
871.23	20842
871.36	20952
871.489	20944
871.619	20880
871.749	20914
871.879	20986
872.008	21161
872.138	21024
872.267	20967
872.397	20788
872.526	20826
872.656	20861
872.785	20670
872.915	21017
873.044	21112
873.173	20849
873.303	21005
873.432	21024
873.561	21089
873.69	21020
873.819	21013
873.948	21066
874.077	21001
874.206	20937
874.335	20952
874.464	21047
874.593	21184
874.722	21077
874.851	21329
874.979	21272
875.108	21317
875.237	21199
875.365	21108
875.494	21176
875.623	21348
875.751	21272
875.88	21245
876.008	21367
876.136	21386
876.265	21652
876.393	21819
876.521	21728
876.65	21732
876.778	21500
876.906	21561
877.034	21583
877.162	21572
877.29	21534
877.418	21557
877.546	21549
877.674	21644
877.802	21576
877.93	21595
878.058	21549
878.185	21382
878.313	21511
878.441	21660
878.568	21386
878.696	21622
878.824	21606
878.951	21663
879.079	21648
879.206	21911
879.333	21633
879.461	21755
879.588	21785
879.715	21724
879.842	21812
879.97	21736
880.097	21458
880.224	21336
880.351	21412
880.478	21378
880.605	21313
880.732	21435
880.859	21595
880.986	21538
881.112	21473
881.239	21287
881.366	21161
881.493	21009
881.619	20975
881.746	21077
881.872	21085
881.999	20971
882.125	20910
882.252	21081
882.378	20998
882.505	21043
882.631	20743
882.757	20758
882.883	20849
883.01	20880
883.136	20731
883.262	20556
883.388	20495
883.514	20678
883.64	20872
883.766	20590
883.892	20503
884.018	20473
884.143	20632
884.269	20743
884.395	20488
884.52	20408
884.646	20358
884.772	20370
884.897	20210
885.023	20370
885.148	20423
885.274	20522
885.399	20575
885.524	20347
885.65	20351
885.775	20400
885.9	20385
886.025	20507
886.15	20495
886.275	20256
886.4	20305
886.525	20305
886.65	20214
886.775	20229
886.9	20434
887.025	20640
887.149	20427
887.274	20225
887.399	20077
887.523	20103
887.648	20069
887.773	19959
887.897	20081
888.021	20187
888.146	19986
888.27	20157
888.395	20267
888.519	20119
888.643	20050
888.767	20195
888.891	20024
889.015	19917
889.139	19967
889.263	19917
889.387	20016
889.511	20043
889.635	20024
889.759	19860
889.883	19913
890.006	19898
890.13	20107
890.254	19887
890.377	19765
890.501	19765
890.624	19624
890.748	19647
890.871	19700
890.995	19438
891.118	19441
891.241	19468
891.364	19491
891.488	19696
891.611	19476
891.734	19434
891.857	19613
891.98	19487
892.103	19518
892.226	19506
892.349	19460
892.471	19320
892.594	19438
892.717	19491
892.839	19438
892.962	19434
893.085	19495
893.207	19502
893.33	19343
893.452	19255
893.575	19449
893.697	19381
893.819	19521
893.941	19674
894.064	19575
894.186	19316
894.308	19308
894.43	19537
894.552	19590
894.674	19460
894.796	19316
894.918	19556
895.04	19381
895.161	19468
895.283	19460
895.405	19377
895.526	19438
895.648	19407
895.769	19449
895.891	19464
896.012	19441
896.134	19502
896.255	19403
896.376	19381
896.498	19430
896.619	19510
896.74	19411
896.861	19495
896.982	19791
897.103	19944
897.224	19776
897.345	19742
897.466	19723
897.587	19700
897.708	19879
897.828	19750
897.949	19582
898.07	19480
898.19	19628
898.311	19677
898.431	19639
898.552	19715
898.672	19723
898.792	19788
898.913	19525
899.033	19480
899.153	19343
899.273	19335
899.393	19369
899.513	19472
899.633	19411
899.753	19373
899.873	19175
899.993	19327
900.113	19259
900.232	19392
900.352	19426
900.472	19114
900.591	19152
900.711	19236
900.83	19076
900.95	19285
901.069	19278
901.189	19171
901.308	18966
901.427	18711
901.546	18715
901.665	18764
901.784	18719
901.904	18578
902.023	18372
902.141	18350
902.26	18350
902.379	18357
902.498	18361
902.617	18228
902.735	18273
902.854	18273
902.973	18178
903.091	17954
903.21	17851
903.328	17946
903.446	17874
903.565	17737
903.683	17790
903.801	17547
903.919	17691
904.038	17783
904.156	17562
904.274	17615
904.392	17497
904.51	17486
904.627	17532
904.745	17551
904.863	17611
904.981	17288
905.098	17254
905.216	17159
905.334	17235
905.451	17147
905.569	17117
905.686	17212
905.803	17193
905.921	16991
906.038	16976
906.155	16976
906.272	16919
906.389	16915
906.506	16733
906.623	16721
906.74	16679
906.857	16580
906.974	16634
907.091	16740
907.208	16869
907.324	16698
907.441	16626
907.557	16508
907.674	16417
907.79	16352
907.907	16379
908.023	16402
908.139	16402
908.256	16299
908.372	16371
908.488	16291
908.604	16086
908.72	16067
908.836	15968
908.952	16097
909.068	16071
909.184	16200
909.3	16090
909.415	16147
909.531	15964
909.647	15816
909.762	15876
909.878	15705
909.993	15876
910.108	15808
910.224	15736
910.339	15724
910.454	15644
910.57	15553
910.685	15595
910.8	15823
910.915	15732
911.03	15641
911.145	15469
911.259	15287
911.374	15447
911.489	15313
911.604	15275
911.718	15093
911.833	15089
911.947	15142
912.062	14819
912.176	15051
912.291	15123
912.405	14982
912.519	15268
912.633	15249
912.748	15150
912.862	15077
912.976	14944
913.09	14857
913.204	14963
913.318	14876
913.431	14967
913.545	15108
913.659	15028
913.772	14921
913.886	14765
914	14788
914.113	14830
914.226	14880
914.34	14823
914.453	14610
914.566	14754
914.68	14674
914.793	14636
914.906	14320
915.019	14431
915.132	14294
915.245	14473
915.358	14396
915.47	14290
915.583	14415
915.696	14385
915.809	14625
915.921	14610
916.034	14336
916.146	14377
916.259	14183
916.371	14442
916.483	14298
916.595	14317
916.708	14180
916.82	14278
916.932	14248
917.044	14164
917.156	14199
917.268	14046
917.38	14088
917.491	14058
917.603	14069
917.715	14138
917.826	14153
917.938	13928
918.049	13906
918.161	14008
918.272	14138
918.384	14119
918.495	14062
918.606	13837
918.717	13715
918.828	13898
918.939	13925
919.05	13784
919.161	13864
919.272	13586
919.383	13693
919.494	13841
919.604	14043
919.715	13788
919.826	13700
919.936	13803
920.047	13894
920.157	13887
920.267	13963
920.378	13814
920.488	13753
920.598	14001
920.708	14069
920.818	13849
920.928	13928
921.038	14024
921.148	14050
921.258	13708
921.368	13689
921.477	13510
921.587	13514
921.697	13373
921.806	13438
921.916	13400
922.025	13206
922.134	13175
922.244	13038
922.353	13187
922.462	12993
922.571	12981
922.68	12764
922.789	12715
922.898	12901
923.007	12764
923.116	12738
923.224	12791
923.333	12707
923.442	12711
923.55	12585
923.659	12642
923.767	12734
923.876	12639
923.984	12612
924.092	12471
924.201	12521
924.309	12574
924.417	12608
924.525	12513
924.633	12486
924.741	13232
924.849	12205
924.956	12422
925.064	12338
925.172	12247
925.279	12209
925.387	12304
925.494	12327
925.602	12365
925.709	12346
925.816	12175
925.924	12175
926.031	12330
926.138	12232
926.245	12266
926.352	12220
926.459	12323
926.566	12258
926.673	12155
926.779	12045
926.886	12003
926.993	11710
927.099	11901
927.206	11821
927.312	11771
927.419	11817
927.525	11726
927.631	11828
927.737	11737
927.843	11703
927.95	11589
928.056	11661
928.162	11745
928.267	11748
928.373	12327
928.479	11767
928.585	11493
928.69	11634
928.796	11634
928.901	11532
929.007	11341
929.112	11501
929.218	11497
929.323	11440
929.428	11459
929.533	11532
929.638	11360
929.743	11353
929.848	11334
929.953	11326
930.058	11258
930.163	11105
930.267	11109
930.372	11231
930.477	11105
930.581	11261
930.685	11045
930.79	10942
930.894	11064
930.998	10900
931.103	11064
931.207	10710
931.311	10649
931.415	10630
931.519	10303
931.623	10360
