Data from test_V78500241_2696.txt Node
Date: Fri Mar 25 15:28:37 CST 2022
User: usil
Spectrometer: V785-0024
Trigger mode: 0
Integration Time (sec): 4.000000E-1
Scans to average: 1
Nonlinearity correction enabled: false
Boxcar width: 0
Storing dark spectrum: false
XAxis mode: Wavelengths
Number of Pixels in Spectrum: 1024
>>>>>Begin Spectral Data<<<<<
801.071	27062
801.214	26891
801.356	26735
801.499	26712
801.641	26366
801.783	26385
801.926	26636
802.068	26549
802.211	26507
802.353	26450
802.496	26233
802.638	26187
802.78	26195
802.923	26115
803.065	26122
803.208	26077
803.35	26164
803.492	26294
803.635	26301
803.777	26172
803.919	26282
804.061	26560
804.204	26221
804.346	26252
804.488	26256
804.63	26183
804.773	26358
804.915	26355
805.057	26469
805.199	26309
805.341	26351
805.483	26492
805.626	26381
805.768	26290
805.91	26370
806.052	26564
806.194	26412
806.336	26640
806.478	26419
806.62	26484
806.762	26499
806.904	26674
807.046	26838
807.188	26823
807.33	26781
807.472	26823
807.614	26750
807.756	26727
807.898	26644
808.04	26689
808.182	26712
808.324	26579
808.465	26598
808.607	26838
808.749	27058
808.891	26944
809.033	27157
809.174	27024
809.316	27051
809.458	27051
809.6	26857
809.741	26975
809.883	27230
810.025	27313
810.166	27226
810.308	27138
810.45	27393
810.591	27127
810.733	27055
810.875	26895
811.016	26986
811.158	26887
811.299	27138
811.441	27108
811.582	27218
811.724	26982
811.865	26899
812.007	27024
812.148	26937
812.29	26918
812.431	27093
812.573	27226
812.714	27500
812.855	27447
812.997	27504
813.138	27701
813.279	27595
813.421	27572
813.562	27420
813.703	27283
813.845	27131
813.986	26849
814.127	26716
814.268	26758
814.41	26651
814.551	26571
814.692	26720
814.833	26492
814.974	26552
815.115	26587
815.256	26427
815.397	26484
815.539	26594
815.68	26347
815.821	26415
815.962	26514
816.103	26419
816.244	26259
816.385	26210
816.526	26161
816.666	25974
816.807	25940
816.948	25982
817.089	26081
817.23	25928
817.371	25955
817.512	25993
817.653	25951
817.793	25826
817.934	25894
818.075	25921
818.216	25909
818.356	25906
818.497	25837
818.638	25719
818.778	25567
818.919	25537
819.06	25750
819.2	25818
819.341	25761
819.481	25936
819.622	26054
819.762	26229
819.903	26149
820.043	25883
820.184	25925
820.324	26054
820.465	26001
820.605	25978
820.746	25898
820.886	25845
821.026	26008
821.167	25883
821.307	25997
821.447	26020
821.588	25807
821.728	25757
821.868	25449
822.008	25358
822.149	25449
822.289	25400
822.429	25126
822.569	25133
822.709	25095
822.849	24916
822.99	24977
823.13	24719
823.27	24783
823.41	24745
823.55	24612
823.69	24764
823.83	24722
823.97	24608
824.11	24528
824.25	24369
824.389	24631
824.529	24509
824.669	24528
824.809	24661
824.949	24570
825.089	24673
825.228	24639
825.368	24342
825.508	24353
825.648	24422
825.787	24327
825.927	24414
826.067	24353
826.206	24247
826.346	24327
826.485	24429
826.625	24441
826.765	24407
826.904	24509
827.044	24220
827.183	24121
827.323	24110
827.462	24011
827.601	24026
827.741	24136
827.88	24095
828.02	23965
828.159	23954
828.298	24110
828.437	24174
828.577	24007
828.716	24076
828.855	23916
828.994	23817
829.134	23840
829.273	23817
829.412	23737
829.551	23661
829.69	23840
829.829	23855
829.968	23859
830.107	23794
830.246	23767
830.385	23794
830.524	23718
830.663	23726
830.802	23505
830.941	23410
831.08	23372
831.219	23482
831.357	23471
831.496	23695
831.635	23440
831.774	23288
831.913	23227
832.051	23227
832.19	23162
832.329	23307
832.467	23067
832.606	23033
832.744	23003
832.883	23094
833.022	23052
833.16	23147
833.299	23162
833.437	23044
833.576	23223
833.714	23098
833.852	23223
833.991	23288
834.129	23277
834.267	23151
834.406	23174
834.544	23170
834.682	23178
834.821	23181
834.959	23261
835.097	23094
835.235	23170
835.373	23136
835.511	23178
835.65	23022
835.788	23109
835.926	22911
836.064	22908
836.202	22820
836.34	22946
836.478	23098
836.615	23018
836.753	23029
836.891	23143
837.029	22984
837.167	22942
837.305	22908
837.443	22930
837.58	22889
837.718	22839
837.856	22778
837.993	22866
838.131	22889
838.269	22694
838.406	22774
838.544	22729
838.681	22424
838.819	22447
838.956	22299
839.094	22360
839.231	22348
839.369	22440
839.506	22702
839.643	22626
839.781	22344
839.918	22287
840.055	22360
840.193	22360
840.33	22128
840.467	22287
840.604	22291
840.742	22535
840.879	22116
841.016	22185
841.153	22124
841.29	22242
841.427	22276
841.564	22291
841.701	22207
841.838	22147
841.975	22169
842.112	22158
842.249	22063
842.385	22154
842.522	22253
842.659	22116
842.796	22036
842.933	22055
843.069	22036
843.206	22040
843.343	22112
843.479	21983
843.616	21865
843.752	21766
843.889	21652
844.025	22032
844.162	21732
844.298	21884
844.435	21728
844.571	21652
844.708	21888
844.844	21975
844.98	21808
845.117	21884
845.253	21770
845.389	21587
845.525	21808
845.661	21656
845.798	21568
845.934	21610
846.07	21481
846.206	21587
846.342	21557
846.478	21504
846.614	21279
846.75	21203
846.886	21268
847.022	21370
847.158	21359
847.294	21268
847.429	21389
847.565	21256
847.701	21530
847.837	21005
847.972	20914
848.108	20975
848.244	21108
848.379	20906
848.515	20902
848.65	20834
848.786	20804
848.921	20918
849.057	20948
849.192	20921
849.328	20975
849.463	20826
849.598	20720
849.734	20857
849.869	20693
850.004	20549
850.14	20594
850.275	20750
850.41	20552
850.545	20526
850.68	20598
850.815	20667
850.95	20659
851.085	20788
851.22	20743
851.355	20571
851.49	20568
851.625	20640
851.76	20598
851.895	20629
852.03	20667
852.165	20838
852.299	20678
852.434	20682
852.569	20629
852.703	20621
852.838	20735
852.973	20762
853.107	20765
853.242	20655
853.376	20434
853.511	20423
853.645	20423
853.78	20609
853.914	20560
854.048	20484
854.183	20476
854.317	20568
854.451	20644
854.585	20480
854.72	20522
854.854	20484
854.988	20465
855.122	20533
855.256	20492
855.39	20446
855.524	20648
855.658	20579
855.792	20518
855.926	20415
856.06	20651
856.194	20434
856.327	20446
856.461	20423
856.595	20309
856.729	20476
856.862	20533
856.996	20526
857.13	20556
857.263	20629
857.397	20507
857.53	20438
857.664	20511
857.797	20431
857.931	20549
858.064	20568
858.197	20712
858.331	20385
858.464	20427
858.597	20377
858.731	20450
858.864	20499
858.997	20408
859.13	20446
859.263	20473
859.396	20545
859.529	20492
859.662	20434
859.795	20473
859.928	20415
860.061	20678
860.194	20693
860.327	20533
860.46	20480
860.592	20602
860.725	20625
860.858	20511
860.99	20503
861.123	20374
861.256	20404
861.388	20503
861.521	21043
861.653	20385
861.786	20191
861.918	20275
862.05	20298
862.183	20419
862.315	20400
862.447	20461
862.58	20343
862.712	20271
862.844	20115
862.976	20199
863.108	20157
863.24	20629
863.372	20130
863.504	20153
863.636	20134
863.768	20214
863.9	20153
864.032	20145
864.164	20100
864.296	20187
864.428	20183
864.559	20278
864.691	20320
864.823	20305
864.954	20164
865.086	20161
865.217	20122
865.349	20069
865.48	20054
865.612	20149
865.743	20218
865.875	20161
866.006	19974
866.137	20199
866.269	20107
866.4	20100
866.531	19978
866.662	20069
866.793	20058
866.924	20012
867.055	20115
867.186	20187
867.317	19986
867.448	19925
867.579	19989
867.71	20005
867.841	19890
867.972	20081
868.103	20046
868.233	20008
868.364	20145
868.495	20081
868.625	20259
868.756	20374
868.886	20278
869.017	20301
869.147	20267
869.278	20400
869.408	20267
869.539	20301
869.669	20370
869.799	20305
869.929	20366
870.06	20328
870.19	20659
870.32	20518
870.45	20598
870.58	20674
870.71	20769
870.84	20796
870.97	20670
871.1	20590
871.23	20758
871.36	20785
871.489	20785
871.619	20880
871.749	20830
871.879	20845
872.008	20906
872.138	20906
872.267	20838
872.397	20781
872.526	20743
872.656	20686
872.785	20807
872.915	20853
873.044	20994
873.173	20933
873.303	20864
873.432	20842
873.561	20979
873.69	20868
873.819	20902
873.948	20960
874.077	20982
874.206	21036
874.335	20933
874.464	20925
874.593	21074
874.722	21135
874.851	21233
874.979	21176
875.108	21222
875.237	21017
875.365	21036
875.494	21138
875.623	21157
875.751	21127
875.88	21150
876.008	21230
876.136	21405
876.265	21545
876.393	21591
876.521	21591
876.65	21633
876.778	21656
876.906	21576
877.034	21500
877.162	21526
877.29	21439
877.418	21542
877.546	21580
877.674	21595
877.802	21564
877.93	21530
878.058	21351
878.185	21367
878.313	21500
878.441	21519
878.568	21321
878.696	21340
878.824	21553
878.951	21648
879.079	21720
879.206	21778
879.333	21660
879.461	21519
879.588	21648
879.715	21595
879.842	21720
879.97	21492
880.097	21359
880.224	21294
880.351	21336
880.478	21195
880.605	21306
880.732	21321
880.859	21500
880.986	21272
881.112	21329
881.239	21173
881.366	21142
881.493	20910
881.619	20906
881.746	20921
881.872	21001
881.999	20800
882.125	20929
882.252	20956
882.378	20967
882.505	20906
882.631	20750
882.757	20682
882.883	20693
883.01	20667
883.136	20609
883.262	20522
883.388	20442
883.514	20549
883.64	20632
883.766	20522
883.892	20328
884.018	20393
884.143	20530
884.269	20606
884.395	20427
884.52	20248
884.646	20358
884.772	20233
884.897	20290
885.023	20313
885.148	20442
885.274	20320
885.399	20290
885.524	20248
885.65	20290
885.775	20317
885.9	20103
886.025	20374
886.15	20309
886.275	20229
886.4	20263
886.525	20214
886.65	20240
886.775	20229
886.9	20244
887.025	20514
887.149	20282
887.274	20024
887.399	20084
887.523	20020
887.648	20016
887.773	19993
887.897	20206
888.021	19959
888.146	19986
888.27	20039
888.395	20088
888.519	20020
888.643	20001
888.767	20050
888.891	20005
889.015	19871
889.139	19814
889.263	19921
889.387	19963
889.511	20077
889.635	19955
889.759	19811
889.883	19738
890.006	19841
890.13	19830
890.254	19803
890.377	19734
890.501	19681
890.624	19540
890.748	19685
890.871	19525
890.995	19419
891.118	19274
891.241	19506
891.364	19464
891.488	19388
891.611	19510
891.734	19441
891.857	19525
891.98	19392
892.103	19343
892.226	19400
892.349	19396
892.471	19270
892.594	19350
892.717	19468
892.839	19335
892.962	19278
893.085	19533
893.207	19293
893.33	19168
893.452	19247
893.575	19301
893.697	19324
893.819	19419
893.941	19552
894.064	19415
894.186	19396
894.308	19255
894.43	19502
894.552	19639
894.674	19464
894.796	19194
894.918	19392
895.04	19343
895.161	19445
895.283	19381
895.405	19282
895.526	19369
895.648	19331
895.769	19381
895.891	19331
896.012	19514
896.134	19415
896.255	19365
896.376	19308
896.498	19381
896.619	19381
896.74	19400
896.861	19354
896.982	19655
897.103	19967
897.224	19670
897.345	19651
897.466	19556
897.587	19559
897.708	19693
897.828	19559
897.949	19563
898.07	19396
898.19	19563
898.311	19643
898.431	19533
898.552	19586
898.672	19693
898.792	19757
898.913	19712
899.033	19449
899.153	19457
899.273	19251
899.393	19449
899.513	19460
899.633	19369
899.753	19468
899.873	19282
899.993	19320
900.113	19240
900.232	19240
900.352	19422
900.472	19183
900.591	19050
900.711	19198
900.83	19187
900.95	19213
901.069	19164
901.189	19114
901.308	18844
901.427	18677
901.546	18764
901.665	18734
901.784	18616
901.904	18528
902.023	18654
902.141	18308
902.26	18296
902.379	18270
902.498	18296
902.617	18289
902.735	18334
902.854	18304
902.973	18129
903.091	17901
903.21	17984
903.328	17908
903.446	17771
903.565	17760
903.683	17893
903.801	17680
903.919	17805
904.038	17798
904.156	17539
904.274	17535
904.392	17573
904.51	17554
904.627	17490
904.745	17558
904.863	17490
904.981	17239
905.098	17166
905.216	17280
905.334	17273
905.451	17242
905.569	17143
905.686	17292
905.803	17094
905.921	17041
906.038	17033
906.155	16889
906.272	16801
906.389	16968
906.506	16774
906.623	16713
906.74	16672
906.857	16672
906.974	16729
907.091	16763
907.208	16877
907.324	16778
907.441	16637
907.557	16554
907.674	16417
907.79	16421
907.907	16478
908.023	16417
908.139	16459
908.256	16421
908.372	16455
908.488	16375
908.604	16287
908.72	16120
908.836	16158
908.952	16223
909.068	16192
909.184	16371
909.3	16154
909.415	16261
909.531	16082
909.647	16010
909.762	15926
909.878	15930
909.993	15918
910.108	15808
910.224	15812
910.339	15949
910.454	15751
910.57	15724
910.685	15633
910.8	15926
910.915	15934
911.03	15720
911.145	15584
911.259	15526
911.374	15458
911.489	15462
911.604	15340
911.718	15332
911.833	15237
911.947	15199
912.062	15108
912.176	15264
912.291	15260
912.405	15306
912.519	15595
912.633	15374
912.748	15374
912.862	15214
912.976	15081
913.09	14960
913.204	15157
913.318	15047
913.431	15142
913.545	15108
913.659	15146
913.772	15043
913.886	14956
914	14918
914.113	15009
914.226	15047
914.34	14948
914.453	14838
914.566	15009
914.68	14830
914.793	14769
914.906	14644
915.019	14552
915.132	14461
915.245	14438
915.358	14507
915.47	14465
915.583	14533
915.696	14587
915.809	14518
915.921	14655
916.034	14473
916.146	14385
916.259	14412
916.371	14484
916.483	14469
916.595	14336
916.708	14313
916.82	14343
916.932	14396
917.044	14244
917.156	14343
917.268	14172
917.38	14168
917.491	14199
917.603	14218
917.715	14244
917.826	14294
917.938	14046
918.049	13951
918.161	14161
918.272	14286
918.384	14290
918.495	14069
918.606	13982
918.717	13909
918.828	14001
918.939	14088
919.05	13849
919.161	13913
919.272	13753
919.383	13799
919.494	13989
919.604	14229
919.715	14016
919.826	13807
919.936	13947
920.047	14027
920.157	13894
920.267	14107
920.378	13856
920.488	13841
920.598	14092
920.708	14157
920.818	13951
920.928	14107
921.038	14206
921.148	14103
921.258	13906
921.368	13765
921.477	13772
921.587	13700
921.697	13502
921.806	13791
921.916	13514
922.025	13396
922.134	13274
922.244	13236
922.353	13335
922.462	13164
922.571	13031
922.68	12928
922.789	12981
922.898	12985
923.007	12909
923.116	13099
923.224	13038
923.333	12943
923.442	12802
923.55	12791
923.659	12829
923.767	12932
923.876	12802
923.984	12894
924.092	12719
924.201	12772
924.309	12760
924.417	12722
924.525	12631
924.633	12726
924.741	13571
924.849	12494
924.956	12662
925.064	12486
925.172	12308
925.279	12452
925.387	12399
925.494	12532
925.602	12601
925.709	12513
925.816	12315
925.924	12407
926.031	12563
926.138	12327
926.245	12395
926.352	12190
926.459	12414
926.566	12467
926.673	12228
926.779	12171
926.886	12194
926.993	12072
927.099	11984
927.206	11992
927.312	11950
927.419	12019
927.525	11950
927.631	12038
927.737	11935
927.843	11878
927.95	11786
928.056	11912
928.162	11843
928.267	11821
928.373	12460
928.479	11935
928.585	11707
928.69	11779
928.796	11783
928.901	11672
929.007	11528
929.112	11676
929.218	11676
929.323	11516
929.428	11554
929.533	11691
929.638	11547
929.743	11547
929.848	11543
929.953	11566
930.058	11398
930.163	11242
930.267	11212
930.372	11455
930.477	11242
930.581	11417
930.685	11398
930.79	11170
930.894	11220
930.998	11136
931.103	11372
931.207	10828
931.311	10900
931.415	10805
931.519	10561
931.623	10577
