Data from test_V78500241_1206.txt Node
Date: Fri Mar 25 15:18:15 CST 2022
User: usil
Spectrometer: V785-0024
Trigger mode: 0
Integration Time (sec): 4.000000E-1
Scans to average: 1
Nonlinearity correction enabled: false
Boxcar width: 0
Storing dark spectrum: false
XAxis mode: Wavelengths
Number of Pixels in Spectrum: 1024
>>>>>Begin Spectral Data<<<<<
801.071	28207
801.214	28204
801.356	27972
801.499	27934
801.641	27720
801.783	27762
801.926	27804
802.068	27701
802.211	27724
802.353	27698
802.496	27519
802.638	27526
802.78	27458
802.923	27412
803.065	27298
803.208	27291
803.35	27576
803.492	27557
803.635	27538
803.777	27587
803.919	27663
804.061	27930
804.204	27671
804.346	27603
804.488	27656
804.63	27515
804.773	27599
804.915	27606
805.057	27762
805.199	27736
805.341	27793
805.483	27983
805.626	27705
805.768	27732
805.91	27686
806.052	27713
806.194	27675
806.336	27892
806.478	27770
806.62	27648
806.762	27816
806.904	27983
807.046	28207
807.188	28246
807.33	28063
807.472	28196
807.614	28067
807.756	28166
807.898	28017
808.04	27972
808.182	27930
808.324	28204
808.465	28067
808.607	28295
808.749	28428
808.891	28557
809.033	28656
809.174	28497
809.316	28421
809.458	28371
809.6	28481
809.741	28535
809.883	28683
810.025	28744
810.166	28668
810.308	28615
810.45	28687
810.591	28634
810.733	28470
810.875	28356
811.016	28417
811.158	28261
811.299	28542
811.441	28622
811.582	28573
811.724	28401
811.865	28325
812.007	28436
812.148	28493
812.29	28512
812.431	28683
812.573	28854
812.714	28953
812.855	28892
812.997	28976
813.138	29181
813.279	29105
813.421	28995
813.562	29029
813.703	28793
813.845	28569
813.986	28401
814.127	28280
814.268	28284
814.41	28143
814.551	28116
814.692	28272
814.833	28070
814.974	28086
815.115	28074
815.256	27987
815.397	27964
815.539	28010
815.68	27975
815.821	27785
815.962	27918
816.103	28002
816.244	27812
816.385	27717
816.526	27599
816.666	27496
816.807	27500
816.948	27587
817.089	27504
817.23	27370
817.371	27374
817.512	27427
817.653	27477
817.793	27435
817.934	27420
818.075	27515
818.216	27393
818.356	27549
818.497	27321
818.638	27298
818.778	27150
818.919	27169
819.06	27169
819.2	27351
819.341	27583
819.481	27564
819.622	27553
819.762	27713
819.903	27682
820.043	27648
820.184	27500
820.324	27530
820.465	27530
820.605	27553
820.746	27568
820.886	27439
821.026	27698
821.167	27549
821.307	27572
821.447	27511
821.588	27340
821.728	27279
821.868	27043
822.008	26944
822.149	26933
822.289	26960
822.429	26613
822.569	26511
822.709	26632
822.849	26461
822.99	26522
823.13	26332
823.27	26423
823.41	26187
823.55	26183
823.69	26355
823.83	26195
823.97	26142
824.11	26039
824.25	26115
824.389	26096
824.529	26149
824.669	26126
824.809	26187
824.949	26130
825.089	26286
825.228	26062
825.368	25997
825.508	26012
825.648	26149
825.787	25890
825.927	26024
826.067	25997
826.206	25955
826.346	26054
826.485	25966
826.625	25898
826.765	25963
826.904	25932
827.044	25677
827.183	25795
827.323	25647
827.462	25750
827.601	25776
827.741	25677
827.88	25734
828.02	25479
828.159	25677
828.298	25666
828.437	25689
828.577	25628
828.716	25719
828.855	25521
828.994	25346
829.134	25419
829.273	25441
829.412	25270
829.551	25312
829.69	25373
829.829	25396
829.968	25434
830.107	25559
830.246	25331
830.385	25255
830.524	25335
830.663	25369
830.802	25034
830.941	25091
831.08	24939
831.219	25129
831.357	25107
831.496	25255
831.635	25008
831.774	24909
831.913	24954
832.051	24817
832.19	24753
832.329	24844
832.467	24658
832.606	24658
832.744	24646
832.883	24635
833.022	24555
833.16	24795
833.299	24738
833.437	24722
833.576	24730
833.714	24867
833.852	24753
833.991	24916
834.129	24886
834.267	24924
834.406	24791
834.544	24703
834.682	24726
834.821	24677
834.959	24943
835.097	24787
835.235	24848
835.373	24654
835.511	24719
835.65	24639
835.788	24555
835.926	24467
836.064	24361
836.202	24441
836.34	24642
836.478	24490
836.615	24578
836.753	24661
836.891	24612
837.029	24623
837.167	24601
837.305	24395
837.443	24418
837.58	24490
837.718	24566
837.856	24433
837.993	24330
838.131	24445
838.269	24254
838.406	24296
838.544	24194
838.681	24053
838.819	24045
838.956	23893
839.094	23946
839.231	24034
839.369	23977
839.506	24338
839.643	24201
839.781	23878
839.918	23748
840.055	23965
840.193	23950
840.33	23741
840.467	23764
840.604	23809
840.742	24026
840.879	23672
841.016	23699
841.153	23615
841.29	23885
841.427	23805
841.564	23832
841.701	23783
841.838	23733
841.975	23691
842.112	23752
842.249	23585
842.385	23646
842.522	23893
842.659	23684
842.796	23528
842.933	23490
843.069	23531
843.206	23531
843.343	23604
843.479	23695
843.616	23539
843.752	23239
843.889	23387
844.025	23535
844.162	23444
844.298	23520
844.435	23372
844.571	23330
844.708	23455
844.844	23551
844.98	23459
845.117	23425
845.253	23277
845.389	23090
845.525	23124
845.661	23128
845.798	23037
845.934	23124
846.07	23071
846.206	23162
846.342	23185
846.478	23033
846.614	22877
846.75	22797
846.886	22580
847.022	22927
847.158	22790
847.294	22854
847.429	22911
847.565	22816
847.701	23060
847.837	22531
847.972	22577
848.108	22607
848.244	22573
848.379	22481
848.515	22428
848.65	22344
848.786	22474
848.921	22314
849.057	22428
849.192	22573
849.328	22413
849.463	22348
849.598	22344
849.734	22325
849.869	22169
850.004	22238
850.14	22238
850.275	22166
850.41	22109
850.545	22147
850.68	22135
850.815	22131
850.95	22131
851.085	22360
851.22	22192
851.355	22097
851.49	22200
851.625	22169
851.76	22105
851.895	22097
852.03	22051
852.165	22131
852.299	22116
852.434	22211
852.569	22253
852.703	22078
852.838	22306
852.973	22200
853.107	22211
853.242	22032
853.376	21972
853.511	21854
853.645	21960
853.78	22112
853.914	21926
854.048	21937
854.183	21895
854.317	22086
854.451	22105
854.585	21994
854.72	21983
854.854	22029
854.988	21934
855.122	21987
855.256	21789
855.39	21861
855.524	22048
855.658	22048
855.792	22044
855.926	22059
856.06	22017
856.194	22040
856.327	21941
856.461	21956
856.595	21953
856.729	21956
856.862	22082
856.996	21934
857.13	21892
857.263	22154
857.397	22067
857.53	21949
857.664	22013
857.797	22109
857.931	22112
858.064	21960
858.197	22006
858.331	21918
858.464	21911
858.597	21770
858.731	22010
858.864	21926
858.997	22051
859.13	22032
859.263	21991
859.396	22082
859.529	22010
859.662	22055
859.795	21915
859.928	22002
860.061	22036
860.194	22242
860.327	22006
860.46	21926
860.592	22093
860.725	21960
860.858	22051
860.99	22032
861.123	21812
861.256	21846
861.388	21956
861.521	22835
861.653	21918
861.786	21789
861.918	21751
862.05	21819
862.183	21857
862.315	21953
862.447	22044
862.58	21831
862.712	21675
862.844	21720
862.976	21827
863.108	21789
863.24	22097
863.372	21698
863.504	21633
863.636	21736
863.768	21732
863.9	21671
864.032	21561
864.164	21599
864.296	21656
864.428	21827
864.559	21850
864.691	21739
864.823	21728
864.954	21739
865.086	21633
865.217	21523
865.349	21523
865.48	21663
865.612	21477
865.743	21610
865.875	21523
866.006	21515
866.137	21511
866.269	21663
866.4	21568
866.531	21500
866.662	21500
866.793	21523
866.924	21549
867.055	21507
867.186	21458
867.317	21477
867.448	21401
867.579	21435
867.71	21435
867.841	21424
867.972	21564
868.103	21515
868.233	21622
868.364	21481
868.495	21629
868.625	21622
868.756	21713
868.886	21641
869.017	21652
869.147	21770
869.278	21922
869.408	21755
869.539	21717
869.669	21800
869.799	21838
869.929	21850
870.06	21838
870.19	21960
870.32	21964
870.45	21998
870.58	22185
870.71	22268
870.84	22192
870.97	22116
871.1	22177
871.23	22341
871.36	22310
871.489	22333
871.619	22341
871.749	22337
871.879	22333
872.008	22295
872.138	22356
872.267	22291
872.397	22158
872.526	22093
872.656	22154
872.785	22226
872.915	22265
873.044	22451
873.173	22272
873.303	22306
873.432	22443
873.561	22451
873.69	22436
873.819	22329
873.948	22451
874.077	22375
874.206	22230
874.335	22310
874.464	22424
874.593	22512
874.722	22413
874.851	22607
874.979	22577
875.108	22596
875.237	22618
875.365	22474
875.494	22580
875.623	22596
875.751	22542
875.88	22497
876.008	22656
876.136	22721
876.265	22949
876.393	23109
876.521	23090
876.65	23037
876.778	22896
876.906	22904
877.034	22984
877.162	22843
877.29	22752
877.418	22793
877.546	22995
877.674	22862
877.802	22809
877.93	22904
878.058	22809
878.185	22782
878.313	22740
878.441	22858
878.568	22637
878.696	22801
878.824	22850
878.951	22904
879.079	23022
879.206	23121
879.333	23105
879.461	22869
879.588	23022
879.715	22942
879.842	23128
879.97	23025
880.097	22729
880.224	22679
880.351	22588
880.478	22679
880.605	22752
880.732	22630
880.859	22854
880.986	22622
881.112	22710
881.239	22557
881.366	22405
881.493	22314
881.619	22310
881.746	22242
881.872	22295
881.999	22253
882.125	22173
882.252	22424
882.378	22200
882.505	22409
882.631	22112
882.757	22158
882.883	22188
883.01	22070
883.136	21964
883.262	21797
883.388	21739
883.514	22021
883.64	22025
883.766	21922
883.892	21755
884.018	21747
884.143	21888
884.269	21911
884.395	21698
884.52	21622
884.646	21641
884.772	21614
884.897	21492
885.023	21625
885.148	21709
885.274	21743
885.399	21709
885.524	21564
885.65	21644
885.775	21511
885.9	21629
886.025	21739
886.15	21667
886.275	21511
886.4	21523
886.525	21591
886.65	21542
886.775	21549
886.9	21637
887.025	21766
887.149	21603
887.274	21344
887.399	21386
887.523	21424
887.648	21378
887.773	21294
887.897	21428
888.021	21393
888.146	21245
888.27	21359
888.395	21393
888.519	21359
888.643	21408
888.767	21416
888.891	21252
889.015	21119
889.139	21325
889.263	21203
889.387	21370
889.511	21378
889.635	21310
889.759	21230
889.883	21157
890.006	21214
890.13	21192
890.254	21116
890.377	20990
890.501	20979
890.624	20815
890.748	20960
890.871	20906
890.995	20739
891.118	20720
891.241	20636
891.364	20765
891.488	20800
891.611	20689
891.734	20701
891.857	20750
891.98	20708
892.103	20762
892.226	20727
892.349	20621
892.471	20511
892.594	20571
892.717	20693
892.839	20575
892.962	20697
893.085	20617
893.207	20579
893.33	20446
893.452	20541
893.575	20636
893.697	20522
893.819	20838
893.941	20823
894.064	20785
894.186	20644
894.308	20541
894.43	20686
894.552	20743
894.674	20705
894.796	20484
894.918	20590
895.04	20590
895.161	20724
895.283	20549
895.405	20484
895.526	20571
895.648	20579
895.769	20606
895.891	20606
896.012	20667
896.134	20705
896.255	20648
896.376	20556
896.498	20518
896.619	20625
896.74	20617
896.861	20689
896.982	20834
897.103	21055
897.224	20819
897.345	20804
897.466	20727
897.587	20849
897.708	20944
897.828	20880
897.949	20644
898.07	20629
898.19	20659
898.311	20941
898.431	20716
898.552	20731
898.672	20956
898.792	20838
898.913	20777
899.033	20629
899.153	20651
899.273	20473
899.393	20480
899.513	20541
899.633	20621
899.753	20602
899.873	20522
899.993	20598
900.113	20556
900.232	20530
900.352	20389
900.472	20328
900.591	20278
900.711	20290
900.83	20259
900.95	20415
901.069	20366
901.189	20275
901.308	19894
901.427	19852
901.546	19909
901.665	19890
901.784	19955
901.904	19689
902.023	19628
902.141	19525
902.26	19438
902.379	19384
902.498	19362
902.617	19343
902.735	19430
902.854	19327
902.973	19285
903.091	19053
903.21	19057
903.328	19053
903.446	18924
903.565	18867
903.683	18996
903.801	18749
903.919	18700
904.038	18871
904.156	18719
904.274	18787
904.392	18696
904.51	18563
904.627	18639
904.745	18650
904.863	18772
904.981	18467
905.098	18300
905.216	18205
905.334	18304
905.451	18403
905.569	18178
905.686	18376
905.803	18213
905.921	18110
906.038	18216
906.155	18098
906.272	17977
906.389	18038
906.506	17764
906.623	17824
906.74	17745
906.857	17646
906.974	17802
907.091	17866
907.208	17889
907.324	17942
907.441	17634
907.557	17596
907.674	17539
907.79	17474
907.907	17558
908.023	17543
908.139	17539
908.256	17562
908.372	17474
908.488	17395
908.604	17269
908.72	17296
908.836	17181
908.952	17231
909.068	17288
909.184	17402
909.3	17261
909.415	17303
909.531	17159
909.647	17094
909.762	16995
909.878	16839
909.993	16972
910.108	16885
910.224	16942
910.339	16923
910.454	16824
910.57	16771
910.685	16630
910.8	16946
910.915	16809
911.03	16797
911.145	16641
911.259	16744
911.374	16592
911.489	16580
911.604	16363
911.718	16261
911.833	16333
911.947	16226
912.062	16120
912.176	16257
912.291	16276
912.405	16276
912.519	16462
912.633	16565
912.748	16299
912.862	16215
912.976	16116
913.09	16006
913.204	16063
913.318	16139
913.431	16166
913.545	16230
913.659	16192
913.772	16044
913.886	15960
914	15960
914.113	15930
914.226	15949
914.34	15895
914.453	15835
914.566	15915
914.68	15755
914.793	15766
914.906	15572
915.019	15572
915.132	15473
915.245	15462
915.358	15435
915.47	15473
915.583	15530
915.696	15511
915.809	15599
915.921	15625
916.034	15397
916.146	15424
916.259	15306
916.371	15431
916.483	15439
916.595	15325
916.708	15367
916.82	15294
916.932	15249
917.044	15310
917.156	15036
917.268	15097
917.38	15199
917.491	15112
917.603	15142
917.715	15146
917.826	15222
917.938	15001
918.049	15077
918.161	15104
918.272	15256
918.384	15188
918.495	15051
918.606	14975
918.717	14659
918.828	14777
918.939	14933
919.05	14765
919.161	14876
919.272	14678
919.383	14785
919.494	14910
919.604	15032
919.715	14853
919.826	14746
919.936	14796
920.047	14902
920.157	14868
920.267	15032
920.378	14819
920.488	14800
920.598	14986
920.708	15077
920.818	14876
920.928	14925
921.038	15157
921.148	14971
921.258	14785
921.368	14663
921.477	14552
921.587	14560
921.697	14457
921.806	14522
921.916	14438
922.025	14259
922.134	14229
922.244	14199
922.353	14218
922.462	14065
922.571	13947
922.68	13898
922.789	13864
922.898	13849
923.007	13723
923.116	13791
923.224	13871
923.333	13746
923.442	13769
923.55	13597
923.659	13670
923.767	13689
923.876	13632
923.984	13719
924.092	13483
924.201	13643
924.309	13563
924.417	13594
924.525	13502
924.633	13487
924.741	14214
924.849	13316
924.956	13460
925.064	13247
925.172	13065
925.279	13259
925.387	13270
925.494	13251
925.602	13422
925.709	13209
925.816	13183
925.924	13137
926.031	13320
926.138	13187
926.245	13202
926.352	13133
926.459	13164
926.566	13228
926.673	13084
926.779	12966
926.886	12867
926.993	12776
927.099	12810
927.206	12757
927.312	12749
927.419	12783
927.525	12890
927.631	12791
927.737	12753
927.843	12654
927.95	12544
928.056	12597
928.162	12627
928.267	12703
928.373	13126
928.479	12711
928.585	12407
928.69	12623
928.796	12623
928.901	12513
929.007	12350
929.112	12490
929.218	12467
929.323	12342
929.428	12300
929.533	12445
929.638	12323
929.743	12277
929.848	12311
929.953	12277
930.058	12140
930.163	12034
930.267	11973
930.372	12216
930.477	11950
930.581	12136
930.685	12026
930.79	11885
930.894	11866
930.998	11843
931.103	11965
931.207	11528
931.311	11566
931.415	11493
931.519	11227
931.623	11204
