Data from test_V78500241_1445.txt Node
Date: Fri Mar 25 15:19:55 CST 2022
User: usil
Spectrometer: V785-0024
Trigger mode: 0
Integration Time (sec): 4.000000E-1
Scans to average: 1
Nonlinearity correction enabled: false
Boxcar width: 0
Storing dark spectrum: false
XAxis mode: Wavelengths
Number of Pixels in Spectrum: 1024
>>>>>Begin Spectral Data<<<<<
801.071	28173
801.214	28192
801.356	27972
801.499	27911
801.641	27835
801.783	27751
801.926	27797
802.068	27603
802.211	27622
802.353	27663
802.496	27587
802.638	27557
802.78	27576
802.923	27443
803.065	27336
803.208	27249
803.35	27458
803.492	27603
803.635	27629
803.777	27507
803.919	27800
804.061	27930
804.204	27709
804.346	27660
804.488	27553
804.63	27618
804.773	27500
804.915	27583
805.057	27774
805.199	27781
805.341	27781
805.483	27838
805.626	27812
805.768	27663
805.91	27770
806.052	27713
806.194	27850
806.336	27930
806.478	27865
806.62	27831
806.762	27941
806.904	28017
807.046	28219
807.188	28036
807.33	28120
807.472	28348
807.614	28120
807.756	28166
807.898	28120
808.04	28006
808.182	28150
808.324	28124
808.465	28158
808.607	28318
808.749	28527
808.891	28512
809.033	28637
809.174	28447
809.316	28470
809.458	28478
809.6	28443
809.741	28748
809.883	28500
810.025	28717
810.166	28862
810.308	28740
810.45	28668
810.591	28519
810.733	28493
810.875	28550
811.016	28261
811.158	28424
811.299	28489
811.441	28588
811.582	28584
811.724	28478
811.865	28432
812.007	28409
812.148	28557
812.29	28428
812.431	28683
812.573	28820
812.714	28771
812.855	29022
812.997	29204
813.138	29265
813.279	29033
813.421	28999
813.562	29003
813.703	28843
813.845	28675
813.986	28432
814.127	28276
814.268	28131
814.41	28120
814.551	28158
814.692	28192
814.833	28185
814.974	28211
815.115	28287
815.256	28029
815.397	27975
815.539	28116
815.68	28002
815.821	27911
815.962	27911
816.103	28051
816.244	27895
816.385	27774
816.526	27808
816.666	27542
816.807	27526
816.948	27515
817.089	27591
817.23	27416
817.371	27420
817.512	27454
817.653	27526
817.793	27603
817.934	27542
818.075	27488
818.216	27511
818.356	27427
818.497	27355
818.638	27188
818.778	27294
818.919	27351
819.06	27439
819.2	27374
819.341	27439
819.481	27507
819.622	27682
819.762	27686
819.903	27747
820.043	27614
820.184	27660
820.324	27614
820.465	27660
820.605	27629
820.746	27507
820.886	27545
821.026	27606
821.167	27443
821.307	27705
821.447	27587
821.588	27389
821.728	27214
821.868	27207
822.008	26979
822.149	26948
822.289	26864
822.429	26781
822.569	26617
822.709	26541
822.849	26492
822.99	26480
823.13	26415
823.27	26317
823.41	26134
823.55	26267
823.69	26229
823.83	26256
823.97	26126
824.11	26043
824.25	26180
824.389	26039
824.529	26206
824.669	26016
824.809	26157
824.949	26187
825.089	26187
825.228	26111
825.368	25913
825.508	25978
825.648	25913
825.787	26024
825.927	25887
826.067	25944
826.206	25921
826.346	26005
826.485	25966
826.625	26016
826.765	26115
826.904	25837
827.044	25670
827.183	25712
827.323	25658
827.462	25753
827.601	25708
827.741	25658
827.88	25605
828.02	25597
828.159	25685
828.298	25655
828.437	25693
828.577	25590
828.716	25639
828.855	25506
828.994	25419
829.134	25438
829.273	25392
829.412	25388
829.551	25365
829.69	25282
829.829	25381
829.968	25441
830.107	25468
830.246	25384
830.385	25312
830.524	25240
830.663	25110
830.802	24973
830.941	24943
831.08	24951
831.219	25004
831.357	25072
831.496	25050
831.635	24935
831.774	24886
831.913	24920
832.051	24779
832.19	24696
832.329	24863
832.467	24722
832.606	24486
832.744	24658
832.883	24627
833.022	24509
833.16	24711
833.299	24715
833.437	24738
833.576	24601
833.714	24658
833.852	24703
833.991	24871
834.129	24897
834.267	24722
834.406	24734
834.544	24741
834.682	24726
834.821	24646
834.959	24840
835.097	24677
835.235	24578
835.373	24673
835.511	24646
835.65	24585
835.788	24418
835.926	24372
836.064	24475
836.202	24445
836.34	24601
836.478	24494
836.615	24563
836.753	24467
836.891	24547
837.029	24445
837.167	24441
837.305	24426
837.443	24426
837.58	24361
837.718	24384
837.856	24357
837.993	24338
838.131	24369
838.269	24144
838.406	24258
838.544	24232
838.681	24049
838.819	23893
838.956	23783
839.094	23901
839.231	23992
839.369	24041
839.506	24190
839.643	24018
839.781	23828
839.918	23760
840.055	23813
840.193	23737
840.33	23775
840.467	23733
840.604	23718
840.742	23969
840.879	23642
841.016	23684
841.153	23600
841.29	23851
841.427	23710
841.564	23752
841.701	23764
841.838	23707
841.975	23585
842.112	23699
842.249	23509
842.385	23284
842.522	23600
842.659	23486
842.796	23486
842.933	23615
843.069	23421
843.206	23448
843.343	23490
843.479	23467
843.616	23402
843.752	23341
843.889	23193
844.025	23444
844.162	23250
844.298	23246
844.435	23258
844.571	23109
844.708	23261
844.844	23379
844.98	23425
845.117	23250
845.253	23102
845.389	23117
845.525	23277
845.661	23113
845.798	22965
845.934	22968
846.07	22976
846.206	22919
846.342	23105
846.478	23041
846.614	22885
846.75	22733
846.886	22653
847.022	22721
847.158	22763
847.294	22683
847.429	22831
847.565	22843
847.701	23025
847.837	22371
847.972	22409
848.108	22531
848.244	22455
848.379	22272
848.515	22249
848.65	22280
848.786	22306
848.921	22394
849.057	22398
849.192	22299
849.328	22375
849.463	22268
849.598	22261
849.734	22246
849.869	22051
850.004	21991
850.14	22029
850.275	22006
850.41	21918
850.545	21915
850.68	22059
850.815	22139
850.95	22055
851.085	22207
851.22	22154
851.355	22116
851.49	21949
851.625	21972
851.76	22093
851.895	21953
852.03	22017
852.165	22032
852.299	22086
852.434	22211
852.569	22200
852.703	22051
852.838	22048
852.973	22215
853.107	22226
853.242	22010
853.376	21941
853.511	21770
853.645	21751
853.78	22006
853.914	21956
854.048	21880
854.183	21831
854.317	21934
854.451	22006
854.585	21869
854.72	21812
854.854	21956
854.988	21724
855.122	21949
855.256	21755
855.39	21823
855.524	22067
855.658	22036
855.792	21884
855.926	21994
856.06	21831
856.194	21949
856.327	21819
856.461	21789
856.595	21797
856.729	21915
856.862	21949
856.996	22002
857.13	21918
857.263	22040
857.397	21975
857.53	21895
857.664	21968
857.797	21850
857.931	21941
858.064	21854
858.197	21949
858.331	21816
858.464	21694
858.597	21785
858.731	21850
858.864	21888
858.997	21907
859.13	21930
859.263	21869
859.396	21930
859.529	21960
859.662	21743
859.795	21835
859.928	21823
860.061	21987
860.194	22074
860.327	21884
860.46	21865
860.592	22002
860.725	21991
860.858	22116
860.99	21922
861.123	21804
861.256	21781
861.388	21850
861.521	22466
861.653	21686
861.786	21587
861.918	21720
862.05	21720
862.183	21762
862.315	21838
862.447	21884
862.58	21789
862.712	21618
862.844	21549
862.976	21542
863.108	21622
863.24	21915
863.372	21564
863.504	21561
863.636	21599
863.768	21595
863.9	21511
864.032	21485
864.164	21523
864.296	21568
864.428	21580
864.559	21622
864.691	21625
864.823	21549
864.954	21622
865.086	21652
865.217	21507
865.349	21424
865.48	21443
865.612	21469
865.743	21652
865.875	21443
866.006	21370
866.137	21424
866.269	21504
866.4	21500
866.531	21291
866.662	21218
866.793	21416
866.924	21222
867.055	21412
867.186	21397
867.317	21389
867.448	21351
867.579	21389
867.71	21173
867.841	21256
867.972	21367
868.103	21332
868.233	21435
868.364	21336
868.495	21458
868.625	21538
868.756	21736
868.886	21618
869.017	21595
869.147	21759
869.278	21808
869.408	21675
869.539	21595
869.669	21728
869.799	21660
869.929	21603
870.06	21842
870.19	21911
870.32	21915
870.45	22006
870.58	22162
870.71	22120
870.84	22192
870.97	22078
871.1	21956
871.23	22162
871.36	22291
871.489	22207
871.619	22196
871.749	22261
871.879	22249
872.008	22291
872.138	22128
872.267	22348
872.397	22135
872.526	21911
872.656	22112
872.785	22055
872.915	22253
873.044	22440
873.173	22158
873.303	22234
873.432	22265
873.561	22379
873.69	22188
873.819	22299
873.948	22181
874.077	22291
874.206	22124
874.335	22223
874.464	22375
874.593	22409
874.722	22440
874.851	22447
874.979	22512
875.108	22542
875.237	22310
875.365	22375
875.494	22371
875.623	22459
875.751	22409
875.88	22500
876.008	22637
876.136	22683
876.265	22820
876.393	22919
876.521	22934
876.65	22831
876.778	22866
876.906	22744
877.034	22748
877.162	22850
877.29	22736
877.418	22729
877.546	22721
877.674	22710
877.802	22801
877.93	22892
878.058	22664
878.185	22759
878.313	22675
878.441	22790
878.568	22580
878.696	22767
878.824	22782
878.951	22820
879.079	22946
879.206	22930
879.333	22889
879.461	22843
879.588	22790
879.715	22908
879.842	23109
879.97	22752
880.097	22569
880.224	22687
880.351	22679
880.478	22622
880.605	22557
880.732	22443
880.859	22706
880.986	22672
881.112	22470
881.239	22561
881.366	22272
881.493	22265
881.619	22204
881.746	22261
881.872	22188
881.999	22135
882.125	22074
882.252	22158
882.378	22128
882.505	22306
882.631	22055
882.757	21915
882.883	22070
883.01	21808
883.136	21759
883.262	21808
883.388	21663
883.514	21759
883.64	21892
883.766	21759
883.892	21595
884.018	21652
884.143	21743
884.269	21888
884.395	21603
884.52	21462
884.646	21526
884.772	21462
884.897	21458
885.023	21507
885.148	21450
885.274	21660
885.399	21614
885.524	21568
885.65	21629
885.775	21603
885.9	21485
886.025	21492
886.15	21576
886.275	21431
886.4	21294
886.525	21420
886.65	21306
886.775	21408
886.9	21488
887.025	21660
887.149	21557
887.274	21283
887.399	21184
887.523	21325
887.648	21135
887.773	21211
887.897	21264
888.021	21287
888.146	21150
888.27	21287
888.395	21412
888.519	21230
888.643	21291
888.767	21367
888.891	21093
889.015	21013
889.139	21135
889.263	20971
889.387	21237
889.511	21180
889.635	21199
889.759	21066
889.883	21020
890.006	21070
890.13	21218
890.254	21051
890.377	21051
890.501	20712
890.624	20712
890.748	20834
890.871	20674
890.995	20598
891.118	20705
891.241	20670
891.364	20583
891.488	20750
891.611	20590
891.734	20602
891.857	20743
891.98	20743
892.103	20651
892.226	20541
892.349	20587
892.471	20480
892.594	20514
892.717	20575
892.839	20488
892.962	20590
893.085	20514
893.207	20438
893.33	20393
893.452	20442
893.575	20560
893.697	20358
893.819	20598
893.941	20743
894.064	20648
894.186	20404
894.308	20404
894.43	20602
894.552	20632
894.674	20533
894.796	20347
894.918	20484
895.04	20583
895.161	20560
895.283	20503
895.405	20473
895.526	20461
895.648	20632
895.769	20476
895.891	20537
896.012	20530
896.134	20629
896.255	20511
896.376	20488
896.498	20431
896.619	20492
896.74	20473
896.861	20461
896.982	20788
897.103	20906
897.224	20712
897.345	20625
897.466	20613
897.587	20651
897.708	20754
897.828	20705
897.949	20712
898.07	20621
898.19	20724
898.311	20670
898.431	20575
898.552	20632
898.672	20838
898.792	20781
898.913	20689
899.033	20587
899.153	20587
899.273	20457
899.393	20537
899.513	20488
899.633	20560
899.753	20629
899.873	20370
899.993	20503
900.113	20450
900.232	20556
900.352	20336
900.472	20358
900.591	20229
900.711	20248
900.83	20305
900.95	20259
901.069	20461
901.189	20195
901.308	19818
901.427	19864
901.546	19856
901.665	19811
901.784	19822
901.904	19647
902.023	19525
902.141	19411
902.26	19331
902.379	19411
902.498	19362
902.617	19320
902.735	19403
902.854	19392
902.973	19221
903.091	18954
903.21	18970
903.328	18966
903.446	18924
903.565	18795
903.683	18817
903.801	18707
903.919	18738
904.038	18700
904.156	18532
904.274	18711
904.392	18570
904.51	18585
904.627	18502
904.745	18597
904.863	18563
904.981	18277
905.098	18235
905.216	18213
905.334	18266
905.451	18262
905.569	18194
905.686	18315
905.803	18178
905.921	17969
906.038	18095
906.155	18015
906.272	17843
906.389	17939
906.506	17767
906.623	17748
906.74	17745
906.857	17623
906.974	17684
907.091	17775
907.208	17840
907.324	17775
907.441	17646
907.557	17520
907.674	17497
907.79	17417
907.907	17395
908.023	17486
908.139	17463
908.256	17474
908.372	17395
908.488	17425
908.604	17174
908.72	17280
908.836	17159
908.952	17212
909.068	17212
909.184	17334
909.3	17128
909.415	17178
909.531	17223
909.647	16900
909.762	16961
909.878	16889
909.993	16866
910.108	16900
910.224	16896
910.339	16866
910.454	16759
910.57	16675
910.685	16729
910.8	16812
910.915	16801
911.03	16664
911.145	16569
911.259	16588
911.374	16451
911.489	16402
911.604	16295
911.718	16310
911.833	16200
911.947	16055
912.062	16021
912.176	16272
912.291	16135
912.405	16272
912.519	16371
912.633	16367
912.748	16223
912.862	16223
912.976	16074
913.09	15915
913.204	16025
913.318	16059
913.431	16044
913.545	16143
913.659	15960
913.772	15915
913.886	15888
914	15778
914.113	15895
914.226	15808
914.34	15895
914.453	15823
914.566	15892
914.68	15766
914.793	15660
914.906	15576
915.019	15401
915.132	15420
915.245	15431
915.358	15572
915.47	15439
915.583	15294
915.696	15428
915.809	15405
915.921	15614
916.034	15378
916.146	15374
916.259	15252
916.371	15367
916.483	15481
916.595	15199
916.708	15150
916.82	15283
916.932	15241
917.044	15157
917.156	15142
917.268	15154
917.38	15112
917.491	15070
917.603	15001
917.715	15062
917.826	15108
917.938	14948
918.049	14895
918.161	15024
918.272	15058
918.384	15024
918.495	14956
918.606	14834
918.717	14724
918.828	14800
918.939	14868
919.05	14705
919.161	14785
919.272	14549
919.383	14625
919.494	14785
919.604	14937
919.715	14815
919.826	14727
919.936	14739
920.047	14823
920.157	14773
920.267	14929
920.378	14777
920.488	14758
920.598	14872
920.708	14994
920.818	14804
920.928	14845
921.038	15013
921.148	15001
921.258	14708
921.368	14644
921.477	14552
921.587	14431
921.697	14385
921.806	14480
921.916	14259
922.025	14119
922.134	14176
922.244	14073
922.353	14138
922.462	14001
922.571	13909
922.68	13826
922.789	13795
922.898	13845
923.007	13746
923.116	13811
923.224	13727
923.333	13689
923.442	13647
923.55	13674
923.659	13567
923.767	13556
923.876	13586
923.984	13590
924.092	13464
924.201	13544
924.309	13514
924.417	13544
924.525	13419
924.633	13483
924.741	14111
924.849	13149
924.956	13320
925.064	13244
925.172	13187
925.279	13095
925.387	13160
925.494	13202
925.602	13213
925.709	13247
925.816	13031
925.924	13133
926.031	13232
926.138	13114
926.245	13133
926.352	13015
926.459	13080
926.566	13206
926.673	13072
926.779	12916
926.886	12951
926.993	12840
927.099	12814
927.206	12658
927.312	12707
927.419	12837
927.525	12692
927.631	12749
927.737	12525
927.843	12589
927.95	12498
928.056	12483
928.162	12513
928.267	12570
928.373	13065
928.479	12547
928.585	12464
928.69	12490
928.796	12521
928.901	12388
929.007	12228
929.112	12410
929.218	12372
929.323	12330
929.428	12281
929.533	12407
929.638	12133
929.743	12243
929.848	12213
929.953	12262
930.058	12102
930.163	11889
930.267	12011
930.372	12049
930.477	11931
930.581	12079
930.685	12045
930.79	11851
930.894	11775
930.998	11832
931.103	11847
931.207	11577
931.311	11532
931.415	11376
931.519	11185
931.623	11170
