Data from test_V78500241_3079.txt Node
Date: Fri Mar 25 15:31:17 CST 2022
User: usil
Spectrometer: V785-0024
Trigger mode: 0
Integration Time (sec): 4.000000E-1
Scans to average: 1
Nonlinearity correction enabled: false
Boxcar width: 0
Storing dark spectrum: false
XAxis mode: Wavelengths
Number of Pixels in Spectrum: 1024
>>>>>Begin Spectral Data<<<<<
801.071	27306
801.214	27275
801.356	27074
801.499	27062
801.641	26975
801.783	26823
801.926	26914
802.068	26781
802.211	26842
802.353	26758
802.496	26613
802.638	26594
802.78	26564
802.923	26370
803.065	26412
803.208	26415
803.35	26442
803.492	26625
803.635	26583
803.777	26362
803.919	26594
804.061	26990
804.204	26716
804.346	26590
804.488	26651
804.63	26621
804.773	26625
804.915	26587
805.057	26788
805.199	26613
805.341	26754
805.483	26731
805.626	26743
805.768	26667
805.91	26872
806.052	26746
806.194	26640
806.336	26887
806.478	26792
806.62	26598
806.762	26804
806.904	26986
807.046	27192
807.188	27058
807.33	27192
807.472	27169
807.614	26940
807.756	27024
807.898	27077
808.04	27013
808.182	27005
808.324	27154
808.465	26998
808.607	27241
808.749	27340
808.891	27367
809.033	27412
809.174	27401
809.316	27504
809.458	27408
809.6	27218
809.741	27389
809.883	27408
810.025	27755
810.166	27705
810.308	27610
810.45	27568
810.591	27492
810.733	27431
810.875	27336
811.016	27180
811.158	27351
811.299	27447
811.441	27450
811.582	27515
811.724	27359
811.865	27321
812.007	27272
812.148	27382
812.29	27260
812.431	27572
812.573	27603
812.714	27755
812.855	27880
812.997	27972
813.138	27998
813.279	27975
813.421	27846
813.562	27720
813.703	27698
813.845	27519
813.986	27241
814.127	27195
814.268	27039
814.41	27066
814.551	26986
814.692	27135
814.833	26960
814.974	27013
815.115	26933
815.256	26872
815.397	26986
815.539	27089
815.68	26765
815.821	26697
815.962	26720
816.103	26720
816.244	26727
816.385	26648
816.526	26442
816.666	26400
816.807	26225
816.948	26355
817.089	26286
817.23	26305
817.371	26305
817.512	26290
817.653	26305
817.793	26237
817.934	26252
818.075	26328
818.216	26336
818.356	26336
818.497	26157
818.638	25947
818.778	26043
818.919	26069
819.06	26103
819.2	26092
819.341	26259
819.481	26320
819.622	26377
819.762	26480
819.903	26575
820.043	26438
820.184	26473
820.324	26453
820.465	26427
820.605	26229
820.746	26294
820.886	26161
821.026	26434
821.167	26415
821.307	26389
821.447	26282
821.588	26233
821.728	26210
821.868	25883
822.008	25841
822.149	25883
822.289	25742
822.429	25525
822.569	25449
822.709	25430
822.849	25331
822.99	25396
823.13	25179
823.27	25148
823.41	25031
823.55	24935
823.69	24916
823.83	25065
823.97	25008
824.11	24844
824.25	24791
824.389	24783
824.529	24939
824.669	24897
824.809	25050
824.949	25027
825.089	24947
825.228	25023
825.368	24719
825.508	24635
825.648	24768
825.787	24760
825.927	24806
826.067	24623
826.206	24787
826.346	24882
826.485	24795
826.625	24730
826.765	24707
826.904	24779
827.044	24563
827.183	24570
827.323	24433
827.462	24395
827.601	24437
827.741	24471
827.88	24456
828.02	24266
828.159	24437
828.298	24437
828.437	24623
828.577	24441
828.716	24589
828.855	24395
828.994	24220
829.134	24148
829.273	24155
829.412	24171
829.551	24106
829.69	24129
829.829	24095
829.968	24159
830.107	24117
830.246	24167
830.385	24106
830.524	24011
830.663	23954
830.802	23809
830.941	23733
831.08	23722
831.219	23798
831.357	23863
831.496	23961
831.635	23798
831.774	23756
831.913	23547
832.051	23528
832.19	23543
832.329	23585
832.467	23554
832.606	23265
832.744	23376
832.883	23387
833.022	23486
833.16	23471
833.299	23406
833.437	23497
833.576	23493
833.714	23463
833.852	23627
833.991	23528
834.129	23482
834.267	23520
834.406	23410
834.544	23425
834.682	23486
834.821	23360
834.959	23657
835.097	23417
835.235	23516
835.373	23512
835.511	23486
835.65	23368
835.788	23273
835.926	23284
836.064	23143
836.202	23140
836.34	23239
836.478	23414
836.615	23334
836.753	23368
836.891	23299
837.029	23433
837.167	23330
837.305	23235
837.443	23299
837.58	23086
837.718	23212
837.856	23261
837.993	23159
838.131	23181
838.269	23143
838.406	23102
838.544	23090
838.681	22896
838.819	22736
838.956	22672
839.094	22725
839.231	22694
839.369	22923
839.506	22980
839.643	22850
839.781	22683
839.918	22706
840.055	22664
840.193	22618
840.33	22592
840.467	22451
840.604	22565
840.742	22877
840.879	22443
841.016	22554
841.153	22478
841.29	22816
841.427	22508
841.564	22451
841.701	22599
841.838	22615
841.975	22447
842.112	22516
842.249	22443
842.385	22405
842.522	22596
842.659	22421
842.796	22246
842.933	22398
843.069	22223
843.206	22481
843.343	22421
843.479	22348
843.616	22287
843.752	22097
843.889	22093
844.025	22204
844.162	22181
844.298	22310
844.435	22139
844.571	22090
844.708	22196
844.844	22234
844.98	22333
845.117	22291
845.253	21972
845.389	21983
845.525	22082
845.661	21930
845.798	21895
845.934	21888
846.07	21827
846.206	21816
846.342	21930
846.478	21873
846.614	21709
846.75	21583
846.886	21637
847.022	21629
847.158	21568
847.294	21652
847.429	21679
847.565	21538
847.701	21804
847.837	21317
847.972	21287
848.108	21439
848.244	21344
848.379	21241
848.515	21180
848.65	21104
848.786	21226
848.921	21230
849.057	21211
849.192	21298
849.328	21252
849.463	21127
849.598	21195
849.734	21066
849.869	21013
850.004	20971
850.14	20902
850.275	20899
850.41	20807
850.545	20925
850.68	21013
850.815	20956
850.95	21009
851.085	21070
851.22	21070
851.355	20944
851.49	20918
851.625	20823
851.76	20773
851.895	20735
852.03	20914
852.165	20979
852.299	21089
852.434	21013
852.569	20876
852.703	20971
852.838	20906
852.973	21020
853.107	21024
853.242	20864
853.376	20868
853.511	20712
853.645	20796
853.78	20826
853.914	20823
854.048	20830
854.183	20705
854.317	20872
854.451	21013
854.585	20613
854.72	20716
854.854	20792
854.988	20670
855.122	20727
855.256	20667
855.39	20758
855.524	20773
855.658	20830
855.792	20819
855.926	20842
856.06	20864
856.194	20796
856.327	20765
856.461	20785
856.595	20743
856.729	20823
856.862	20861
856.996	20811
857.13	20971
857.263	20948
857.397	20971
857.53	20697
857.664	20811
857.797	20838
857.931	20925
858.064	20792
858.197	20910
858.331	20750
858.464	20785
858.597	20587
858.731	20762
858.864	20609
858.997	20648
859.13	20804
859.263	20724
859.396	20823
859.529	20697
859.662	20800
859.795	20720
859.928	20823
860.061	20937
860.194	21013
860.327	20807
860.46	20785
860.592	20845
860.725	20929
860.858	20868
860.99	20807
861.123	20636
861.256	20686
861.388	20811
861.521	21222
861.653	20693
861.786	20552
861.918	20583
862.05	20655
862.183	20545
862.315	20773
862.447	20765
862.58	20735
862.712	20564
862.844	20526
862.976	20594
863.108	20598
863.24	21043
863.372	20389
863.504	20514
863.636	20377
863.768	20537
863.9	20488
864.032	20511
864.164	20488
864.296	20568
864.428	20484
864.559	20549
864.691	20514
864.823	20488
864.954	20530
865.086	20385
865.217	20423
865.349	20404
865.48	20305
865.612	20454
865.743	20556
865.875	20503
866.006	20419
866.137	20332
866.269	20336
866.4	20275
866.531	20362
866.662	20271
866.793	20374
866.924	20457
867.055	20320
867.186	20366
867.317	20393
867.448	20180
867.579	20282
867.71	20328
867.841	20195
867.972	20221
868.103	20305
868.233	20415
868.364	20389
868.495	20419
868.625	20552
868.756	20609
868.886	20571
869.017	20587
869.147	20575
869.278	20659
869.408	20514
869.539	20629
869.669	20663
869.799	20659
869.929	20708
870.06	20594
870.19	20838
870.32	20842
870.45	20956
870.58	20868
870.71	21020
870.84	21085
870.97	20952
871.1	20960
871.23	21199
871.36	21214
871.489	21165
871.619	21047
871.749	21283
871.879	21165
872.008	21310
872.138	21123
872.267	21085
872.397	20986
872.526	20868
872.656	20998
872.785	20944
872.915	21074
873.044	21173
873.173	21214
873.303	21260
873.432	21294
873.561	21298
873.69	21188
873.819	21093
873.948	21157
874.077	21237
874.206	21275
874.335	21264
874.464	21260
874.593	21450
874.722	21443
874.851	21359
874.979	21496
875.108	21412
875.237	21329
875.365	21340
875.494	21397
875.623	21439
875.751	21370
875.88	21488
876.008	21622
876.136	21576
876.265	21854
876.393	21964
876.521	21850
876.65	21922
876.778	21857
876.906	21823
877.034	21724
877.162	21732
877.29	21580
877.418	21854
877.546	21736
877.674	21831
877.802	21800
877.93	21854
878.058	21720
878.185	21800
878.313	21698
878.441	21751
878.568	21591
878.696	21789
878.824	21895
878.951	21895
879.079	21838
879.206	21953
879.333	21781
879.461	21770
879.588	21915
879.715	21968
879.842	22032
879.97	21766
880.097	21667
880.224	21591
880.351	21652
880.478	21606
880.605	21595
880.732	21637
880.859	21808
880.986	21595
881.112	21724
881.239	21526
881.366	21428
881.493	21237
881.619	21203
881.746	21195
881.872	21131
881.999	21157
882.125	21131
882.252	21245
882.378	21252
882.505	21287
882.631	20963
882.757	21017
882.883	21108
883.01	20975
883.136	20842
883.262	20758
883.388	20811
883.514	20861
883.64	20914
883.766	20800
883.892	20720
884.018	20731
884.143	20834
884.269	21013
884.395	20568
884.52	20465
884.646	20648
884.772	20400
884.897	20362
885.023	20518
885.148	20659
885.274	20758
885.399	20712
885.524	20507
885.65	20533
885.775	20613
885.9	20644
886.025	20526
886.15	20507
886.275	20549
886.4	20320
886.525	20575
886.65	20400
886.775	20370
886.9	20575
887.025	20651
887.149	20545
887.274	20248
887.399	20286
887.523	20400
887.648	20172
887.773	20168
887.897	20396
888.021	20305
888.146	20309
888.27	20400
888.395	20362
888.519	20324
888.643	20336
888.767	20431
888.891	20142
889.015	20172
889.139	20214
889.263	20096
889.387	20259
889.511	20237
889.635	20309
889.759	19967
889.883	20096
890.006	20065
890.13	20199
890.254	20035
890.377	20058
890.501	19993
890.624	19913
890.748	19940
890.871	19795
890.995	19613
891.118	19769
891.241	19613
891.364	19696
891.488	19761
891.611	19742
891.734	19746
891.857	19738
891.98	19674
892.103	19601
892.226	19632
892.349	19658
892.471	19544
892.594	19548
892.717	19525
892.839	19525
892.962	19597
893.085	19620
893.207	19666
893.33	19537
893.452	19552
893.575	19655
893.697	19601
893.819	19742
893.941	19780
894.064	19769
894.186	19578
894.308	19624
894.43	19715
894.552	19765
894.674	19696
894.796	19582
894.918	19594
895.04	19571
895.161	19769
895.283	19514
895.405	19578
895.526	19639
895.648	19540
895.769	19563
895.891	19647
896.012	19772
896.134	19723
896.255	19548
896.376	19582
896.498	19556
896.619	19632
896.74	19578
896.861	19647
896.982	19909
897.103	20069
897.224	19890
897.345	19795
897.466	19757
897.587	19803
897.708	19989
897.828	19860
897.949	19795
898.07	19704
898.19	19704
898.311	19944
898.431	19830
898.552	19868
898.672	19959
898.792	19868
898.913	19814
899.033	19807
899.153	19719
899.273	19586
899.393	19559
899.513	19742
899.633	19677
899.753	19594
899.873	19533
899.993	19712
900.113	19575
900.232	19548
900.352	19594
900.472	19304
900.591	19350
900.711	19388
900.83	19392
900.95	19510
901.069	19426
901.189	19236
901.308	19110
901.427	19084
901.546	18916
901.665	18970
901.784	18981
901.904	18875
902.023	18711
902.141	18555
902.26	18578
902.379	18601
902.498	18471
902.617	18490
902.735	18528
902.854	18410
902.973	18388
903.091	18247
903.21	18117
903.328	18095
903.446	18201
903.565	18019
903.683	18038
903.801	17840
903.919	17942
904.038	17950
904.156	17824
904.274	17821
904.392	17642
904.51	17703
904.627	17695
904.745	17866
904.863	17672
904.981	17551
905.098	17455
905.216	17391
905.334	17478
905.451	17429
905.569	17250
905.686	17440
905.803	17376
905.921	17239
906.038	17337
906.155	17277
906.272	17204
906.389	17159
906.506	16923
906.623	16972
906.74	16961
906.857	16843
906.974	16911
907.091	17029
907.208	17029
907.324	17037
907.441	16934
907.557	16744
907.674	16687
907.79	16664
907.907	16656
908.023	16656
908.139	16740
908.256	16630
908.372	16577
908.488	16584
908.604	16577
908.72	16386
908.836	16333
908.952	16379
909.068	16421
909.184	16500
909.3	16432
909.415	16451
909.531	16424
909.647	16177
909.762	16147
909.878	16063
909.993	16139
910.108	16071
910.224	15983
910.339	16025
910.454	15987
910.57	15895
910.685	15865
910.8	16139
910.915	15991
911.03	15926
911.145	15705
911.259	15717
911.374	15717
911.489	15724
911.604	15526
911.718	15443
911.833	15492
911.947	15336
912.062	15374
912.176	15397
912.291	15458
912.405	15469
912.519	15701
912.633	15705
912.748	15496
912.862	15473
912.976	15294
913.09	15264
913.204	15184
913.318	15203
913.431	15275
913.545	15389
913.659	15291
913.772	15321
913.886	15169
914	15005
914.113	15131
914.226	15154
914.34	15161
914.453	15017
914.566	15085
914.68	14990
914.793	14849
914.906	14838
915.019	14724
915.132	14705
915.245	14788
915.358	14727
915.47	14663
915.583	14735
915.696	14655
915.809	14781
915.921	14880
916.034	14632
916.146	14644
916.259	14632
916.371	14682
916.483	14587
916.595	14575
916.708	14530
916.82	14545
916.932	14511
917.044	14438
917.156	14514
917.268	14408
917.38	14419
917.491	14374
917.603	14404
917.715	14423
917.826	14492
917.938	14332
918.049	14282
918.161	14248
918.272	14461
918.384	14454
918.495	14362
918.606	14233
918.717	14081
918.828	14084
918.939	14202
919.05	14107
919.161	14187
919.272	13913
919.383	14016
919.494	14157
919.604	14301
919.715	14050
919.826	14088
919.936	14058
920.047	14107
920.157	14199
920.267	14332
920.378	14138
920.488	14065
920.598	14275
920.708	14313
920.818	14256
920.928	14214
921.038	14419
921.148	14339
921.258	14065
921.368	14012
921.477	13856
921.587	13852
921.697	13704
921.806	13852
921.916	13708
922.025	13559
922.134	13529
922.244	13487
922.353	13578
922.462	13327
922.571	13327
922.68	13137
922.789	13240
922.898	13183
923.007	13145
923.116	13213
923.224	13149
923.333	13107
923.442	13012
923.55	12962
923.659	13069
923.767	13061
923.876	12962
923.984	13034
924.092	12947
924.201	12856
924.309	12890
924.417	12935
924.525	12867
924.633	12920
924.741	13830
924.849	12650
924.956	12779
925.064	12658
925.172	12563
925.279	12570
925.387	12608
925.494	12612
925.602	12715
925.709	12700
925.816	12479
925.924	12585
926.031	12673
926.138	12612
926.245	12601
926.352	12460
926.459	12650
926.566	12604
926.673	12418
926.779	12304
926.886	12289
926.993	12167
927.099	12186
927.206	12140
927.312	12121
927.419	12220
927.525	12186
927.631	12167
927.737	12163
927.843	12003
927.95	11999
928.056	11961
928.162	12030
928.267	12068
928.373	12662
928.479	11988
928.585	11790
928.69	11927
928.796	11984
928.901	11946
929.007	11695
929.112	11847
929.218	11809
929.323	11828
929.428	11718
929.533	11824
929.638	11695
929.743	11680
929.848	11745
929.953	11634
930.058	11604
930.163	11455
930.267	11383
930.372	11524
930.477	11444
930.581	11608
930.685	11493
930.79	11353
930.894	11395
930.998	11330
931.103	11425
931.207	11067
931.311	11079
931.415	10892
931.519	10714
931.623	10698
