Data from test_V78500241_1353.txt Node
Date: Fri Mar 25 15:19:16 CST 2022
User: usil
Spectrometer: V785-0024
Trigger mode: 0
Integration Time (sec): 4.000000E-1
Scans to average: 1
Nonlinearity correction enabled: false
Boxcar width: 0
Storing dark spectrum: false
XAxis mode: Wavelengths
Number of Pixels in Spectrum: 1024
>>>>>Begin Spectral Data<<<<<
801.071	28147
801.214	28223
801.356	27823
801.499	27854
801.641	27648
801.783	27591
801.926	27827
802.068	27633
802.211	27671
802.353	27709
802.496	27462
802.638	27344
802.78	27325
802.923	27291
803.065	27252
803.208	27321
803.35	27469
803.492	27492
803.635	27553
803.777	27424
803.919	27549
804.061	27914
804.204	27663
804.346	27545
804.488	27454
804.63	27542
804.773	27576
804.915	27504
805.057	27633
805.199	27591
805.341	27644
805.483	27751
805.626	27720
805.768	27656
805.91	27656
806.052	27629
806.194	27698
806.336	27861
806.478	27705
806.62	27785
806.762	27899
806.904	27930
807.046	28295
807.188	28135
807.33	28188
807.472	28188
807.614	28063
807.756	28166
807.898	28078
808.04	27934
808.182	27926
808.324	28059
808.465	28093
808.607	28150
808.749	28287
808.891	28561
809.033	28409
809.174	28462
809.316	28310
809.458	28375
809.6	28367
809.741	28401
809.883	28500
810.025	28771
810.166	28607
810.308	28584
810.45	28683
810.591	28455
810.733	28592
810.875	28310
811.016	28147
811.158	28090
811.299	28386
811.441	28481
811.582	28459
811.724	28455
811.865	28424
812.007	28348
812.148	28451
812.29	28371
812.431	28611
812.573	28664
812.714	28824
812.855	28965
812.997	29079
813.138	29193
813.279	28953
813.421	28972
813.562	28854
813.703	28702
813.845	28523
813.986	28265
814.127	28177
814.268	28105
814.41	28051
814.551	28063
814.692	28238
814.833	27994
814.974	28063
815.115	28036
815.256	27987
815.397	27949
815.539	27759
815.68	27949
815.821	27766
815.962	27911
816.103	28055
816.244	27873
816.385	27690
816.526	27534
816.666	27507
816.807	27382
816.948	27488
817.089	27336
817.23	27374
817.371	27382
817.512	27317
817.653	27477
817.793	27351
817.934	27264
818.075	27306
818.216	27268
818.356	27519
818.497	27161
818.638	27058
818.778	27104
818.919	27104
819.06	27184
819.2	27249
819.341	27401
819.481	27412
819.622	27614
819.762	27637
819.903	27648
820.043	27618
820.184	27595
820.324	27454
820.465	27637
820.605	27561
820.746	27420
820.886	27462
821.026	27485
821.167	27481
821.307	27591
821.447	27249
821.588	27344
821.728	27135
821.868	27051
822.008	26804
822.149	26880
822.289	26826
822.429	26522
822.569	26613
822.709	26518
822.849	26362
822.99	26415
823.13	26351
823.27	26446
823.41	26100
823.55	26122
823.69	26157
823.83	26214
823.97	26081
824.11	26031
824.25	25909
824.389	25959
824.529	26084
824.669	26054
824.809	26210
824.949	26081
825.089	25955
825.228	26046
825.368	25799
825.508	25925
825.648	25849
825.787	25860
825.927	25879
826.067	25826
826.206	25871
826.346	25970
826.485	25932
826.625	25864
826.765	26058
826.904	25906
827.044	25601
827.183	25597
827.323	25533
827.462	25677
827.601	25658
827.741	25605
827.88	25590
828.02	25499
828.159	25559
828.298	25556
828.437	25643
828.577	25449
828.716	25658
828.855	25460
828.994	25213
829.134	25346
829.273	25343
829.412	25324
829.551	25293
829.69	25308
829.829	25331
829.968	25312
830.107	25479
830.246	25282
830.385	25148
830.524	25129
830.663	25038
830.802	24943
830.941	25004
831.08	24833
831.219	25057
831.357	24947
831.496	25217
831.635	24852
831.774	24817
831.913	24829
832.051	24776
832.19	24646
832.329	24772
832.467	24783
832.606	24544
832.744	24646
832.883	24566
833.022	24608
833.16	24597
833.299	24700
833.437	24582
833.576	24601
833.714	24654
833.852	24776
833.991	24623
834.129	24719
834.267	24768
834.406	24665
834.544	24840
834.682	24642
834.821	24593
834.959	24894
835.097	24585
835.235	24684
835.373	24479
835.511	24601
835.65	24528
835.788	24456
835.926	24414
836.064	24433
836.202	24304
836.34	24559
836.478	24559
836.615	24365
836.753	24403
836.891	24479
837.029	24467
837.167	24376
837.305	24403
837.443	24399
837.58	24190
837.718	24311
837.856	24311
837.993	24224
838.131	24281
838.269	24148
838.406	24133
838.544	24095
838.681	24022
838.819	23973
838.956	23771
839.094	23802
839.231	23676
839.369	24076
839.506	24121
839.643	23950
839.781	23836
839.918	23798
840.055	23843
840.193	23752
840.33	23596
840.467	23817
840.604	23634
840.742	23977
840.879	23528
841.016	23585
841.153	23509
841.29	23741
841.427	23699
841.564	23821
841.701	23657
841.838	23566
841.975	23528
842.112	23554
842.249	23505
842.385	23307
842.522	23703
842.659	23421
842.796	23383
842.933	23490
843.069	23383
843.206	23315
843.343	23406
843.479	23330
843.616	23444
843.752	23231
843.889	23193
844.025	23383
844.162	23197
844.298	23288
844.435	23284
844.571	23121
844.708	23311
844.844	23478
844.98	23353
845.117	23292
845.253	23166
845.389	23086
845.525	23143
845.661	23010
845.798	22847
845.934	22942
846.07	22885
846.206	22885
846.342	23121
846.478	23075
846.614	22649
846.75	22622
846.886	22561
847.022	22782
847.158	22668
847.294	22694
847.429	22748
847.565	22679
847.701	22866
847.837	22421
847.972	22424
848.108	22531
848.244	22417
848.379	22272
848.515	22207
848.65	22337
848.786	22337
848.921	22314
849.057	22421
849.192	22367
849.328	22287
849.463	22306
849.598	22211
849.734	22150
849.869	22048
850.004	22044
850.14	22059
850.275	21983
850.41	22017
850.545	21861
850.68	21930
850.815	22093
850.95	22067
851.085	22116
851.22	22063
851.355	22006
851.49	22021
851.625	21865
851.76	21861
851.895	21903
852.03	21937
852.165	21884
852.299	22032
852.434	22055
852.569	22128
852.703	22086
852.838	22093
852.973	22173
853.107	22261
853.242	22067
853.376	21953
853.511	21800
853.645	21865
853.78	21964
853.914	21819
854.048	21766
854.183	21682
854.317	21911
854.451	21994
854.585	21827
854.72	21797
854.854	21934
854.988	21774
855.122	21880
855.256	21800
855.39	21861
855.524	21869
855.658	21876
855.792	21831
855.926	21899
856.06	21918
856.194	21945
856.327	21755
856.461	21835
856.595	21728
856.729	21766
856.862	21915
856.996	21884
857.13	21915
857.263	22006
857.397	21823
857.53	21751
857.664	21873
857.797	21827
857.931	21907
858.064	21823
858.197	21884
858.331	21861
858.464	21732
858.597	21797
858.731	21800
858.864	21778
858.997	21823
859.13	21770
859.263	21804
859.396	21827
859.529	21945
859.662	21846
859.795	21823
859.928	21979
860.061	21975
860.194	22010
860.327	21994
860.46	21755
860.592	22010
860.725	21987
860.858	22059
860.99	21922
861.123	21739
861.256	21827
861.388	21728
861.521	22481
861.653	21720
861.786	21652
861.918	21717
862.05	21732
862.183	21793
862.315	21827
862.447	21774
862.58	21823
862.712	21591
862.844	21591
862.976	21553
863.108	21637
863.24	21899
863.372	21515
863.504	21519
863.636	21473
863.768	21610
863.9	21466
864.032	21424
864.164	21447
864.296	21557
864.428	21519
864.559	21686
864.691	21507
864.823	21553
864.954	21424
865.086	21488
865.217	21359
865.349	21370
865.48	21424
865.612	21340
865.743	21504
865.875	21428
866.006	21249
866.137	21355
866.269	21317
866.4	21359
866.531	21412
866.662	21272
866.793	21294
866.924	21363
867.055	21279
867.186	21272
867.317	21412
867.448	21245
867.579	21310
867.71	21256
867.841	21211
867.972	21405
868.103	21317
868.233	21363
868.364	21492
868.495	21439
868.625	21603
868.756	21682
868.886	21530
869.017	21618
869.147	21797
869.278	21644
869.408	21610
869.539	21614
869.669	21717
869.799	21606
869.929	21736
870.06	21610
870.19	21869
870.32	21895
870.45	22013
870.58	21850
870.71	22135
870.84	22059
870.97	21918
871.1	21926
871.23	22162
871.36	22169
871.489	22040
871.619	22257
871.749	22154
871.879	22143
872.008	22215
872.138	22093
872.267	22166
872.397	21972
872.526	22036
872.656	21918
872.785	22097
872.915	22150
873.044	22295
873.173	22131
873.303	22234
873.432	22147
873.561	22306
873.69	22253
873.819	22162
873.948	22337
874.077	22120
874.206	22025
874.335	22131
874.464	22261
874.593	22592
874.722	22455
874.851	22447
874.979	22485
875.108	22462
875.237	22295
875.365	22333
875.494	22333
875.623	22588
875.751	22303
875.88	22424
876.008	22599
876.136	22573
876.265	22744
876.393	22965
876.521	22873
876.65	22812
876.778	22820
876.906	22656
877.034	22713
877.162	22809
877.29	22664
877.418	22824
877.546	22736
877.674	22660
877.802	22744
877.93	22710
878.058	22733
878.185	22573
878.313	22687
878.441	22847
878.568	22409
878.696	22584
878.824	22660
878.951	22733
879.079	22835
879.206	22991
879.333	22873
879.461	22793
879.588	22877
879.715	22835
879.842	22972
879.97	22778
880.097	22554
880.224	22577
880.351	22664
880.478	22561
880.605	22550
880.732	22588
880.859	22771
880.986	22588
881.112	22489
881.239	22402
881.366	22413
881.493	22234
881.619	22272
881.746	22249
881.872	22109
881.999	22086
882.125	21895
882.252	22280
882.378	22131
882.505	22086
882.631	22032
882.757	21934
882.883	21899
883.01	21835
883.136	21789
883.262	21663
883.388	21679
883.514	21842
883.64	21831
883.766	21724
883.892	21595
884.018	21587
884.143	21694
884.269	21979
884.395	21549
884.52	21534
884.646	21477
884.772	21477
884.897	21477
885.023	21564
885.148	21595
885.274	21667
885.399	21500
885.524	21420
885.65	21507
885.775	21374
885.9	21496
886.025	21534
886.15	21572
886.275	21378
886.4	21363
886.525	21431
886.65	21348
886.775	21275
886.9	21606
887.025	21686
887.149	21374
887.274	21268
887.399	21291
887.523	21188
887.648	21302
887.773	21192
887.897	21256
888.021	21260
888.146	21142
888.27	21355
888.395	21230
888.519	21454
888.643	21325
888.767	21207
888.891	21237
889.015	21062
889.139	21169
889.263	20933
889.387	21108
889.511	21127
889.635	21119
889.759	21024
889.883	21047
890.006	20982
890.13	21039
890.254	20952
890.377	20956
890.501	20750
890.624	20720
890.748	20880
890.871	20594
890.995	20583
891.118	20492
891.241	20613
891.364	20552
891.488	20678
891.611	20560
891.734	20648
891.857	20598
891.98	20564
892.103	20560
892.226	20503
892.349	20446
892.471	20317
892.594	20503
892.717	20484
892.839	20446
892.962	20389
893.085	20583
893.207	20575
893.33	20328
893.452	20237
893.575	20476
893.697	20427
893.819	20625
893.941	20693
894.064	20518
894.186	20362
894.308	20423
894.43	20522
894.552	20678
894.674	20594
894.796	20438
894.918	20362
895.04	20488
895.161	20655
895.283	20530
895.405	20419
895.526	20469
895.648	20400
895.769	20533
895.891	20575
896.012	20594
896.134	20522
896.255	20374
896.376	20545
896.498	20549
896.619	20533
896.74	20522
896.861	20408
896.982	20872
897.103	20861
897.224	20857
897.345	20609
897.466	20556
897.587	20552
897.708	20872
897.828	20648
897.949	20651
898.07	20389
898.19	20617
898.311	20712
898.431	20712
898.552	20674
898.672	20815
898.792	20712
898.913	20674
899.033	20602
899.153	20454
899.273	20412
899.393	20438
899.513	20446
899.633	20446
899.753	20396
899.873	20256
899.993	20351
900.113	20282
900.232	20301
900.352	20298
900.472	20115
900.591	20191
900.711	20214
900.83	20168
900.95	20240
901.069	20244
901.189	20092
901.308	19811
901.427	19791
901.546	19712
901.665	19799
901.784	19784
901.904	19552
902.023	19480
902.141	19202
902.26	19259
902.379	19312
902.498	19297
902.617	19240
902.735	19255
902.854	19259
902.973	19137
903.091	18966
903.21	18951
903.328	18913
903.446	18878
903.565	18684
903.683	18798
903.801	18616
903.919	18768
904.038	18654
904.156	18525
904.274	18665
904.392	18502
904.51	18532
904.627	18502
904.745	18509
904.863	18509
904.981	18350
905.098	18232
905.216	18197
905.334	18190
905.451	18296
905.569	18239
905.686	18296
905.803	18174
905.921	17950
906.038	18064
906.155	17961
906.272	17813
906.389	17912
906.506	17703
906.623	17794
906.74	17657
906.857	17638
906.974	17630
907.091	17752
907.208	17863
907.324	17737
907.441	17657
907.557	17535
907.674	17436
907.79	17296
907.907	17395
908.023	17406
908.139	17512
908.256	17379
908.372	17292
908.488	17277
908.604	17231
908.72	17109
908.836	17151
908.952	17045
909.068	17124
909.184	17250
909.3	17052
909.415	17212
909.531	17159
909.647	16919
909.762	16862
909.878	16759
909.993	16908
910.108	16839
910.224	16713
910.339	16744
910.454	16721
910.57	16641
910.685	16538
910.8	16839
910.915	16828
911.03	16599
911.145	16375
911.259	16424
911.374	16485
911.489	16306
911.604	16242
911.718	16185
911.833	16284
911.947	16082
912.062	15987
912.176	16249
912.291	16059
912.405	16120
912.519	16402
912.633	16329
912.748	16211
912.862	16078
912.976	16154
913.09	15953
913.204	15987
913.318	15960
913.431	16120
913.545	15983
913.659	16109
913.772	15930
913.886	15861
914	15808
914.113	15945
914.226	15930
914.34	15827
914.453	15576
914.566	15759
914.68	15603
914.793	15595
914.906	15538
915.019	15367
915.132	15428
915.245	15408
915.358	15477
915.47	15363
915.583	15313
915.696	15492
915.809	15557
915.921	15500
916.034	15317
916.146	15351
916.259	15222
916.371	15355
916.483	15287
916.595	15245
916.708	15325
916.82	15233
916.932	15142
917.044	15203
917.156	15108
917.268	15001
917.38	15070
917.491	15028
917.603	14963
917.715	15055
917.826	15081
917.938	14933
918.049	14838
918.161	14929
918.272	15116
918.384	15032
918.495	14994
918.606	14872
918.717	14667
918.828	14807
918.939	14838
919.05	14648
919.161	14712
919.272	14514
919.383	14606
919.494	14872
919.604	15017
919.715	14731
919.826	14613
919.936	14765
920.047	14697
920.157	14807
920.267	14956
920.378	14750
920.488	14739
920.598	14883
920.708	14914
920.818	14910
920.928	14895
921.038	15001
921.148	14944
921.258	14701
921.368	14522
921.477	14549
921.587	14434
921.697	14256
921.806	14381
921.916	14267
922.025	14119
922.134	14058
922.244	14073
922.353	14111
922.462	13959
922.571	13822
922.68	13776
922.789	13708
922.898	13731
923.007	13590
923.116	13799
923.224	13780
923.333	13761
923.442	13586
923.55	13525
923.659	13586
923.767	13655
923.876	13544
923.984	13601
924.092	13533
924.201	13430
924.309	13514
924.417	13434
924.525	13476
924.633	13403
924.741	14164
924.849	13152
924.956	13324
925.064	13221
925.172	13160
925.279	13095
925.387	13266
925.494	13171
925.602	13263
925.709	13175
925.816	13019
925.924	13107
926.031	13236
926.138	13164
926.245	13072
926.352	12981
926.459	13038
926.566	13149
926.673	13004
926.779	12897
926.886	12901
926.993	12817
927.099	12688
927.206	12696
927.312	12631
927.419	12802
927.525	12646
927.631	12779
927.737	12604
927.843	12563
927.95	12517
928.056	12448
928.162	12490
928.267	12673
928.373	13168
928.479	12604
928.585	12372
928.69	12452
928.796	12532
928.901	12391
929.007	12224
929.112	12338
929.218	12319
929.323	12330
929.428	12285
929.533	12384
929.638	12178
929.743	12178
929.848	12262
929.953	12167
930.058	12057
930.163	11859
930.267	11939
930.372	12068
930.477	11859
930.581	12106
930.685	11946
930.79	11832
930.894	11802
930.998	11767
931.103	11923
931.207	11509
931.311	11459
931.415	11398
931.519	11284
931.623	11189
