Data from test_V78500241_2729.txt Node
Date: Fri Mar 25 15:28:51 CST 2022
User: usil
Spectrometer: V785-0024
Trigger mode: 0
Integration Time (sec): 4.000000E-1
Scans to average: 1
Nonlinearity correction enabled: false
Boxcar width: 0
Storing dark spectrum: false
XAxis mode: Wavelengths
Number of Pixels in Spectrum: 1024
>>>>>Begin Spectral Data<<<<<
801.071	27325
801.214	27055
801.356	26960
801.499	26940
801.641	26701
801.783	26674
801.926	26743
802.068	26727
802.211	26579
802.353	26686
802.496	26381
802.638	26358
802.78	26377
802.923	26191
803.065	26172
803.208	26263
803.35	26370
803.492	26473
803.635	26587
803.777	26503
803.919	26537
804.061	26895
804.204	26629
804.346	26564
804.488	26526
804.63	26651
804.773	26499
804.915	26568
805.057	26735
805.199	26533
805.341	26541
805.483	26579
805.626	26617
805.768	26659
805.91	26594
806.052	26651
806.194	26492
806.336	26925
806.478	26625
806.62	26617
806.762	26697
806.904	27017
807.046	27150
807.188	27028
807.33	27127
807.472	27184
807.614	26948
807.756	27013
807.898	26918
808.04	26849
808.182	26724
808.324	26838
808.465	26979
808.607	27119
808.749	27256
808.891	27283
809.033	27454
809.174	27230
809.316	27093
809.458	27218
809.6	27264
809.741	27359
809.883	27405
810.025	27507
810.166	27545
810.308	27519
810.45	27538
810.591	27382
810.733	27378
810.875	27306
811.016	27116
811.158	27036
811.299	27424
811.441	27507
811.582	27469
811.724	27207
811.865	27199
812.007	27268
812.148	27104
812.29	27279
812.431	27199
812.573	27511
812.714	27690
812.855	27717
812.997	27865
813.138	27751
813.279	27660
813.421	27701
813.562	27618
813.703	27553
813.845	27397
813.986	27249
814.127	26994
814.268	26842
814.41	26800
814.551	26746
814.692	26940
814.833	26758
814.974	26773
815.115	26880
815.256	26872
815.397	26773
815.539	26826
815.68	26678
815.821	26571
815.962	26636
816.103	26667
816.244	26488
816.385	26393
816.526	26552
816.666	26237
816.807	26202
816.948	26244
817.089	26298
817.23	26183
817.371	26062
817.512	26065
817.653	26199
817.793	26145
817.934	26065
818.075	26168
818.216	26115
818.356	26005
818.497	26062
818.638	25932
818.778	25814
818.919	25898
819.06	25966
819.2	25932
819.341	26024
819.481	26130
819.622	26259
819.762	26492
819.903	26404
820.043	26271
820.184	26199
820.324	26107
820.465	26244
820.605	26286
820.746	26225
820.886	26031
821.026	26119
821.167	26271
821.307	26164
821.447	26161
821.588	25966
821.728	25993
821.868	25704
822.008	25479
822.149	25734
822.289	25578
822.429	25206
822.569	25297
822.709	25274
822.849	25160
822.99	25179
823.13	24977
823.27	25145
823.41	24966
823.55	24844
823.69	24871
823.83	24856
823.97	24798
824.11	24601
824.25	24544
824.389	24730
824.529	24757
824.669	24677
824.809	24935
824.949	24814
825.089	24795
825.228	24692
825.368	24646
825.508	24441
825.648	24658
825.787	24703
825.927	24608
826.067	24582
826.206	24760
826.346	24677
826.485	24616
826.625	24582
826.765	24684
826.904	24627
827.044	24342
827.183	24369
827.323	24254
827.462	24338
827.601	24243
827.741	24384
827.88	24452
828.02	24152
828.159	24262
828.298	24395
828.437	24365
828.577	24300
828.716	24323
828.855	24235
828.994	24045
829.134	23942
829.273	24060
829.412	24022
829.551	23916
829.69	24060
829.829	24007
829.968	24041
830.107	24049
830.246	24182
830.385	23927
830.524	23885
830.663	23783
830.802	23684
830.941	23493
831.08	23551
831.219	23714
831.357	23714
831.496	23973
831.635	23623
831.774	23581
831.913	23558
832.051	23463
832.19	23421
832.329	23398
832.467	23250
832.606	23227
832.744	23227
832.883	23311
833.022	23261
833.16	23284
833.299	23391
833.437	23364
833.576	23303
833.714	23421
833.852	23478
833.991	23467
834.129	23448
834.267	23398
834.406	23421
834.544	23436
834.682	23478
834.821	23383
834.959	23459
835.097	23452
835.235	23292
835.373	23307
835.511	23246
835.65	23242
835.788	23303
835.926	23037
836.064	23006
836.202	23056
836.34	23185
836.478	23288
836.615	23121
836.753	23121
836.891	23261
837.029	23258
837.167	23166
837.305	23022
837.443	23079
837.58	23044
837.718	23170
837.856	23014
837.993	22934
838.131	22927
838.269	22923
838.406	22949
838.544	22854
838.681	22683
838.819	22649
838.956	22630
839.094	22512
839.231	22508
839.369	22596
839.506	23014
839.643	22801
839.781	22360
839.918	22409
840.055	22485
840.193	22481
840.33	22557
840.467	22508
840.604	22538
840.742	22759
840.879	22344
841.016	22390
841.153	22287
841.29	22611
841.427	22382
841.564	22546
841.701	22371
841.838	22363
841.975	22352
842.112	22382
842.249	22363
842.385	22238
842.522	22462
842.659	22272
842.796	22173
842.933	22276
843.069	22128
843.206	22147
843.343	22257
843.479	22135
843.616	22295
843.752	22021
843.889	22025
844.025	22120
844.162	22036
844.298	22010
844.435	22067
844.571	21918
844.708	21937
844.844	22188
844.98	22063
845.117	22169
845.253	22032
845.389	21759
845.525	21930
845.661	21804
845.798	21774
845.934	21785
846.07	21728
846.206	21679
846.342	21987
846.478	21568
846.614	21587
846.75	21462
846.886	21424
847.022	21576
847.158	21587
847.294	21462
847.429	21576
847.565	21435
847.701	21759
847.837	21241
847.972	21226
848.108	21439
848.244	21230
848.379	21024
848.515	21024
848.65	20941
848.786	21017
848.921	21089
849.057	21089
849.192	21100
849.328	21108
849.463	21058
849.598	21116
849.734	20910
849.869	20982
850.004	20804
850.14	20807
850.275	20895
850.41	20765
850.545	20727
850.68	20853
850.815	20933
850.95	20796
851.085	20994
851.22	20830
851.355	20838
851.49	20861
851.625	20887
851.76	20632
851.895	20823
852.03	20781
852.165	20891
852.299	20967
852.434	20963
852.569	20876
852.703	20819
852.838	20891
852.973	20883
853.107	20941
853.242	20765
853.376	20579
853.511	20434
853.645	20571
853.78	20804
853.914	20712
854.048	20587
854.183	20682
854.317	20659
854.451	20826
854.585	20621
854.72	20613
854.854	20705
854.988	20636
855.122	20651
855.256	20568
855.39	20655
855.524	20758
855.658	20705
855.792	20648
855.926	20792
856.06	20682
856.194	20670
856.327	20659
856.461	20598
856.595	20602
856.729	20587
856.862	20765
856.996	20625
857.13	20655
857.263	20777
857.397	20705
857.53	20674
857.664	20659
857.797	20765
857.931	20720
858.064	20644
858.197	20826
858.331	20796
858.464	20663
858.597	20533
858.731	20594
858.864	20670
858.997	20651
859.13	20636
859.263	20697
859.396	20697
859.529	20625
859.662	20640
859.795	20408
859.928	20583
860.061	20895
860.194	20823
860.327	20670
860.46	20682
860.592	20735
860.725	20701
860.858	20750
860.99	20655
861.123	20507
861.256	20522
861.388	20609
861.521	21192
861.653	20499
861.786	20374
861.918	20667
862.05	20575
862.183	20511
862.315	20511
862.447	20678
862.58	20609
862.712	20400
862.844	20446
862.976	20442
863.108	20431
863.24	20838
863.372	20415
863.504	20328
863.636	20415
863.768	20362
863.9	20351
864.032	20202
864.164	20370
864.296	20457
864.428	20469
864.559	20450
864.691	20431
864.823	20282
864.954	20355
865.086	20328
865.217	20324
865.349	20248
865.48	20172
865.612	20202
865.743	20450
865.875	20259
866.006	20240
866.137	20221
866.269	20202
866.4	20259
866.531	20199
866.662	20210
866.793	20122
866.924	20195
867.055	20183
867.186	20126
867.317	20161
867.448	20157
867.579	20058
867.71	20054
867.841	20172
867.972	20183
868.103	20130
868.233	20183
868.364	20278
868.495	20343
868.625	20434
868.756	20469
868.886	20412
869.017	20457
869.147	20598
869.278	20659
869.408	20412
869.539	20465
869.669	20541
869.799	20503
869.929	20484
870.06	20659
870.19	20792
870.32	20758
870.45	20815
870.58	20899
870.71	21051
870.84	21036
870.97	20811
871.1	20853
871.23	21024
871.36	21135
871.489	20979
871.619	21081
871.749	21173
871.879	21017
872.008	21173
872.138	21036
872.267	21116
872.397	21017
872.526	20872
872.656	20925
872.785	21036
872.915	21108
873.044	21211
873.173	21013
873.303	21131
873.432	21123
873.561	21119
873.69	21119
873.819	21157
873.948	21275
874.077	21135
874.206	21108
874.335	20971
874.464	21230
874.593	21302
874.722	21310
874.851	21447
874.979	21450
875.108	21336
875.237	21310
875.365	21348
875.494	21302
875.623	21431
875.751	21344
875.88	21386
876.008	21435
876.136	21485
876.265	21625
876.393	21785
876.521	21762
876.65	21759
876.778	21793
876.906	21770
877.034	21671
877.162	21755
877.29	21587
877.418	21606
877.546	21561
877.674	21713
877.802	21675
877.93	21698
878.058	21637
878.185	21545
878.313	21492
878.441	21629
878.568	21507
878.696	21637
878.824	21701
878.951	21827
879.079	21774
879.206	22063
879.333	21808
879.461	21667
879.588	21682
879.715	21884
879.842	22021
879.97	21694
880.097	21568
880.224	21412
880.351	21530
880.478	21534
880.605	21382
880.732	21549
880.859	21804
880.986	21538
881.112	21690
881.239	21370
881.366	21157
881.493	21157
881.619	21081
881.746	21089
881.872	21062
881.999	21062
882.125	21001
882.252	21074
882.378	20941
882.505	21279
882.631	20891
882.757	20918
882.883	20918
883.01	20746
883.136	20838
883.262	20651
883.388	20594
883.514	20842
883.64	20769
883.766	20648
883.892	20560
884.018	20655
884.143	20632
884.269	20804
884.395	20632
884.52	20476
884.646	20427
884.772	20366
884.897	20499
885.023	20408
885.148	20564
885.274	20541
885.399	20518
885.524	20476
885.65	20469
885.775	20461
885.9	20431
886.025	20533
886.15	20412
886.275	20404
886.4	20370
886.525	20366
886.65	20240
886.775	20336
886.9	20594
887.025	20648
887.149	20541
887.274	20199
887.399	20115
887.523	20229
887.648	20199
887.773	20084
887.897	20275
888.021	20301
888.146	20149
888.27	20317
888.395	20355
888.519	20199
888.643	20161
888.767	20111
888.891	20008
889.015	20008
889.139	19955
889.263	19978
889.387	20145
889.511	20206
889.635	20153
889.759	19978
889.883	20081
890.006	20054
890.13	20145
890.254	20035
890.377	19974
890.501	19913
890.624	19822
890.748	19833
890.871	19742
890.995	19613
891.118	19529
891.241	19662
891.364	19601
891.488	19712
891.611	19613
891.734	19506
891.857	19712
891.98	19521
892.103	19590
892.226	19635
892.349	19559
892.471	19343
892.594	19472
892.717	19597
892.839	19491
892.962	19506
893.085	19556
893.207	19521
893.33	19449
893.452	19358
893.575	19487
893.697	19533
893.819	19666
893.941	19662
894.064	19769
894.186	19529
894.308	19495
894.43	19529
894.552	19655
894.674	19506
894.796	19460
894.918	19567
895.04	19403
895.161	19514
895.283	19506
895.405	19533
895.526	19506
895.648	19502
895.769	19556
895.891	19480
896.012	19613
896.134	19620
896.255	19499
896.376	19559
896.498	19514
896.619	19613
896.74	19525
896.861	19601
896.982	19826
897.103	20012
897.224	19879
897.345	19837
897.466	19753
897.587	19704
897.708	19856
897.828	19860
897.949	19708
898.07	19563
898.19	19708
898.311	19765
898.431	19712
898.552	19609
898.672	19849
898.792	19753
898.913	19628
899.033	19708
899.153	19537
899.273	19441
899.393	19563
899.513	19556
899.633	19586
899.753	19655
899.873	19476
899.993	19563
900.113	19434
900.232	19434
900.352	19491
900.472	19472
900.591	19255
900.711	19354
900.83	19244
900.95	19297
901.069	19392
901.189	19221
901.308	19012
901.427	18886
901.546	18935
901.665	18894
901.784	18897
901.904	18764
902.023	18760
902.141	18620
902.26	18456
902.379	18460
902.498	18460
902.617	18369
902.735	18426
902.854	18376
902.973	18399
903.091	18079
903.21	18167
903.328	18174
903.446	18007
903.565	17805
903.683	17942
903.801	17684
903.919	17798
904.038	17802
904.156	17741
904.274	17817
904.392	17585
904.51	17581
904.627	17581
904.745	17691
904.863	17653
904.981	17459
905.098	17265
905.216	17356
905.334	17273
905.451	17307
905.569	17364
905.686	17467
905.803	17284
905.921	17083
906.038	17204
906.155	17151
906.272	17147
906.389	17037
906.506	16911
906.623	16885
906.74	16824
906.857	16736
906.974	16713
907.091	16961
907.208	17010
907.324	16980
907.441	16767
907.557	16740
907.674	16660
907.79	16554
907.907	16569
908.023	16656
908.139	16611
908.256	16523
908.372	16516
908.488	16478
908.604	16390
908.72	16333
908.836	16379
908.952	16337
909.068	16287
909.184	16409
909.3	16272
909.415	16322
909.531	16341
909.647	16067
909.762	16135
909.878	15983
909.993	16101
910.108	15937
910.224	15979
910.339	16021
910.454	15888
910.57	15861
910.685	15857
910.8	16029
910.915	15915
911.03	15800
911.145	15717
911.259	15671
911.374	15614
911.489	15561
911.604	15663
911.718	15405
911.833	15405
911.947	15401
912.062	15268
912.176	15401
912.291	15428
912.405	15428
912.519	15595
912.633	15656
912.748	15515
912.862	15363
912.976	15268
913.09	15104
913.204	15192
913.318	15154
913.431	15340
913.545	15218
913.659	15298
913.772	15176
913.886	15051
914	15039
914.113	15112
914.226	15154
914.34	15173
914.453	14948
914.566	14941
914.68	14944
914.793	14861
914.906	14727
915.019	14617
915.132	14473
915.245	14587
915.358	14564
915.47	14636
915.583	14617
915.696	14682
915.809	14792
915.921	14815
916.034	14579
916.146	14503
916.259	14454
916.371	14610
916.483	14590
916.595	14518
916.708	14495
916.82	14480
916.932	14533
917.044	14427
917.156	14419
917.268	14332
917.38	14427
917.491	14275
917.603	14355
917.715	14282
917.826	14377
917.938	14263
918.049	14172
918.161	14301
918.272	14408
918.384	14465
918.495	14157
918.606	14119
918.717	14039
918.828	14043
918.939	14111
919.05	13978
919.161	14031
919.272	13875
919.383	13906
919.494	14123
919.604	14347
919.715	14069
919.826	13951
919.936	14039
920.047	14164
920.157	14001
920.267	14233
920.378	14062
920.488	13944
920.598	14164
920.708	14362
920.818	14084
920.928	14172
921.038	14317
921.148	14351
921.258	14058
921.368	13951
921.477	13852
921.587	13757
921.697	13677
921.806	13902
921.916	13628
922.025	13506
922.134	13460
922.244	13396
922.353	13491
922.462	13316
922.571	13263
922.68	13080
922.789	13057
922.898	13065
923.007	13004
923.116	13141
923.224	13145
923.333	13034
923.442	12871
923.55	12890
923.659	12916
923.767	13031
923.876	12947
923.984	12913
924.092	12840
924.201	12924
924.309	12875
924.417	12920
924.525	12787
924.633	12795
924.741	13636
924.849	12597
924.956	12722
925.064	12528
925.172	12525
925.279	12506
925.387	12650
925.494	12608
925.602	12639
925.709	12692
925.816	12395
925.924	12517
926.031	12627
926.138	12467
926.245	12544
926.352	12357
926.459	12494
926.566	12509
926.673	12536
926.779	12357
926.886	12342
926.993	12038
927.099	12106
927.206	12060
927.312	12045
927.419	12175
927.525	12148
927.631	12102
927.737	12060
927.843	11923
927.95	11946
928.056	11950
928.162	11973
928.267	12007
928.373	12479
928.479	12045
928.585	11878
928.69	11977
928.796	11893
928.901	11790
929.007	11657
929.112	11889
929.218	11718
929.323	11775
929.428	11691
929.533	11798
929.638	11547
929.743	11623
929.848	11676
929.953	11539
930.058	11501
930.163	11296
930.267	11440
930.372	11649
930.477	11372
930.581	11501
930.685	11406
930.79	11280
930.894	11299
930.998	11208
931.103	11330
931.207	10991
931.311	10942
931.415	10862
931.519	10664
931.623	10653
