Data from test_V78500241_1839.txt Node
Date: Fri Mar 25 15:22:39 CST 2022
User: usil
Spectrometer: V785-0024
Trigger mode: 0
Integration Time (sec): 4.000000E-1
Scans to average: 1
Nonlinearity correction enabled: false
Boxcar width: 0
Storing dark spectrum: false
XAxis mode: Wavelengths
Number of Pixels in Spectrum: 1024
>>>>>Begin Spectral Data<<<<<
801.071	27831
801.214	27759
801.356	27405
801.499	27325
801.641	27207
801.783	27363
801.926	27268
802.068	27359
802.211	27085
802.353	27100
802.496	26857
802.638	26979
802.78	26952
802.923	26811
803.065	26880
803.208	26826
803.35	26883
803.492	27070
803.635	27047
803.777	27001
803.919	27184
804.061	27321
804.204	27150
804.346	27123
804.488	27089
804.63	27123
804.773	27013
804.915	27100
805.057	27146
805.199	27036
805.341	27241
805.483	27127
805.626	27359
805.768	27226
805.91	27313
806.052	27272
806.194	27081
806.336	27397
806.478	27241
806.62	27207
806.762	27397
806.904	27553
807.046	27724
807.188	27709
807.33	27698
807.472	27595
807.614	27515
807.756	27568
807.898	27553
808.04	27561
808.182	27408
808.324	27496
808.465	27679
808.607	27694
808.749	27930
808.891	28029
809.033	27983
809.174	27903
809.316	27781
809.458	27739
809.6	27747
809.741	27949
809.883	27953
810.025	28192
810.166	28044
810.308	28128
810.45	28017
810.591	27975
810.733	27823
810.875	27873
811.016	27793
811.158	27705
811.299	27869
811.441	28029
811.582	27914
811.724	27865
811.865	27812
812.007	27827
812.148	27907
812.29	27945
812.431	27968
812.573	28234
812.714	28211
812.855	28356
812.997	28508
813.138	28417
813.279	28542
813.421	28382
813.562	28375
813.703	28181
813.845	28067
813.986	27759
814.127	27637
814.268	27564
814.41	27701
814.551	27504
814.692	27564
814.833	27488
814.974	27515
815.115	27557
815.256	27382
815.397	27473
815.539	27526
815.68	27355
815.821	27294
815.962	27291
816.103	27272
816.244	27043
816.385	27096
816.526	27283
816.666	26899
816.807	26845
816.948	26743
817.089	26925
817.23	26804
817.371	26815
817.512	26735
817.653	26944
817.793	26686
817.934	26781
818.075	26746
818.216	26899
818.356	26792
818.497	26716
818.638	26442
818.778	26552
818.919	26613
819.06	26606
819.2	26564
819.341	26838
819.481	26826
819.622	27104
819.762	27127
819.903	27047
820.043	27085
820.184	26967
820.324	26895
820.465	26986
820.605	26845
820.746	27032
820.886	26826
821.026	26796
821.167	26960
821.307	26994
821.447	26788
821.588	26712
821.728	26556
821.868	26393
822.008	26442
822.149	26328
822.289	26309
822.429	25913
822.569	26126
822.709	25898
822.849	25887
822.99	25757
823.13	25662
823.27	25662
823.41	25635
823.55	25430
823.69	25742
823.83	25715
823.97	25624
824.11	25502
824.25	25255
824.389	25548
824.529	25544
824.669	25445
824.809	25510
824.949	25369
825.089	25499
825.228	25460
825.368	25320
825.508	25354
825.648	25396
825.787	25365
825.927	25403
826.067	25282
826.206	25266
826.346	25438
826.485	25301
826.625	25354
826.765	25335
826.904	25354
827.044	25099
827.183	25164
827.323	24859
827.462	25171
827.601	24958
827.741	25008
827.88	25118
828.02	24920
828.159	24943
828.298	24989
828.437	25072
828.577	24840
828.716	25251
828.855	24886
828.994	24825
829.134	24696
829.273	24760
829.412	24730
829.551	24631
829.69	24844
829.829	24802
829.968	24837
830.107	24821
830.246	24802
830.385	24688
830.524	24570
830.663	24658
830.802	24486
830.941	24460
831.08	24414
831.219	24460
831.357	24513
831.496	24585
831.635	24357
831.774	24350
831.913	24216
832.051	24083
832.19	24129
832.329	24117
832.467	24106
832.606	24057
832.744	23977
832.883	24091
833.022	23965
833.16	24003
833.299	24041
833.437	24068
833.576	24068
833.714	24022
833.852	24155
833.991	24136
834.129	24235
834.267	24148
834.406	24068
834.544	24194
834.682	24079
834.821	24038
834.959	24182
835.097	24041
835.235	24129
835.373	24018
835.511	24076
835.65	23889
835.788	24053
835.926	23897
836.064	23790
836.202	23798
836.34	23946
836.478	24003
836.615	23843
836.753	23748
836.891	24076
837.029	24049
837.167	23802
837.305	23836
837.443	23885
837.58	23794
837.718	23748
837.856	23813
837.993	23703
838.131	23828
838.269	23657
838.406	23672
838.544	23623
838.681	23547
838.819	23425
838.956	23379
839.094	23265
839.231	23303
839.369	23531
839.506	23680
839.643	23615
839.781	23311
839.918	23231
840.055	23223
840.193	23189
840.33	23216
840.467	23223
840.604	23345
840.742	23436
840.879	23117
841.016	23178
841.153	23079
841.29	23181
841.427	23193
841.564	23261
841.701	23071
841.838	23083
841.975	23128
842.112	23022
842.249	23086
842.385	22946
842.522	23265
842.659	23041
842.796	22953
842.933	22831
843.069	22949
843.206	22980
843.343	22953
843.479	23064
843.616	22911
843.752	22877
843.889	22672
844.025	22866
844.162	22755
844.298	22957
844.435	22721
844.571	22809
844.708	22752
844.844	22919
844.98	22866
845.117	22797
845.253	22615
845.389	22588
845.525	22611
845.661	22588
845.798	22535
845.934	22645
846.07	22428
846.206	22504
846.342	22577
846.478	22462
846.614	22169
846.75	22116
846.886	22150
847.022	22314
847.158	22185
847.294	22322
847.429	22219
847.565	22143
847.701	22500
847.837	21892
847.972	21956
848.108	22135
848.244	22070
848.379	21804
848.515	21770
848.65	21819
848.786	21785
848.921	21785
849.057	21945
849.192	21922
849.328	21800
849.463	21743
849.598	21732
849.734	21736
849.869	21610
850.004	21663
850.14	21682
850.275	21701
850.41	21629
850.545	21435
850.68	21515
850.815	21572
850.95	21477
851.085	21743
851.22	21705
851.355	21614
851.49	21576
851.625	21469
851.76	21572
851.895	21534
852.03	21443
852.165	21564
852.299	21694
852.434	21625
852.569	21599
852.703	21515
852.838	21610
852.973	21717
853.107	21629
853.242	21538
853.376	21477
853.511	21302
853.645	21329
853.78	21576
853.914	21428
854.048	21340
854.183	21351
854.317	21428
854.451	21485
854.585	21370
854.72	21378
854.854	21355
854.988	21405
855.122	21492
855.256	21294
855.39	21344
855.524	21416
855.658	21348
855.792	21306
855.926	21454
856.06	21389
856.194	21481
856.327	21386
856.461	21268
856.595	21382
856.729	21332
856.862	21466
856.996	21405
857.13	21382
857.263	21500
857.397	21477
857.53	21336
857.664	21443
857.797	21485
857.931	21511
858.064	21367
858.197	21450
858.331	21344
858.464	21252
858.597	21268
858.731	21397
858.864	21279
858.997	21397
859.13	21321
859.263	21306
859.396	21534
859.529	21294
859.662	21321
859.795	21268
859.928	21428
860.061	21496
860.194	21542
860.327	21332
860.46	21485
860.592	21370
860.725	21462
860.858	21507
860.99	21420
861.123	21374
861.256	21386
861.388	21344
861.521	22059
861.653	21344
861.786	21249
861.918	21294
862.05	21298
862.183	21336
862.315	21412
862.447	21378
862.58	21264
862.712	21093
862.844	21131
862.976	21146
863.108	21180
863.24	21595
863.372	21135
863.504	21184
863.636	21226
863.768	21093
863.9	21096
864.032	20982
864.164	20979
864.296	21154
864.428	21180
864.559	21146
864.691	21161
864.823	21047
864.954	21165
865.086	21024
865.217	20998
865.349	20960
865.48	20994
865.612	20975
865.743	21039
865.875	21032
866.006	21001
866.137	20895
866.269	20971
866.4	20952
866.531	20872
866.662	20849
866.793	20925
866.924	20933
867.055	20952
867.186	20994
867.317	20872
867.448	20727
867.579	20883
867.71	20842
867.841	20750
867.972	21017
868.103	20853
868.233	21051
868.364	20891
868.495	21005
868.625	21108
868.756	21233
868.886	21074
869.017	21138
869.147	21340
869.278	21192
869.408	21214
869.539	21241
869.669	21249
869.799	21211
869.929	21370
870.06	21249
870.19	21443
870.32	21405
870.45	21515
870.58	21443
870.71	21660
870.84	21641
870.97	21462
871.1	21564
871.23	21682
871.36	21846
871.489	21629
871.619	21743
871.749	21747
871.879	21675
872.008	21857
872.138	21759
872.267	21823
872.397	21610
872.526	21625
872.656	21625
872.785	21557
872.915	21812
873.044	21774
873.173	21789
873.303	21766
873.432	21903
873.561	21842
873.69	21869
873.819	21819
873.948	21953
874.077	21842
874.206	21736
874.335	21762
874.464	21869
874.593	22067
874.722	21987
874.851	22044
874.979	22006
875.108	21991
875.237	21899
875.365	21937
875.494	21945
875.623	22036
875.751	21903
875.88	22013
876.008	22177
876.136	22181
876.265	22363
876.393	22535
876.521	22398
876.65	22523
876.778	22409
876.906	22287
877.034	22352
877.162	22459
877.29	22363
877.418	22447
877.546	22508
877.674	22352
877.802	22295
877.93	22295
878.058	22390
878.185	22261
878.313	22329
878.441	22394
878.568	22169
878.696	22177
878.824	22306
878.951	22402
879.079	22379
879.206	22626
879.333	22546
879.461	22512
879.588	22409
879.715	22428
879.842	22717
879.97	22394
880.097	22158
880.224	22223
880.351	22265
880.478	22173
880.605	22150
880.732	22105
880.859	22459
880.986	22211
881.112	22257
881.239	22101
881.366	21808
881.493	21857
881.619	21785
881.746	21865
881.872	21812
881.999	21686
882.125	21679
882.252	21800
882.378	21751
882.505	21876
882.631	21515
882.757	21557
882.883	21557
883.01	21412
883.136	21530
883.262	21363
883.388	21279
883.514	21439
883.64	21580
883.766	21466
883.892	21192
884.018	21272
884.143	21382
884.269	21355
884.395	21222
884.52	21028
884.646	21116
884.772	21070
884.897	20963
885.023	21116
885.148	21199
885.274	21211
885.399	21169
885.524	21070
885.65	21188
885.775	21104
885.9	21074
886.025	21085
886.15	21154
886.275	21028
886.4	20838
886.525	20982
886.65	20979
886.775	21024
886.9	21241
887.025	21275
887.149	21009
887.274	20925
887.399	20849
887.523	20944
887.648	20891
887.773	20773
887.897	21020
888.021	20891
888.146	20750
888.27	21020
888.395	21024
888.519	20910
888.643	20849
888.767	20899
888.891	20682
889.015	20659
889.139	20636
889.263	20651
889.387	20746
889.511	20804
889.635	20743
889.759	20644
889.883	20617
890.006	20636
890.13	20819
890.254	20492
890.377	20598
890.501	20461
890.624	20412
890.748	20423
890.871	20358
890.995	20278
891.118	20142
891.241	20263
891.364	20244
891.488	20263
891.611	20221
891.734	20202
891.857	20393
891.98	20267
892.103	20362
892.226	20294
892.349	20259
892.471	20077
892.594	20119
892.717	20145
892.839	20107
892.962	20039
893.085	20298
893.207	20256
893.33	20039
893.452	20073
893.575	20142
893.697	20149
893.819	20248
893.941	20309
894.064	20256
894.186	20050
894.308	20054
894.43	20210
894.552	20107
894.674	20153
894.796	19978
894.918	20054
895.04	20111
895.161	20153
895.283	20202
895.405	20035
895.526	20199
895.648	20119
895.769	20176
895.891	20259
896.012	20275
896.134	20145
896.255	20054
896.376	20046
896.498	20103
896.619	20115
896.74	20065
896.861	20122
896.982	20389
897.103	20606
897.224	20305
897.345	20301
897.466	20172
897.587	20328
897.708	20488
897.828	20442
897.949	20309
898.07	20214
898.19	20210
898.311	20370
898.431	20267
898.552	20370
898.672	20328
898.792	20317
898.913	20362
899.033	20256
899.153	20149
899.273	20126
899.393	20092
899.513	20016
899.633	20187
899.753	20240
899.873	20031
899.993	20126
900.113	19978
900.232	19921
900.352	20027
900.472	19860
900.591	19708
900.711	19898
900.83	19917
900.95	19932
901.069	19894
901.189	19727
901.308	19559
901.427	19419
901.546	19415
901.665	19434
901.784	19434
901.904	19297
902.023	19129
902.141	19088
902.26	19000
902.379	19019
902.498	18993
902.617	18894
902.735	19053
902.854	18970
902.973	18837
903.091	18597
903.21	18658
903.328	18673
903.446	18483
903.565	18475
903.683	18365
903.801	18365
903.919	18441
904.038	18281
904.156	18216
904.274	18289
904.392	18201
904.51	18209
904.627	18136
904.745	18167
904.863	18243
904.981	18007
905.098	17824
905.216	17969
905.334	17920
905.451	17863
905.569	17794
905.686	17851
905.803	17859
905.921	17710
906.038	17878
906.155	17733
906.272	17573
906.389	17566
906.506	17436
906.623	17334
906.74	17265
906.857	17337
906.974	17318
907.091	17524
907.208	17497
907.324	17425
907.441	17299
907.557	17250
907.674	17052
907.79	17204
907.907	17079
908.023	17094
908.139	17197
908.256	17166
908.372	17117
908.488	16961
908.604	16900
908.72	16820
908.836	16805
908.952	16820
909.068	16889
909.184	16911
909.3	16782
909.415	16911
909.531	16889
909.647	16561
909.762	16634
909.878	16550
909.993	16645
910.108	16577
910.224	16512
910.339	16489
910.454	16394
910.57	16337
910.685	16185
910.8	16573
910.915	16512
911.03	16287
911.145	16067
911.259	16120
911.374	16192
911.489	16078
911.604	16006
911.718	15869
911.833	15884
911.947	15831
912.062	15770
912.176	15850
912.291	15953
912.405	15835
912.519	15998
912.633	16078
912.748	15895
912.862	15854
912.976	15667
913.09	15629
913.204	15686
913.318	15736
913.431	15694
913.545	15838
913.659	15789
913.772	15625
913.886	15507
914	15515
914.113	15473
914.226	15633
914.34	15568
914.453	15355
914.566	15538
914.68	15466
914.793	15435
914.906	15188
915.019	15154
915.132	15017
915.245	15180
915.358	15116
915.47	15085
915.583	15017
915.696	15116
915.809	15150
915.921	15203
916.034	15169
916.146	15020
916.259	15024
916.371	15097
916.483	15028
916.595	14937
916.708	14967
916.82	14933
916.932	14842
917.044	14899
917.156	14819
917.268	14724
917.38	14739
917.491	14769
917.603	14712
917.715	14826
917.826	14883
917.938	14739
918.049	14682
918.161	14762
918.272	14921
918.384	14883
918.495	14727
918.606	14621
918.717	14492
918.828	14590
918.939	14492
919.05	14473
919.161	14457
919.272	14317
919.383	14415
919.494	14552
919.604	14765
919.715	14560
919.826	14469
919.936	14484
920.047	14522
920.157	14484
920.267	14689
920.378	14461
920.488	14469
920.598	14701
920.708	14701
920.818	14636
920.928	14598
921.038	14727
921.148	14667
921.258	14473
921.368	14396
921.477	14191
921.587	14199
921.697	14123
921.806	14172
921.916	14039
922.025	13898
922.134	13906
922.244	13871
922.353	13852
922.462	13753
922.571	13674
922.68	13537
922.789	13552
922.898	13487
923.007	13373
923.116	13636
923.224	13415
923.333	13388
923.442	13407
923.55	13343
923.659	13247
923.767	13415
923.876	13381
923.984	13308
924.092	13270
924.201	13320
924.309	13335
924.417	13209
924.525	13228
924.633	13149
924.741	14111
924.849	12909
924.956	13091
925.064	12962
925.172	12848
925.279	12901
925.387	12840
925.494	12970
925.602	13034
925.709	12996
925.816	12859
925.924	12905
926.031	12977
926.138	12939
926.245	12954
926.352	12787
926.459	12901
926.566	12977
926.673	12745
926.779	12703
926.886	12631
926.993	12525
927.099	12475
927.206	12433
927.312	12456
927.419	12582
927.525	12471
927.631	12490
927.737	12376
927.843	12361
927.95	12327
928.056	12319
928.162	12323
928.267	12346
928.373	12913
928.479	12361
928.585	12125
928.69	12254
928.796	12330
928.901	12140
929.007	11939
929.112	12159
929.218	12182
929.323	12072
929.428	11920
929.533	12106
929.638	11999
929.743	12026
929.848	12083
929.953	11904
930.058	11927
930.163	11745
930.267	11760
930.372	11855
930.477	11653
930.581	11901
930.685	11718
930.79	11551
930.894	11554
930.998	11630
931.103	11710
931.207	11379
931.311	11334
931.415	11216
931.519	10999
931.623	10987
