Data from test_V78500241_1582.txt Node
Date: Fri Mar 25 15:20:52 CST 2022
User: usil
Spectrometer: V785-0024
Trigger mode: 0
Integration Time (sec): 4.000000E-1
Scans to average: 1
Nonlinearity correction enabled: false
Boxcar width: 0
Storing dark spectrum: false
XAxis mode: Wavelengths
Number of Pixels in Spectrum: 1024
>>>>>Begin Spectral Data<<<<<
801.071	27918
801.214	27736
801.356	27629
801.499	27530
801.641	27481
801.783	27488
801.926	27374
802.068	27329
802.211	27469
802.353	27268
802.496	27169
802.638	27070
802.78	26975
802.923	26990
803.065	26906
803.208	26929
803.35	27028
803.492	27096
803.635	27306
803.777	27150
803.919	27230
804.061	27534
804.204	27306
804.346	27180
804.488	27055
804.63	27226
804.773	27203
804.915	27138
805.057	27313
805.199	27211
805.341	27477
805.483	27348
805.626	27313
805.768	27214
805.91	27481
806.052	27534
806.194	27325
806.336	27401
806.478	27370
806.62	27291
806.762	27344
806.904	27583
807.046	27869
807.188	27797
807.33	27800
807.472	27854
807.614	27785
807.756	27705
807.898	27633
808.04	27587
808.182	27549
808.324	27759
808.465	27778
808.607	27945
808.749	27949
808.891	28143
809.033	28177
809.174	28036
809.316	28010
809.458	28158
809.6	27930
809.741	28166
809.883	28120
810.025	28147
810.166	28188
810.308	28291
810.45	28299
810.591	28249
810.733	27987
810.875	27994
811.016	27812
811.158	27926
811.299	27991
811.441	28196
811.582	28101
811.724	28090
811.865	28055
812.007	27956
812.148	28124
812.29	28097
812.431	28192
812.573	28401
812.714	28535
812.855	28611
812.997	28698
813.138	28782
813.279	28706
813.421	28504
813.562	28428
813.703	28356
813.845	28188
813.986	28090
814.127	27937
814.268	27709
814.41	27835
814.551	27679
814.692	27660
814.833	27603
814.974	27682
815.115	27713
815.256	27587
815.397	27618
815.539	27686
815.68	27496
815.821	27424
815.962	27557
816.103	27469
816.244	27367
816.385	27424
816.526	27370
816.666	27150
816.807	26960
816.948	26910
817.089	27104
817.23	27032
817.371	26956
817.512	26956
817.653	27058
817.793	27081
817.934	26948
818.075	27055
818.216	27043
818.356	26971
818.497	26960
818.638	26796
818.778	26632
818.919	26880
819.06	26910
819.2	26868
819.341	27051
819.481	27020
819.622	27264
819.762	27439
819.903	27389
820.043	27108
820.184	27275
820.324	27142
820.465	27203
820.605	27085
820.746	27066
820.886	26956
821.026	27055
821.167	27009
821.307	27154
821.447	26914
821.588	26990
821.728	26735
821.868	26659
822.008	26507
822.149	26579
822.289	26461
822.429	26248
822.569	26157
822.709	26240
822.849	25974
822.99	25947
823.13	25913
823.27	26016
823.41	25738
823.55	25742
823.69	25826
823.83	25860
823.97	25750
824.11	25559
824.25	25479
824.389	25616
824.529	25704
824.669	25544
824.809	25715
824.949	25712
825.089	25666
825.228	25799
825.368	25499
825.508	25350
825.648	25407
825.787	25453
825.927	25616
826.067	25449
826.206	25609
826.346	25510
826.485	25601
826.625	25495
826.765	25533
826.904	25578
827.044	25251
827.183	25335
827.323	25244
827.462	25285
827.601	25259
827.741	25160
827.88	25240
828.02	25034
828.159	25122
828.298	25171
828.437	25228
828.577	25103
828.716	25369
828.855	25129
828.994	24867
829.134	24970
829.273	25031
829.412	24802
829.551	24890
829.69	24913
829.829	25034
829.968	25027
830.107	24913
830.246	24909
830.385	24954
830.524	24878
830.663	24768
830.802	24601
830.941	24509
831.08	24483
831.219	24585
831.357	24547
831.496	24764
831.635	24635
831.774	24475
831.913	24395
832.051	24418
832.19	24224
832.329	24403
832.467	24216
832.606	24178
832.744	24117
832.883	24140
833.022	24060
833.16	24182
833.299	24311
833.437	24243
833.576	24178
833.714	24292
833.852	24243
833.991	24350
834.129	24399
834.267	24289
834.406	24292
834.544	24235
834.682	24334
834.821	24121
834.959	24460
835.097	24285
835.235	24384
835.373	24243
835.511	24201
835.65	24110
835.788	24205
835.926	23874
836.064	23824
836.202	24030
836.34	24064
836.478	24213
836.615	24057
836.753	24030
836.891	24117
837.029	24041
837.167	24030
837.305	24072
837.443	23897
837.58	24026
837.718	24003
837.856	23908
837.993	23859
838.131	23840
838.269	23722
838.406	23863
838.544	23707
838.681	23581
838.819	23493
838.956	23353
839.094	23531
839.231	23539
839.369	23524
839.506	23786
839.643	23703
839.781	23372
839.918	23273
840.055	23280
840.193	23356
840.33	23246
840.467	23330
840.604	23349
840.742	23600
840.879	23090
841.016	23136
841.153	23250
841.29	23417
841.427	23379
841.564	23311
841.701	23376
841.838	23231
841.975	23162
842.112	23231
842.249	23147
842.385	23022
842.522	23307
842.659	23197
842.796	22995
842.933	22968
843.069	22953
843.206	22995
843.343	23174
843.479	23166
843.616	23048
843.752	22824
843.889	22820
844.025	22862
844.162	22759
844.298	22972
844.435	22790
844.571	22713
844.708	22809
844.844	22961
844.98	22904
845.117	22892
845.253	22744
845.389	22752
845.525	22664
845.661	22710
845.798	22462
845.934	22596
846.07	22603
846.206	22557
846.342	22607
846.478	22519
846.614	22455
846.75	22215
846.886	22211
847.022	22360
847.158	22280
847.294	22272
847.429	22226
847.565	22192
847.701	22481
847.837	22124
847.972	21953
848.108	22074
848.244	22086
848.379	21983
848.515	21949
848.65	21861
848.786	21918
848.921	21915
849.057	22017
849.192	22051
849.328	21873
849.463	21888
849.598	21922
849.734	21774
849.869	21694
850.004	21553
850.14	21572
850.275	21713
850.41	21622
850.545	21523
850.68	21591
850.815	21705
850.95	21572
851.085	21778
851.22	21591
851.355	21644
851.49	21595
851.625	21614
851.76	21473
851.895	21462
852.03	21568
852.165	21797
852.299	21644
852.434	21759
852.569	21766
852.703	21488
852.838	21568
852.973	21682
853.107	21793
853.242	21690
853.376	21580
853.511	21298
853.645	21389
853.78	21488
853.914	21511
854.048	21412
854.183	21408
854.317	21492
854.451	21599
854.585	21443
854.72	21504
854.854	21500
854.988	21310
855.122	21435
855.256	21279
855.39	21519
855.524	21473
855.658	21500
855.792	21443
855.926	21473
856.06	21485
856.194	21496
856.327	21450
856.461	21313
856.595	21443
856.729	21367
856.862	21614
856.996	21492
857.13	21496
857.263	21610
857.397	21515
857.53	21412
857.664	21466
857.797	21629
857.931	21622
858.064	21568
858.197	21420
858.331	21496
858.464	21332
858.597	21325
858.731	21336
858.864	21443
858.997	21306
859.13	21485
859.263	21431
859.396	21382
859.529	21378
859.662	21439
859.795	21420
859.928	21363
860.061	21526
860.194	21709
860.327	21564
860.46	21549
860.592	21549
860.725	21660
860.858	21701
860.99	21382
861.123	21363
861.256	21370
861.388	21443
861.521	22169
861.653	21439
861.786	21260
861.918	21249
862.05	21287
862.183	21321
862.315	21344
862.447	21393
862.58	21344
862.712	21135
862.844	21165
862.976	21336
863.108	21180
863.24	21580
863.372	21001
863.504	21154
863.636	21131
863.768	21283
863.9	21268
864.032	21017
864.164	21142
864.296	21146
864.428	21321
864.559	21226
864.691	21329
864.823	21161
864.954	21085
865.086	21093
865.217	21066
865.349	21055
865.48	21051
865.612	21066
865.743	21161
865.875	21074
866.006	20918
866.137	21123
866.269	21074
866.4	20967
866.531	20956
866.662	20876
866.793	21017
866.924	21127
867.055	21066
867.186	20876
867.317	20941
867.448	20781
867.579	20952
867.71	20868
867.841	20990
867.972	21062
868.103	20990
868.233	20891
868.364	20986
868.495	21062
868.625	21226
868.756	21287
868.886	21138
869.017	21192
869.147	21310
869.278	21302
869.408	21214
869.539	21222
869.669	21237
869.799	21237
869.929	21405
870.06	21306
870.19	21542
870.32	21519
870.45	21553
870.58	21652
870.71	21717
870.84	21675
870.97	21549
871.1	21614
871.23	21797
871.36	21759
871.489	21682
871.619	21728
871.749	21857
871.879	21759
872.008	21968
872.138	21835
872.267	21747
872.397	21671
872.526	21603
872.656	21644
872.785	21679
872.915	21838
873.044	21915
873.173	21800
873.303	21907
873.432	21903
873.561	21880
873.69	21804
873.819	21701
873.948	21804
874.077	21892
874.206	21652
874.335	21762
874.464	22051
874.593	22040
874.722	21998
874.851	22169
874.979	22040
875.108	22013
875.237	22025
875.365	22040
875.494	22112
875.623	22261
875.751	22086
875.88	22162
876.008	22105
876.136	22272
876.265	22413
876.393	22519
876.521	22615
876.65	22432
876.778	22356
876.906	22470
877.034	22451
877.162	22432
877.29	22478
877.418	22394
877.546	22371
877.674	22325
877.802	22504
877.93	22474
878.058	22424
878.185	22337
878.313	22386
878.441	22398
878.568	22265
878.696	22242
878.824	22436
878.951	22554
879.079	22569
879.206	22736
879.333	22634
879.461	22455
879.588	22546
879.715	22596
879.842	22656
879.97	22398
880.097	22234
880.224	22105
880.351	22284
880.478	22268
880.605	22287
880.732	22299
880.859	22432
880.986	22261
881.112	22192
881.239	22021
881.366	21983
881.493	21941
881.619	21827
881.746	21827
881.872	21736
881.999	21781
882.125	21865
882.252	21918
882.378	21816
882.505	21755
882.631	21679
882.757	21424
882.883	21625
883.01	21591
883.136	21485
883.262	21370
883.388	21393
883.514	21485
883.64	21572
883.766	21420
883.892	21294
884.018	21287
884.143	21428
884.269	21599
884.395	21214
884.52	21032
884.646	21169
884.772	21066
884.897	20963
885.023	21081
885.148	21302
885.274	21195
885.399	21165
885.524	21116
885.65	21093
885.775	21218
885.9	21066
886.025	21207
886.15	21131
886.275	21051
886.4	20918
886.525	21081
886.65	21127
886.775	20990
886.9	21230
887.025	21287
887.149	21176
887.274	20925
887.399	20929
887.523	20979
887.648	20819
887.773	20826
887.897	21070
888.021	20944
888.146	20925
888.27	20956
888.395	21051
888.519	21036
888.643	20956
888.767	20979
888.891	20773
889.015	20686
889.139	20777
889.263	20617
889.387	20697
889.511	20861
889.635	20796
889.759	20697
889.883	20674
890.006	20724
890.13	20701
890.254	20488
890.377	20632
890.501	20476
890.624	20358
890.748	20503
890.871	20370
890.995	20301
891.118	20237
891.241	20400
891.364	20404
891.488	20434
891.611	20320
891.734	20343
891.857	20404
891.98	20278
892.103	20339
892.226	20256
892.349	20096
892.471	20077
892.594	20176
892.717	20290
892.839	20088
892.962	20142
893.085	20286
893.207	20263
893.33	20020
893.452	20073
893.575	20183
893.697	20142
893.819	20309
893.941	20309
894.064	20400
894.186	20062
894.308	20145
894.43	20199
894.552	20370
894.674	20256
894.796	20130
894.918	20153
895.04	20119
895.161	20271
895.283	20126
895.405	20069
895.526	20138
895.648	20218
895.769	20240
895.891	20149
896.012	20206
896.134	20176
896.255	20107
896.376	20180
896.498	20122
896.619	20278
896.74	20111
896.861	20206
896.982	20469
897.103	20648
897.224	20400
897.345	20469
897.466	20290
897.587	20385
897.708	20549
897.828	20393
897.949	20301
898.07	20278
898.19	20336
898.311	20454
898.431	20290
898.552	20355
898.672	20438
898.792	20488
898.913	20267
899.033	20278
899.153	20225
899.273	20130
899.393	20195
899.513	20153
899.633	20142
899.753	20199
899.873	20073
899.993	20103
900.113	20119
900.232	19993
900.352	19978
900.472	19963
900.591	19955
900.711	19993
900.83	19807
900.95	19902
901.069	20039
901.189	19791
901.308	19578
901.427	19529
901.546	19480
901.665	19468
901.784	19575
901.904	19236
902.023	19297
902.141	19053
902.26	19027
902.379	19126
902.498	18993
902.617	18905
902.735	19038
902.854	18996
902.973	19015
903.091	18631
903.21	18749
903.328	18665
903.446	18578
903.565	18563
903.683	18540
903.801	18494
903.919	18464
904.038	18403
904.156	18247
904.274	18414
904.392	18254
904.51	18182
904.627	18235
904.745	18281
904.863	18171
904.981	18068
905.098	17851
905.216	17874
905.334	17965
905.451	17946
905.569	17889
905.686	17889
905.803	17958
905.921	17741
906.038	17824
906.155	17695
906.272	17634
906.389	17581
906.506	17398
906.623	17452
906.74	17398
906.857	17379
906.974	17444
907.091	17543
907.208	17596
907.324	17471
907.441	17250
907.557	17147
907.674	17227
907.79	17105
907.907	17117
908.023	17181
908.139	17170
908.256	17170
908.372	17086
908.488	16904
908.604	16854
908.72	16793
908.836	16877
908.952	16771
909.068	16862
909.184	16904
909.3	16858
909.415	16908
909.531	16949
909.647	16580
909.762	16641
909.878	16588
909.993	16531
910.108	16634
910.224	16497
910.339	16660
910.454	16432
910.57	16413
910.685	16261
910.8	16710
910.915	16558
911.03	16382
911.145	16287
911.259	16116
911.374	16082
911.489	16002
911.604	16082
911.718	15876
911.833	15949
911.947	15854
912.062	15656
912.176	15838
912.291	15911
912.405	15934
912.519	16036
912.633	16162
912.748	15945
912.862	15831
912.976	15865
913.09	15599
913.204	15618
913.318	15705
913.431	15766
913.545	15713
913.659	15766
913.772	15557
913.886	15504
914	15542
914.113	15603
914.226	15686
914.34	15675
914.453	15416
914.566	15564
914.68	15416
914.793	15344
914.906	15264
915.019	15116
915.132	15161
915.245	15062
915.358	15051
915.47	15119
915.583	15150
915.696	15093
915.809	15291
915.921	15264
916.034	15119
916.146	15108
916.259	15017
916.371	15112
916.483	15062
916.595	15074
916.708	14910
916.82	14941
916.932	14998
917.044	14906
917.156	14910
917.268	14777
917.38	14689
917.491	14727
917.603	14785
917.715	14899
917.826	14883
917.938	14762
918.049	14697
918.161	14735
918.272	14895
918.384	14830
918.495	14762
918.606	14499
918.717	14575
918.828	14560
918.939	14613
919.05	14412
919.161	14541
919.272	14396
919.383	14415
919.494	14602
919.604	14773
919.715	14530
919.826	14362
919.936	14408
920.047	14545
920.157	14556
920.267	14743
920.378	14495
920.488	14522
920.598	14708
920.708	14781
920.818	14716
920.928	14693
921.038	14838
921.148	14857
921.258	14568
921.368	14362
921.477	14180
921.587	14199
921.697	14134
921.806	14263
921.916	14092
922.025	13883
922.134	13875
922.244	13860
922.353	13898
922.462	13731
922.571	13689
922.68	13567
922.789	13559
922.898	13643
923.007	13438
923.116	13601
923.224	13453
923.333	13487
923.442	13422
923.55	13312
923.659	13362
923.767	13426
923.876	13301
923.984	13350
924.092	13259
924.201	13312
924.309	13240
924.417	13308
924.525	13179
924.633	13156
924.741	14020
924.849	13023
924.956	13175
925.064	13023
925.172	12905
925.279	12909
925.387	13012
925.494	12947
925.602	13034
925.709	12977
925.816	12757
925.924	12916
926.031	12977
926.138	12848
926.245	12924
926.352	12821
926.459	12943
926.566	12993
926.673	12806
926.779	12749
926.886	12681
926.993	12563
927.099	12650
927.206	12471
927.312	12467
927.419	12585
927.525	12540
927.631	12498
927.737	12384
927.843	12346
927.95	12296
928.056	12353
928.162	12292
928.267	12407
928.373	12993
928.479	12410
928.585	12133
928.69	12323
928.796	12395
928.901	12175
929.007	12117
929.112	12239
929.218	12155
929.323	12106
929.428	12079
929.533	12239
929.638	11988
929.743	12022
929.848	12148
929.953	12003
930.058	11916
930.163	11760
930.267	11745
930.372	11878
930.477	11707
930.581	11836
930.685	11733
930.79	11638
930.894	11630
930.998	11547
931.103	11783
931.207	11482
931.311	11383
931.415	11250
931.519	11079
931.623	10972
