Data from test_V78500241_2840.txt Node
Date: Fri Mar 25 15:29:38 CST 2022
User: usil
Spectrometer: V785-0024
Trigger mode: 0
Integration Time (sec): 4.000000E-1
Scans to average: 1
Nonlinearity correction enabled: false
Boxcar width: 0
Storing dark spectrum: false
XAxis mode: Wavelengths
Number of Pixels in Spectrum: 1024
>>>>>Begin Spectral Data<<<<<
801.071	27275
801.214	27070
801.356	26963
801.499	26944
801.641	26830
801.783	26750
801.926	26720
802.068	26826
802.211	26629
802.353	26621
802.496	26648
802.638	26583
802.78	26431
802.923	26408
803.065	26298
803.208	26267
803.35	26434
803.492	26518
803.635	26575
803.777	26511
803.919	26716
804.061	26933
804.204	26579
804.346	26590
804.488	26492
804.63	26636
804.773	26465
804.915	26587
805.057	26788
805.199	26568
805.341	26640
805.483	26609
805.626	26830
805.768	26568
805.91	26670
806.052	26682
806.194	26659
806.336	26716
806.478	26773
806.62	26819
806.762	26762
806.904	26864
807.046	27272
807.188	27096
807.33	27100
807.472	27032
807.614	27024
807.756	27013
807.898	26906
808.04	26804
808.182	26925
808.324	27001
808.465	27100
808.607	27165
808.749	27412
808.891	27435
809.033	27466
809.174	27408
809.316	27226
809.458	27469
809.6	27310
809.741	27340
809.883	27454
810.025	27720
810.166	27583
810.308	27595
810.45	27576
810.591	27431
810.733	27351
810.875	27332
811.016	27313
811.158	27131
811.299	27359
811.441	27561
811.582	27549
811.724	27351
811.865	27367
812.007	27363
812.148	27294
812.29	27393
812.431	27329
812.573	27595
812.714	27842
812.855	27739
812.997	27945
813.138	28128
813.279	27956
813.421	27797
813.562	27865
813.703	27595
813.845	27553
813.986	27051
814.127	27001
814.268	27005
814.41	26891
814.551	27001
814.692	27074
814.833	26861
814.974	26971
815.115	26971
815.256	26861
815.397	26876
815.539	26986
815.68	26739
815.821	26609
815.962	26758
816.103	26739
816.244	26716
816.385	26602
816.526	26457
816.666	26294
816.807	26301
816.948	26305
817.089	26286
817.23	26252
817.371	26275
817.512	26362
817.653	26309
817.793	26164
817.934	26263
818.075	26107
818.216	26176
818.356	26073
818.497	26191
818.638	25940
818.778	25997
818.919	25959
819.06	26130
819.2	26016
819.341	26210
819.481	26119
819.622	26446
819.762	26469
819.903	26457
820.043	26301
820.184	26328
820.324	26305
820.465	26404
820.605	26351
820.746	26339
820.886	26176
821.026	26294
821.167	26240
821.307	26351
821.447	26206
821.588	26035
821.728	25974
821.868	25841
822.008	25708
822.149	25537
822.289	25776
822.429	25278
822.569	25422
822.709	25194
822.849	25320
822.99	25141
823.13	25141
823.27	25072
823.41	24886
823.55	25088
823.69	24939
823.83	24856
823.97	25080
824.11	24741
824.25	24791
824.389	24817
824.529	24951
824.669	24738
824.809	24871
824.949	24840
825.089	24722
825.228	24722
825.368	24608
825.508	24612
825.648	24696
825.787	24623
825.927	24757
826.067	24692
826.206	24696
826.346	24703
826.485	24665
826.625	24608
826.765	24760
826.904	24764
827.044	24483
827.183	24464
827.323	24292
827.462	24418
827.601	24357
827.741	24311
827.88	24544
828.02	24285
828.159	24323
828.298	24266
828.437	24441
828.577	24289
828.716	24490
828.855	24148
828.994	24068
829.134	24098
829.273	24152
829.412	23973
829.551	23901
829.69	24003
829.829	24015
829.968	24216
830.107	24098
830.246	23958
830.385	23920
830.524	23882
830.663	23863
830.802	23828
830.941	23752
831.08	23657
831.219	23748
831.357	23874
831.496	23946
831.635	23726
831.774	23547
831.913	23630
832.051	23383
832.19	23501
832.329	23455
832.467	23474
832.606	23242
832.744	23292
832.883	23322
833.022	23292
833.16	23379
833.299	23383
833.437	23258
833.576	23463
833.714	23459
833.852	23379
833.991	23387
834.129	23554
834.267	23467
834.406	23490
834.544	23334
834.682	23528
834.821	23421
834.959	23577
835.097	23330
835.235	23410
835.373	23372
835.511	23303
835.65	23193
835.788	23440
835.926	23124
836.064	23086
836.202	23162
836.34	23318
836.478	23299
836.615	23227
836.753	23220
836.891	23136
837.029	23155
837.167	23143
837.305	23174
837.443	23132
837.58	22995
837.718	23121
837.856	23064
837.993	23048
838.131	23098
838.269	22862
838.406	23098
838.544	22911
838.681	22774
838.819	22679
838.956	22607
839.094	22580
839.231	22577
839.369	22721
839.506	23022
839.643	22782
839.781	22516
839.918	22546
840.055	22584
840.193	22611
840.33	22527
840.467	22398
840.604	22554
840.742	22862
840.879	22394
841.016	22546
841.153	22390
841.29	22535
841.427	22599
841.564	22519
841.701	22348
841.838	22379
841.975	22436
842.112	22337
842.249	22337
842.385	22367
842.522	22516
842.659	22299
842.796	22219
842.933	22306
843.069	22116
843.206	22272
843.343	22261
843.479	22211
843.616	22322
843.752	22109
843.889	22051
844.025	22284
844.162	21983
844.298	22318
844.435	22017
844.571	21975
844.708	22082
844.844	22150
844.98	22051
845.117	22112
845.253	21964
845.389	21846
845.525	21838
845.661	21842
845.798	21850
845.934	21800
846.07	21789
846.206	21732
846.342	21797
846.478	21812
846.614	21576
846.75	21473
846.886	21553
847.022	21545
847.158	21545
847.294	21496
847.429	21663
847.565	21477
847.701	21728
847.837	21241
847.972	21188
848.108	21378
848.244	21294
848.379	21055
848.515	21146
848.65	21081
848.786	21032
848.921	21070
849.057	21112
849.192	21272
849.328	21093
849.463	21096
849.598	21032
849.734	21017
849.869	20986
850.004	20845
850.14	20826
850.275	20842
850.41	20876
850.545	20796
850.68	20765
850.815	20963
850.95	20686
851.085	20975
851.22	21104
851.355	20914
851.49	20762
851.625	20895
851.76	20826
851.895	20845
852.03	20754
852.165	20891
852.299	20887
852.434	20921
852.569	20815
852.703	20796
852.838	20849
852.973	20982
853.107	20963
853.242	20834
853.376	20777
853.511	20590
853.645	20526
853.78	20842
853.914	20693
854.048	20720
854.183	20727
854.317	20689
854.451	20815
854.585	20651
854.72	20571
854.854	20693
854.988	20636
855.122	20689
855.256	20636
855.39	20693
855.524	20777
855.658	20811
855.792	20602
855.926	20834
856.06	20773
856.194	20792
856.327	20678
856.461	20746
856.595	20617
856.729	20678
856.862	20815
856.996	20670
857.13	20792
857.263	20735
857.397	20838
857.53	20602
857.664	20720
857.797	20750
857.931	20689
858.064	20651
858.197	20731
858.331	20655
858.464	20587
858.597	20457
858.731	20583
858.864	20674
858.997	20465
859.13	20667
859.263	20724
859.396	20609
859.529	20629
859.662	20678
859.795	20678
859.928	20716
860.061	20819
860.194	20788
860.327	20705
860.46	20655
860.592	20781
860.725	20868
860.858	20777
860.99	20731
861.123	20670
861.256	20625
861.388	20701
861.521	21294
861.653	20545
861.786	20457
861.918	20461
862.05	20526
862.183	20526
862.315	20552
862.447	20629
862.58	20632
862.712	20499
862.844	20461
862.976	20480
863.108	20419
863.24	20899
863.372	20415
863.504	20461
863.636	20358
863.768	20351
863.9	20431
864.032	20282
864.164	20336
864.296	20434
864.428	20568
864.559	20419
864.691	20514
864.823	20438
864.954	20309
865.086	20305
865.217	20381
865.349	20199
865.48	20218
865.612	20358
865.743	20393
865.875	20248
866.006	20271
866.137	20324
866.269	20317
866.4	20164
866.531	20248
866.662	20229
866.793	20370
866.924	20267
867.055	20343
867.186	20191
867.317	20183
867.448	20050
867.579	20252
867.71	20168
867.841	20240
867.972	20233
868.103	20221
868.233	20244
868.364	20206
868.495	20294
868.625	20385
868.756	20419
868.886	20309
869.017	20328
869.147	20579
869.278	20560
869.408	20594
869.539	20385
869.669	20636
869.799	20511
869.929	20754
870.06	20659
870.19	20746
870.32	20655
870.45	20857
870.58	20765
870.71	20933
870.84	21013
870.97	20849
871.1	20864
871.23	21047
871.36	21123
871.489	21024
871.619	21096
871.749	20994
871.879	21157
872.008	21081
872.138	20975
872.267	21013
872.397	21017
872.526	20895
872.656	20910
872.785	20887
872.915	21001
873.044	21138
873.173	21150
873.303	21123
873.432	21184
873.561	21100
873.69	21043
873.819	21077
873.948	21192
874.077	21138
874.206	21085
874.335	21112
874.464	21279
874.593	21408
874.722	21279
874.851	21443
874.979	21393
875.108	21515
875.237	21401
875.365	21203
875.494	21329
875.623	21351
875.751	21439
875.88	21496
876.008	21469
876.136	21549
876.265	21713
876.393	21857
876.521	21937
876.65	21892
876.778	21739
876.906	21774
877.034	21644
877.162	21698
877.29	21709
877.418	21667
877.546	21724
877.674	21675
877.802	21747
877.93	21846
878.058	21595
878.185	21485
878.313	21690
878.441	21759
878.568	21622
878.696	21587
878.824	21724
878.951	21857
879.079	21781
879.206	21953
879.333	21800
879.461	21850
879.588	21937
879.715	21842
879.842	22055
879.97	21720
880.097	21564
880.224	21545
880.351	21595
880.478	21504
880.605	21469
880.732	21572
880.859	21827
880.986	21576
881.112	21542
881.239	21393
881.366	21302
881.493	21302
881.619	21058
881.746	21203
881.872	20990
881.999	21154
882.125	20975
882.252	21123
882.378	21081
882.505	21351
882.631	20948
882.757	20921
882.883	20731
883.01	20800
883.136	20686
883.262	20682
883.388	20705
883.514	20792
883.64	20823
883.766	20727
883.892	20674
884.018	20587
884.143	20853
884.269	20845
884.395	20606
884.52	20434
884.646	20476
884.772	20396
884.897	20351
885.023	20461
885.148	20495
885.274	20560
885.399	20568
885.524	20473
885.65	20545
885.775	20549
885.9	20461
886.025	20488
886.15	20469
886.275	20305
886.4	20347
886.525	20484
886.65	20427
886.775	20336
886.9	20533
887.025	20712
887.149	20480
887.274	20286
887.399	20214
887.523	20191
887.648	20172
887.773	20138
887.897	20275
888.021	20271
888.146	20191
888.27	20328
888.395	20355
888.519	20206
888.643	20355
888.767	20412
888.891	20065
889.015	20100
889.139	20073
889.263	20065
889.387	20138
889.511	20176
889.635	20191
889.759	20031
889.883	19989
890.006	20039
890.13	20138
890.254	19860
890.377	19997
890.501	19769
890.624	19731
890.748	19883
890.871	19696
890.995	19594
891.118	19616
891.241	19731
891.364	19628
891.488	19723
891.611	19628
891.734	19674
891.857	19651
891.98	19590
892.103	19685
892.226	19685
892.349	19658
892.471	19362
892.594	19537
892.717	19578
892.839	19518
892.962	19502
893.085	19643
893.207	19639
893.33	19457
893.452	19411
893.575	19499
893.697	19582
893.819	19746
893.941	19761
894.064	19575
894.186	19521
894.308	19472
894.43	19491
894.552	19689
894.674	19712
894.796	19506
894.918	19601
895.04	19438
895.161	19597
895.283	19487
895.405	19457
895.526	19559
895.648	19533
895.769	19537
895.891	19533
896.012	19632
896.134	19643
896.255	19609
896.376	19559
896.498	19594
896.619	19556
896.74	19441
896.861	19609
896.982	19887
897.103	19986
897.224	19868
897.345	19761
897.466	19746
897.587	19746
897.708	19890
897.828	19849
897.949	19883
898.07	19643
898.19	19776
898.311	19849
898.431	19723
898.552	19788
898.672	19890
898.792	19894
898.913	19780
899.033	19655
899.153	19628
899.273	19632
899.393	19499
899.513	19674
899.633	19419
899.753	19594
899.873	19575
899.993	19453
900.113	19518
900.232	19510
900.352	19559
900.472	19362
900.591	19266
900.711	19464
900.83	19217
900.95	19396
901.069	19400
901.189	19187
901.308	18977
901.427	18867
901.546	18886
901.665	18973
901.784	19019
901.904	18844
902.023	18738
902.141	18399
902.26	18597
902.379	18559
902.498	18471
902.617	18372
902.735	18479
902.854	18334
902.973	18319
903.091	18091
903.21	18095
903.328	18140
903.446	17916
903.565	17920
903.683	17832
903.801	17790
903.919	17931
904.038	17935
904.156	17630
904.274	17802
904.392	17657
904.51	17691
904.627	17703
904.745	17748
904.863	17722
904.981	17421
905.098	17391
905.216	17337
905.334	17387
905.451	17406
905.569	17379
905.686	17520
905.803	17410
905.921	17159
906.038	17136
906.155	17155
906.272	17022
906.389	17132
906.506	16900
906.623	16892
906.74	16782
906.857	16786
906.974	16801
907.091	16953
907.208	17136
907.324	16915
907.441	16862
907.557	16710
907.674	16641
907.79	16592
907.907	16683
908.023	16599
908.139	16634
908.256	16630
908.372	16481
908.488	16512
908.604	16405
908.72	16261
908.836	16421
908.952	16272
909.068	16470
909.184	16478
909.3	16329
909.415	16394
909.531	16360
909.647	16143
909.762	16093
909.878	16059
909.993	16074
910.108	16109
910.224	15991
910.339	16097
910.454	16063
910.57	15895
910.685	15888
910.8	16002
910.915	15991
911.03	15850
911.145	15747
911.259	15633
911.374	15739
911.489	15656
911.604	15576
911.718	15374
911.833	15355
911.947	15469
912.062	15351
912.176	15477
912.291	15500
912.405	15492
912.519	15701
912.633	15500
912.748	15370
912.862	15420
912.976	15325
913.09	15074
913.204	15138
913.318	15180
913.431	15363
913.545	15252
913.659	15325
913.772	15207
913.886	15066
914	15058
914.113	15135
914.226	15135
914.34	15135
914.453	14990
914.566	15093
914.68	14975
914.793	14849
914.906	14750
915.019	14636
915.132	14617
915.245	14701
915.358	14686
915.47	14697
915.583	14610
915.696	14670
915.809	14720
915.921	14781
916.034	14552
916.146	14552
916.259	14541
916.371	14575
916.483	14621
916.595	14442
916.708	14492
916.82	14499
916.932	14526
917.044	14431
917.156	14518
917.268	14252
917.38	14248
917.491	14240
917.603	14252
917.715	14415
917.826	14446
917.938	14240
918.049	14142
918.161	14343
918.272	14442
918.384	14328
918.495	14313
918.606	14100
918.717	14069
918.828	14138
918.939	14123
919.05	14008
919.161	14005
919.272	13913
919.383	13959
919.494	14096
919.604	14244
919.715	14119
919.826	13947
919.936	14027
920.047	14115
920.157	14027
920.267	14355
920.378	14062
920.488	14062
920.598	14248
920.708	14377
920.818	14157
920.928	14206
921.038	14309
921.148	14396
921.258	14005
921.368	13909
921.477	13757
921.587	13780
921.697	13681
921.806	13799
921.916	13658
922.025	13468
922.134	13533
922.244	13460
922.353	13434
922.462	13384
922.571	13251
922.68	13091
922.789	13023
922.898	13183
923.007	13031
923.116	13145
923.224	13000
923.333	13107
923.442	12962
923.55	12951
923.659	12958
923.767	12909
923.876	12909
923.984	12897
924.092	12844
924.201	12867
924.309	12920
924.417	12734
924.525	12734
924.633	12745
924.741	13719
924.849	12623
924.956	12669
925.064	12589
925.172	12555
925.279	12544
925.387	12604
925.494	12631
925.602	12681
925.709	12646
925.816	12441
925.924	12441
926.031	12547
926.138	12464
926.245	12460
926.352	12467
926.459	12490
926.566	12642
926.673	12418
926.779	12315
926.886	12372
926.993	12194
927.099	12083
927.206	12106
927.312	12114
927.419	12167
927.525	12182
927.631	12144
927.737	12102
927.843	12007
927.95	11916
928.056	11927
928.162	11958
928.267	11984
928.373	12555
928.479	12102
928.585	11832
928.69	11893
928.796	12011
928.901	11843
929.007	11779
929.112	11859
929.218	11783
929.323	11745
929.428	11790
929.533	11840
929.638	11653
929.743	11710
929.848	11642
929.953	11688
930.058	11596
930.163	11421
930.267	11478
930.372	11566
930.477	11345
930.581	11627
930.685	11440
930.79	11322
930.894	11326
930.998	11261
931.103	11436
931.207	11025
931.311	10938
931.415	10911
931.519	10801
931.623	10744
