Data from test_V78500241_3296.txt Node
Date: Fri Mar 25 15:32:48 CST 2022
User: usil
Spectrometer: V785-0024
Trigger mode: 0
Integration Time (sec): 4.000000E-1
Scans to average: 1
Nonlinearity correction enabled: false
Boxcar width: 0
Storing dark spectrum: false
XAxis mode: Wavelengths
Number of Pixels in Spectrum: 1024
>>>>>Begin Spectral Data<<<<<
801.071	27351
801.214	27268
801.356	27135
801.499	27100
801.641	26842
801.783	26910
801.926	26967
802.068	26883
802.211	26788
802.353	26849
802.496	26708
802.638	26545
802.78	26613
802.923	26552
803.065	26294
803.208	26298
803.35	26564
803.492	26819
803.635	26571
803.777	26495
803.919	26594
804.061	27020
804.204	26705
804.346	26640
804.488	26613
804.63	26609
804.773	26541
804.915	26708
805.057	26689
805.199	26670
805.341	26777
805.483	26838
805.626	26670
805.768	26549
805.91	26838
806.052	26826
806.194	26750
806.336	26876
806.478	26830
806.62	26754
806.762	26853
806.904	26994
807.046	27348
807.188	27100
807.33	27100
807.472	27363
807.614	27218
807.756	27070
807.898	27058
808.04	27070
808.182	26986
808.324	27096
808.465	27066
808.607	27180
808.749	27447
808.891	27485
809.033	27511
809.174	27424
809.316	27420
809.458	27325
809.6	27325
809.741	27370
809.883	27469
810.025	27705
810.166	27724
810.308	27622
810.45	27580
810.591	27637
810.733	27477
810.875	27351
811.016	27260
811.158	27348
811.299	27405
811.441	27523
811.582	27519
811.724	27420
811.865	27291
812.007	27233
812.148	27363
812.29	27466
812.431	27515
812.573	27641
812.714	27762
812.855	27888
812.997	28055
813.138	28010
813.279	28112
813.421	28032
813.562	27899
813.703	27724
813.845	27629
813.986	27363
814.127	27192
814.268	27222
814.41	27020
814.551	26937
814.692	27226
814.833	26948
814.974	26960
815.115	26956
815.256	26883
815.397	26960
815.539	27058
815.68	26765
815.821	26883
815.962	26845
816.103	26830
816.244	26720
816.385	26625
816.526	26503
816.666	26427
816.807	26187
816.948	26503
817.089	26404
817.23	26450
817.371	26351
817.512	26351
817.653	26362
817.793	26244
817.934	26267
818.075	26366
818.216	26423
818.356	26183
818.497	26328
818.638	26046
818.778	26065
818.919	26081
819.06	26187
819.2	26339
819.341	26328
819.481	26267
819.622	26522
819.762	26655
819.903	26594
820.043	26503
820.184	26347
820.324	26328
820.465	26450
820.605	26492
820.746	26358
820.886	26225
821.026	26408
821.167	26298
821.307	26404
821.447	26248
821.588	26225
821.728	26012
821.868	25917
822.008	25822
822.149	25830
822.289	25734
822.429	25483
822.569	25434
822.709	25396
822.849	25308
822.99	25225
823.13	25152
823.27	25160
823.41	25057
823.55	25023
823.69	25156
823.83	25209
823.97	25179
824.11	24890
824.25	24852
824.389	24844
824.529	24901
824.669	24935
824.809	24901
824.949	24970
825.089	24863
825.228	24909
825.368	24760
825.508	24757
825.648	24817
825.787	24753
825.927	24734
826.067	24642
826.206	24734
826.346	24745
826.485	24802
826.625	24719
826.765	24894
826.904	24848
827.044	24589
827.183	24547
827.323	24445
827.462	24696
827.601	24597
827.741	24422
827.88	24456
828.02	24403
828.159	24464
828.298	24380
828.437	24631
828.577	24498
828.716	24646
828.855	24357
828.994	24232
829.134	24178
829.273	24251
829.412	24216
829.551	24041
829.69	24247
829.829	24194
829.968	24277
830.107	24281
830.246	24251
830.385	24243
830.524	24072
830.663	24072
830.802	24003
830.941	23741
831.08	23813
831.219	23874
831.357	23992
831.496	24148
831.635	23790
831.774	23813
831.913	23737
832.051	23547
832.19	23604
832.329	23585
832.467	23558
832.606	23528
832.744	23334
832.883	23493
833.022	23554
833.16	23570
833.299	23600
833.437	23444
833.576	23676
833.714	23573
833.852	23619
833.991	23646
834.129	23566
834.267	23821
834.406	23619
834.544	23714
834.682	23646
834.821	23592
834.959	23661
835.097	23497
835.235	23691
835.373	23562
835.511	23570
835.65	23516
835.788	23478
835.926	23372
836.064	23242
836.202	23261
836.34	23387
836.478	23490
836.615	23448
836.753	23296
836.891	23543
837.029	23493
837.167	23337
837.305	23299
837.443	23322
837.58	23174
837.718	23372
837.856	23326
837.993	23193
838.131	23235
838.269	23166
838.406	23277
838.544	23037
838.681	22889
838.819	22923
838.956	22839
839.094	22725
839.231	22679
839.369	22892
839.506	23223
839.643	23037
839.781	22790
839.918	22717
840.055	22759
840.193	22866
840.33	22630
840.467	22702
840.604	22611
840.742	22968
840.879	22630
841.016	22683
841.153	22531
841.29	22672
841.427	22725
841.564	22641
841.701	22656
841.838	22782
841.975	22618
842.112	22656
842.249	22626
842.385	22538
842.522	22706
842.659	22459
842.796	22417
842.933	22440
843.069	22455
843.206	22276
843.343	22459
843.479	22402
843.616	22470
843.752	22272
843.889	22188
844.025	22367
844.162	22177
844.298	22272
844.435	22223
844.571	22314
844.708	22303
844.844	22398
844.98	22402
845.117	22192
845.253	22059
845.389	22040
845.525	22082
845.661	22036
845.798	21876
845.934	21987
846.07	21869
846.206	21998
846.342	22105
846.478	21960
846.614	21766
846.75	21732
846.886	21713
847.022	21762
847.158	21800
847.294	21701
847.429	21751
847.565	21641
847.701	21747
847.837	21481
847.972	21389
848.108	21583
848.244	21431
848.379	21321
848.515	21363
848.65	21256
848.786	21256
848.921	21264
849.057	21469
849.192	21397
849.328	21367
849.463	21428
849.598	21313
849.734	21207
849.869	21161
850.004	21047
850.14	21074
850.275	20941
850.41	21039
850.545	21036
850.68	20948
850.815	21005
850.95	21001
851.085	21252
851.22	21119
851.355	21032
851.49	21119
851.625	21055
851.76	21096
851.895	21001
852.03	20998
852.165	21055
852.299	21119
852.434	21138
852.569	21116
852.703	21051
852.838	21074
852.973	21188
853.107	21096
853.242	21009
853.376	20948
853.511	20853
853.645	20937
853.78	21024
853.914	20918
854.048	20883
854.183	20823
854.317	20979
854.451	21055
854.585	20933
854.72	20891
854.854	20933
854.988	20739
855.122	20838
855.256	20769
855.39	20864
855.524	20944
855.658	20872
855.792	20823
855.926	20800
856.06	20902
856.194	20971
856.327	20834
856.461	20872
856.595	20815
856.729	20830
856.862	20960
856.996	20952
857.13	20929
857.263	20975
857.397	21055
857.53	20826
857.664	21020
857.797	20963
857.931	20929
858.064	20834
858.197	20883
858.331	20906
858.464	20701
858.597	20800
858.731	20708
858.864	20838
858.997	20914
859.13	20826
859.263	20849
859.396	21119
859.529	20838
859.662	20857
859.795	20834
859.928	20914
860.061	20883
860.194	21116
860.327	20876
860.46	20933
860.592	21009
860.725	20982
860.858	21005
860.99	20826
861.123	20788
861.256	20861
861.388	20914
861.521	21553
861.653	20785
861.786	20689
861.918	20811
862.05	20750
862.183	20834
862.315	20708
862.447	20914
862.58	20842
862.712	20457
862.844	20465
862.976	20724
863.108	20708
863.24	21116
863.372	20659
863.504	20568
863.636	20522
863.768	20564
863.9	20629
864.032	20545
864.164	20583
864.296	20682
864.428	20609
864.559	20613
864.691	20602
864.823	20518
864.954	20762
865.086	20514
865.217	20571
865.349	20431
865.48	20560
865.612	20503
865.743	20674
865.875	20431
866.006	20301
866.137	20636
866.269	20396
866.4	20514
866.531	20442
866.662	20423
866.793	20415
866.924	20423
867.055	20465
867.186	20484
867.317	20404
867.448	20366
867.579	20415
867.71	20427
867.841	20355
867.972	20503
868.103	20415
868.233	20533
868.364	20446
868.495	20549
868.625	20632
868.756	20746
868.886	20545
869.017	20727
869.147	20815
869.278	20834
869.408	20678
869.539	20739
869.669	20777
869.799	20629
869.929	20853
870.06	20864
870.19	21055
870.32	20883
870.45	21070
870.58	21146
870.71	21131
870.84	21222
870.97	20994
871.1	20979
871.23	21233
871.36	21294
871.489	21180
871.619	21222
871.749	21302
871.879	21241
872.008	21412
872.138	21256
872.267	21355
872.397	21138
872.526	21047
872.656	21199
872.785	21077
872.915	21420
873.044	21443
873.173	21332
873.303	21283
873.432	21374
873.561	21416
873.69	21431
873.819	21310
873.948	21378
874.077	21336
874.206	21188
874.335	21222
874.464	21268
874.593	21557
874.722	21542
874.851	21568
874.979	21515
875.108	21564
875.237	21504
875.365	21511
875.494	21538
875.623	21587
875.751	21519
875.88	21515
876.008	21644
876.136	21660
876.265	21972
876.393	22082
876.521	22093
876.65	22067
876.778	22006
876.906	21953
877.034	21903
877.162	21926
877.29	21831
877.418	21838
877.546	21880
877.674	21907
877.802	21838
877.93	21865
878.058	21979
878.185	21869
878.313	21736
878.441	21907
878.568	21717
878.696	21774
878.824	21964
878.951	22017
879.079	22006
879.206	22166
879.333	22032
879.461	21846
879.588	21884
879.715	22101
879.842	22120
879.97	22032
880.097	21793
880.224	21667
880.351	21705
880.478	21766
880.605	21705
880.732	21720
880.859	21987
880.986	21770
881.112	21770
881.239	21561
881.366	21439
881.493	21355
881.619	21272
881.746	21298
881.872	21344
881.999	21135
882.125	21245
882.252	21298
882.378	21351
882.505	21355
882.631	21226
882.757	20883
882.883	21081
883.01	21036
883.136	20891
883.262	20902
883.388	20864
883.514	21066
883.64	21028
883.766	20925
883.892	20918
884.018	20823
884.143	20880
884.269	21005
884.395	20754
884.52	20667
884.646	20651
884.772	20590
884.897	20644
885.023	20705
885.148	20830
885.274	20708
885.399	20655
885.524	20655
885.65	20644
885.775	20587
885.9	20583
886.025	20735
886.15	20636
886.275	20629
886.4	20632
886.525	20598
886.65	20579
886.775	20579
886.9	20796
887.025	20902
887.149	20720
887.274	20480
887.399	20396
887.523	20556
887.648	20415
887.773	20351
887.897	20427
888.021	20484
888.146	20305
888.27	20579
888.395	20571
888.519	20484
888.643	20488
888.767	20457
888.891	20412
889.015	20210
889.139	20301
889.263	20324
889.387	20396
889.511	20427
889.635	20339
889.759	20298
889.883	20145
890.006	20309
890.13	20362
890.254	20248
890.377	20240
890.501	20012
890.624	20050
890.748	19978
890.871	19955
890.995	19784
891.118	19807
891.241	19906
891.364	19799
891.488	19970
891.611	19769
891.734	19925
891.857	19826
891.98	19757
892.103	19788
892.226	19887
892.349	19738
892.471	19616
892.594	19700
892.717	19879
892.839	19772
892.962	19696
893.085	19757
893.207	19826
893.33	19521
893.452	19689
893.575	19769
893.697	19769
893.819	19887
893.941	19868
894.064	19830
894.186	19738
894.308	19601
894.43	19845
894.552	19989
894.674	19856
894.796	19689
894.918	19681
895.04	19635
895.161	19864
895.283	19852
895.405	19662
895.526	19731
895.648	19723
895.769	19818
895.891	19822
896.012	19833
896.134	19830
896.255	19780
896.376	19788
896.498	19715
896.619	19784
896.74	19685
896.861	19807
896.982	20100
897.103	20252
897.224	20062
897.345	19967
897.466	19947
897.587	20024
897.708	20134
897.828	20077
897.949	19852
898.07	19860
898.19	19959
898.311	20001
898.431	19921
898.552	19860
898.672	20100
898.792	20043
898.913	20107
899.033	19879
899.153	19875
899.273	19674
899.393	19761
899.513	19753
899.633	19693
899.753	19700
899.873	19719
899.993	19765
900.113	19750
900.232	19624
900.352	19609
900.472	19605
900.591	19426
900.711	19510
900.83	19518
900.95	19601
901.069	19628
901.189	19320
901.308	19168
901.427	19042
901.546	19012
901.665	19065
901.784	19076
901.904	19091
902.023	18837
902.141	18738
902.26	18616
902.379	18700
902.498	18681
902.617	18464
902.735	18620
902.854	18555
902.973	18525
903.091	18334
903.21	18247
903.328	18300
903.446	18254
903.565	18136
903.683	18117
903.801	17950
903.919	17954
904.038	18060
904.156	17901
904.274	18098
904.392	17809
904.51	17821
904.627	17813
904.745	17855
904.863	17897
904.981	17520
905.098	17551
905.216	17516
905.334	17566
905.451	17608
905.569	17581
905.686	17589
905.803	17440
905.921	17368
906.038	17425
906.155	17337
906.272	17193
906.389	17315
906.506	17132
906.623	17140
906.74	17029
906.857	16965
906.974	16953
907.091	17124
907.208	17220
907.324	17109
907.441	17071
907.557	16843
907.674	16881
907.79	16767
907.907	16778
908.023	16847
908.139	16885
908.256	16683
908.372	16702
908.488	16687
908.604	16618
908.72	16466
908.836	16466
908.952	16443
909.068	16512
909.184	16622
909.3	16466
909.415	16584
909.531	16565
909.647	16257
909.762	16272
909.878	16257
909.993	16272
910.108	16177
910.224	16169
910.339	16299
910.454	16082
910.57	16029
910.685	15964
910.8	16333
910.915	16226
911.03	16109
911.145	15956
911.259	15808
911.374	15812
911.489	15762
911.604	15675
911.718	15587
911.833	15656
911.947	15507
912.062	15504
912.176	15591
912.291	15713
912.405	15576
912.519	15838
912.633	15717
912.748	15663
912.862	15572
912.976	15439
913.09	15340
913.204	15367
913.318	15412
913.431	15488
913.545	15469
913.659	15523
913.772	15416
913.886	15230
914	15211
914.113	15317
914.226	15268
914.34	15241
914.453	15062
914.566	15230
914.68	15097
914.793	15097
914.906	14880
915.019	14830
915.132	14857
915.245	14777
915.358	14849
915.47	14845
915.583	14781
915.696	14883
915.809	14857
915.921	14880
916.034	14716
916.146	14716
916.259	14689
916.371	14842
916.483	14777
916.595	14682
916.708	14606
916.82	14674
916.932	14590
917.044	14598
917.156	14655
917.268	14511
917.38	14579
917.491	14423
917.603	14480
917.715	14533
917.826	14686
917.938	14514
918.049	14301
918.161	14423
918.272	14533
918.384	14644
918.495	14438
918.606	14290
918.717	14221
918.828	14240
918.939	14336
919.05	14187
919.161	14336
919.272	13978
919.383	14168
919.494	14290
919.604	14442
919.715	14355
919.826	14096
919.936	14180
920.047	14191
920.157	14275
920.267	14374
920.378	14248
920.488	14221
920.598	14385
920.708	14438
920.818	14317
920.928	14328
921.038	14419
921.148	14438
921.258	14176
921.368	14134
921.477	14012
921.587	13906
921.697	13811
921.806	14024
921.916	13822
922.025	13594
922.134	13575
922.244	13647
922.353	13719
922.462	13453
922.571	13411
922.68	13324
922.789	13217
922.898	13304
923.007	13179
923.116	13259
923.224	13282
923.333	13160
923.442	13110
923.55	13080
923.659	13076
923.767	13168
923.876	13050
923.984	13129
924.092	12943
924.201	12985
924.309	13027
924.417	13004
924.525	12985
924.633	12966
924.741	13890
924.849	12776
924.956	12905
925.064	12681
925.172	12642
925.279	12646
925.387	12795
925.494	12684
925.602	12882
925.709	12745
925.816	12601
925.924	12745
926.031	12700
926.138	12684
926.245	12711
926.352	12521
926.459	12627
926.566	12757
926.673	12540
926.779	12456
926.886	12452
926.993	12308
927.099	12308
927.206	12182
927.312	12232
927.419	12228
927.525	12129
927.631	12285
927.737	12106
927.843	12072
927.95	12049
928.056	12053
928.162	12175
928.267	12133
928.373	12772
928.479	12190
928.585	11870
928.69	12060
928.796	12030
928.901	11920
929.007	11786
929.112	11920
929.218	11958
929.323	11821
929.428	11874
929.533	11950
929.638	11737
929.743	11786
929.848	11790
929.953	11767
930.058	11714
930.163	11490
930.267	11505
930.372	11691
930.477	11471
930.581	11668
930.685	11509
930.79	11421
930.894	11425
930.998	11433
931.103	11463
931.207	11113
931.311	11098
931.415	11003
931.519	10748
931.623	10828
