Data from test_V78500241_182.txt Node
Date: Fri Mar 25 15:11:07 CST 2022
User: usil
Spectrometer: V785-0024
Trigger mode: 0
Integration Time (sec): 4.000000E-1
Scans to average: 1
Nonlinearity correction enabled: false
Boxcar width: 0
Storing dark spectrum: false
XAxis mode: Wavelengths
Number of Pixels in Spectrum: 1024
>>>>>Begin Spectral Data<<<<<
801.071	27781
801.214	27785
801.356	27481
801.499	27374
801.641	27412
801.783	27351
801.926	27427
802.068	27256
802.211	27192
802.353	27245
802.496	26963
802.638	26948
802.78	26853
802.923	26910
803.065	26853
803.208	26762
803.35	26891
803.492	27017
803.635	27127
803.777	26902
803.919	26956
804.061	27378
804.204	26982
804.346	26940
804.488	26895
804.63	26819
804.773	26811
804.915	26963
805.057	27058
805.199	26830
805.341	27066
805.483	27032
805.626	26944
805.768	26940
805.91	27157
806.052	27085
806.194	27043
806.336	27317
806.478	27066
806.62	27051
806.762	27291
806.904	27188
807.046	27549
807.188	27496
807.33	27367
807.472	27572
807.614	27230
807.756	27310
807.898	27154
808.04	27199
808.182	27291
808.324	27302
808.465	27226
808.607	27435
808.749	27648
808.891	27679
809.033	27808
809.174	27644
809.316	27572
809.458	27679
809.6	27443
809.741	27625
809.883	27690
810.025	27876
810.166	27838
810.308	27827
810.45	27751
810.591	27675
810.733	27561
810.875	27447
811.016	27340
811.158	27336
811.299	27485
811.441	27587
811.582	27622
811.724	27454
811.865	27469
812.007	27397
812.148	27500
812.29	27534
812.431	27762
812.573	27808
812.714	27804
812.855	27770
812.997	28055
813.138	28272
813.279	28070
813.421	28070
813.562	27914
813.703	27945
813.845	27717
813.986	27393
814.127	27306
814.268	27180
814.41	27389
814.551	27161
814.692	27245
814.833	27020
814.974	26902
815.115	27051
815.256	26834
815.397	26834
815.539	26948
815.68	26800
815.821	26891
815.962	26857
816.103	26956
816.244	26800
816.385	26785
816.526	26575
816.666	26442
816.807	26404
816.948	26415
817.089	26488
817.23	26332
817.371	26267
817.512	26347
817.653	26355
817.793	26305
817.934	26324
818.075	26317
818.216	26275
818.356	26202
818.497	26157
818.638	26134
818.778	26043
818.919	26031
819.06	26054
819.2	26210
819.341	26218
819.481	26218
819.622	26320
819.762	26659
819.903	26514
820.043	26465
820.184	26347
820.324	26320
820.465	26396
820.605	26358
820.746	26336
820.886	26069
821.026	26225
821.167	26221
821.307	26393
821.447	26240
821.588	26126
821.728	26046
821.868	25795
822.008	25632
822.149	25628
822.289	25700
822.429	25575
822.569	25396
822.709	25274
822.849	25145
822.99	25175
823.13	25114
823.27	25122
823.41	25000
823.55	24848
823.69	25046
823.83	25042
823.97	25008
824.11	24730
824.25	24681
824.389	24757
824.529	24859
824.669	24707
824.809	24951
824.949	24856
825.089	24958
825.228	24707
825.368	24582
825.508	24456
825.648	24559
825.787	24601
825.927	24665
826.067	24582
826.206	24574
826.346	24589
826.485	24589
826.625	24525
826.765	24669
826.904	24471
827.044	24311
827.183	24353
827.323	24148
827.462	24414
827.601	24342
827.741	24152
827.88	24254
828.02	24224
828.159	24213
828.298	24228
828.437	24426
828.577	24178
828.716	24174
828.855	24060
828.994	23946
829.134	24087
829.273	23840
829.412	23912
829.551	23954
829.69	24007
829.829	23863
829.968	23969
830.107	23920
830.246	24011
830.385	23642
830.524	23897
830.663	23611
830.802	23623
830.941	23547
831.08	23493
831.219	23627
831.357	23676
831.496	23672
831.635	23509
831.774	23433
831.913	23334
832.051	23311
832.19	23299
832.329	23349
832.467	23288
832.606	23174
832.744	23140
832.883	23284
833.022	23162
833.16	23132
833.299	23102
833.437	23220
833.576	23318
833.714	23162
833.852	23299
833.991	23067
834.129	23292
834.267	23231
834.406	23181
834.544	23170
834.682	23231
834.821	23140
834.959	23318
835.097	23166
835.235	23216
835.373	23086
835.511	23220
835.65	23147
835.788	23071
835.926	22957
836.064	22824
836.202	22953
836.34	23109
836.478	23105
836.615	22968
836.753	23044
836.891	23105
837.029	23159
837.167	22915
837.305	22919
837.443	22927
837.58	22934
837.718	23113
837.856	22957
837.993	22755
838.131	22725
838.269	22588
838.406	22733
838.544	22672
838.681	22485
838.819	22447
838.956	22356
839.094	22303
839.231	22318
839.369	22375
839.506	22675
839.643	22527
839.781	22318
839.918	22295
840.055	22234
840.193	22333
840.33	22162
840.467	22242
840.604	22299
840.742	22481
840.879	22036
841.016	22120
841.153	22063
841.29	22329
841.427	22154
841.564	22226
841.701	22200
841.838	22116
841.975	22128
842.112	22078
842.249	22067
842.385	21975
842.522	22128
842.659	22006
842.796	21979
842.933	21979
843.069	21937
843.206	21953
843.343	22059
843.479	21861
843.616	21892
843.752	21656
843.889	21728
844.025	21861
844.162	21656
844.298	21770
844.435	21675
844.571	21667
844.708	21606
844.844	21941
844.98	21850
845.117	21831
845.253	21622
845.389	21576
845.525	21549
845.661	21526
845.798	21439
845.934	21431
846.07	21359
846.206	21496
846.342	21416
846.478	21439
846.614	21188
846.75	21146
846.886	21119
847.022	21260
847.158	21233
847.294	21180
847.429	21245
847.565	21043
847.701	21344
847.837	20937
847.972	20796
848.108	20868
848.244	20883
848.379	20689
848.515	20708
848.65	20708
848.786	20682
848.921	20640
849.057	20853
849.192	20785
849.328	20716
849.463	20720
849.598	20762
849.734	20636
849.869	20678
850.004	20507
850.14	20469
850.275	20461
850.41	20324
850.545	20450
850.68	20431
850.815	20427
850.95	20556
851.085	20708
851.22	20526
851.355	20507
851.49	20431
851.625	20412
851.76	20343
851.895	20351
852.03	20362
852.165	20450
852.299	20450
852.434	20549
852.569	20366
852.703	20549
852.838	20412
852.973	20571
853.107	20583
853.242	20286
853.376	20275
853.511	20210
853.645	20336
853.78	20381
853.914	20305
854.048	20202
854.183	20149
854.317	20221
854.451	20541
854.585	20164
854.72	20214
854.854	20317
854.988	20263
855.122	20278
855.256	20107
855.39	20290
855.524	20332
855.658	20248
855.792	20237
855.926	20317
856.06	20332
856.194	20347
856.327	20240
856.461	20225
856.595	20343
856.729	20233
856.862	20385
856.996	20290
857.13	20434
857.263	20324
857.397	20305
857.53	20126
857.664	20252
857.797	20271
857.931	20423
858.064	20206
858.197	20454
858.331	20199
858.464	20290
858.597	20126
858.731	20267
858.864	20145
858.997	20043
859.13	20176
859.263	20214
859.396	20324
859.529	20187
859.662	20161
859.795	20157
859.928	20339
860.061	20317
860.194	20313
860.327	20191
860.46	20187
860.592	20282
860.725	20400
860.858	20320
860.99	20252
861.123	20248
861.256	20073
861.388	20180
861.521	21001
861.653	20142
861.786	20069
861.918	20149
862.05	20084
862.183	20168
862.315	20218
862.447	20347
862.58	20339
862.712	20058
862.844	19879
862.976	19970
863.108	20092
863.24	20320
863.372	19875
863.504	19921
863.636	19917
863.768	20031
863.9	19951
864.032	19852
864.164	19864
864.296	19906
864.428	19978
864.559	20138
864.691	19974
864.823	19879
864.954	19921
865.086	19849
865.217	19833
865.349	19746
865.48	19864
865.612	19860
865.743	20050
865.875	19970
866.006	19791
866.137	19883
866.269	19700
866.4	19757
866.531	19807
866.662	19712
866.793	19818
866.924	19643
867.055	19811
867.186	19662
867.317	19674
867.448	19643
867.579	19655
867.71	19658
867.841	19738
867.972	19833
868.103	19715
868.233	19784
868.364	19689
868.495	19940
868.625	20039
868.756	20096
868.886	20008
869.017	19871
869.147	20240
869.278	20145
869.408	20058
869.539	20024
869.669	20126
869.799	20073
869.929	20176
870.06	20221
870.19	20317
870.32	20298
870.45	20328
870.58	20419
870.71	20495
870.84	20438
870.97	20404
871.1	20347
871.23	20636
871.36	20530
871.489	20457
871.619	20629
871.749	20606
871.879	20602
872.008	20731
872.138	20590
872.267	20568
872.397	20492
872.526	20393
872.656	20465
872.785	20503
872.915	20632
873.044	20689
873.173	20682
873.303	20674
873.432	20613
873.561	20644
873.69	20678
873.819	20629
873.948	20705
874.077	20689
874.206	20575
874.335	20552
874.464	20689
874.593	20868
874.722	20864
874.851	20864
874.979	20975
875.108	20864
875.237	20823
875.365	20785
875.494	20769
875.623	20902
875.751	20815
875.88	20937
876.008	21043
876.136	21085
876.265	21359
876.393	21363
876.521	21279
876.65	21275
876.778	21214
876.906	21252
877.034	21135
877.162	21214
877.29	21104
877.418	21302
877.546	21180
877.674	21348
877.802	21268
877.93	21108
878.058	21074
878.185	21169
878.313	21077
878.441	21313
878.568	21131
878.696	21161
878.824	21332
878.951	21279
879.079	21378
879.206	21469
879.333	21302
879.461	21157
879.588	21249
879.715	21355
879.842	21534
879.97	21298
880.097	21093
880.224	21005
880.351	21116
880.478	21066
880.605	20910
880.732	20979
880.859	21294
880.986	21036
881.112	21009
881.239	20929
881.366	20868
881.493	20663
881.619	20689
881.746	20644
881.872	20697
881.999	20644
882.125	20545
882.252	20701
882.378	20674
882.505	20792
882.631	20518
882.757	20339
882.883	20518
883.01	20393
883.136	20465
883.262	20221
883.388	20206
883.514	20362
883.64	20324
883.766	20263
883.892	20195
884.018	20271
884.143	20267
884.269	20385
884.395	20111
884.52	19951
884.646	20134
884.772	19940
884.897	19860
885.023	20054
885.148	20111
885.274	20191
885.399	20164
885.524	19986
885.65	20065
885.775	20142
885.9	20001
886.025	20153
886.15	19986
886.275	19940
886.4	19814
886.525	19902
886.65	19978
886.775	19959
886.9	20031
887.025	20317
887.149	19906
887.274	19811
887.399	19776
887.523	19814
887.648	19693
887.773	19700
887.897	19849
888.021	19826
888.146	19704
888.27	19750
888.395	19894
888.519	19799
888.643	19761
888.767	19795
888.891	19559
889.015	19597
889.139	19537
889.263	19575
889.387	19605
889.511	19647
889.635	19662
889.759	19559
889.883	19430
890.006	19571
890.13	19616
890.254	19609
890.377	19548
890.501	19266
890.624	19209
890.748	19392
890.871	19263
890.995	19202
891.118	19141
891.241	19164
891.364	19221
891.488	19293
891.611	19160
891.734	19202
891.857	19225
891.98	19168
892.103	19232
892.226	19171
892.349	19202
892.471	18981
892.594	19072
892.717	19168
892.839	19110
892.962	19061
893.085	19012
893.207	19129
893.33	18905
893.452	19072
893.575	19084
893.697	19004
893.819	19232
893.941	19206
894.064	19274
894.186	19038
894.308	19072
894.43	19084
894.552	19217
894.674	19152
894.796	19046
894.918	19069
895.04	19012
895.161	19213
895.283	19114
895.405	19000
895.526	19114
895.648	19069
895.769	19046
895.891	19122
896.012	19164
896.134	19175
896.255	19133
896.376	19091
896.498	19133
896.619	19179
896.74	19141
896.861	19213
896.982	19400
897.103	19594
897.224	19537
897.345	19331
897.466	19312
897.587	19445
897.708	19445
897.828	19312
897.949	19304
898.07	19160
898.19	19354
898.311	19548
898.431	19259
898.552	19358
898.672	19434
898.792	19392
898.913	19369
899.033	19164
899.153	19179
899.273	19118
899.393	18981
899.513	19069
899.633	19164
899.753	19156
899.873	19084
899.993	19103
900.113	19076
900.232	19034
900.352	19038
900.472	18935
900.591	18871
900.711	18829
900.83	18791
900.95	19012
901.069	18996
901.189	18791
901.308	18616
901.427	18525
901.546	18490
901.665	18464
901.784	18563
901.904	18330
902.023	18239
902.141	18045
902.26	18102
902.379	18041
902.498	17939
902.617	17885
902.735	17942
902.854	18007
902.973	17965
903.091	17710
903.21	17638
903.328	17668
903.446	17547
903.565	17501
903.683	17414
903.801	17425
903.919	17474
904.038	17395
904.156	17299
904.274	17364
904.392	17254
904.51	17318
904.627	17189
904.745	17303
904.863	17440
904.981	16976
905.098	16801
905.216	16892
905.334	16976
905.451	16915
905.569	16915
905.686	16923
905.803	16919
905.921	16675
906.038	16850
906.155	16759
906.272	16538
906.389	16694
906.506	16542
906.623	16402
906.74	16375
906.857	16394
906.974	16348
907.091	16500
907.208	16565
907.324	16554
907.441	16265
907.557	16196
907.674	16143
907.79	16082
907.907	16265
908.023	16162
908.139	16116
908.256	16177
908.372	16048
908.488	16101
908.604	15983
908.72	15861
908.836	15956
908.952	15827
909.068	15873
909.184	15972
909.3	15861
909.415	15930
909.531	15854
909.647	15660
909.762	15568
909.878	15584
909.993	15561
910.108	15504
910.224	15500
910.339	15481
910.454	15435
910.57	15492
910.685	15393
910.8	15614
910.915	15534
911.03	15382
911.145	15306
911.259	15135
911.374	15226
911.489	15047
911.604	15009
911.718	14990
911.833	14906
911.947	14735
912.062	14739
912.176	14937
912.291	14906
912.405	14902
912.519	15005
912.633	15085
912.748	14986
912.862	14773
912.976	14773
913.09	14727
913.204	14686
913.318	14765
913.431	14750
913.545	14731
913.659	14815
913.772	14773
913.886	14590
914	14594
914.113	14610
914.226	14674
914.34	14579
914.453	14423
914.566	14689
914.68	14545
914.793	14446
914.906	14259
915.019	14229
915.132	14115
915.245	14259
915.358	14259
915.47	14183
915.583	14309
915.696	14271
915.809	14347
915.921	14286
916.034	14191
916.146	14084
916.259	14123
916.371	14172
916.483	14119
916.595	14123
916.708	14058
916.82	14088
916.932	14054
917.044	13947
917.156	13845
917.268	13940
917.38	13887
917.491	13811
917.603	13864
917.715	13917
917.826	13955
917.938	13890
918.049	13708
918.161	13822
918.272	13955
918.384	13963
918.495	13871
918.606	13719
918.717	13518
918.828	13704
918.939	13681
919.05	13632
919.161	13727
919.272	13369
919.383	13586
919.494	13772
919.604	13799
919.715	13670
919.826	13620
919.936	13616
920.047	13757
920.157	13601
920.267	13856
920.378	13586
920.488	13616
920.598	13769
920.708	13868
920.818	13769
920.928	13833
921.038	13879
921.148	13860
921.258	13620
921.368	13521
921.477	13426
921.587	13236
921.697	13190
921.806	13327
921.916	13236
922.025	13099
922.134	12989
922.244	13012
922.353	13053
922.462	12973
922.571	12829
922.68	12673
922.789	12570
922.898	12749
923.007	12585
923.116	12570
923.224	12658
923.333	12646
923.442	12490
923.55	12399
923.659	12574
923.767	12544
923.876	12448
923.984	12544
924.092	12391
924.201	12422
924.309	12521
924.417	12441
924.525	12304
924.633	12395
924.741	13141
924.849	12060
924.956	12308
925.064	12155
925.172	12095
925.279	12114
925.387	12110
925.494	12197
925.602	12273
925.709	12095
925.816	12026
925.924	12072
926.031	12114
926.138	12068
926.245	12163
926.352	11980
926.459	12133
926.566	12121
926.673	11980
926.779	11927
926.886	11916
926.993	11828
927.099	11741
927.206	11688
927.312	11646
927.419	11786
927.525	11726
927.631	11695
927.737	11653
927.843	11604
927.95	11497
928.056	11592
928.162	11600
928.267	11642
928.373	12049
928.479	11619
928.585	11311
928.69	11455
928.796	11524
928.901	11512
929.007	11273
929.112	11421
929.218	11459
929.323	11429
929.428	11326
929.533	11387
929.638	11201
929.743	11315
929.848	11311
929.953	11246
930.058	11155
930.163	11025
930.267	11010
930.372	11136
930.477	10946
930.581	11132
930.685	11033
930.79	10869
930.894	10938
930.998	10873
931.103	10991
931.207	10592
931.311	10626
931.415	10474
931.519	10261
931.623	10284
