Data from test_V78500241_3014.txt Node
Date: Fri Mar 25 15:30:50 CST 2022
User: usil
Spectrometer: V785-0024
Trigger mode: 0
Integration Time (sec): 4.000000E-1
Scans to average: 1
Nonlinearity correction enabled: false
Boxcar width: 0
Storing dark spectrum: false
XAxis mode: Wavelengths
Number of Pixels in Spectrum: 1024
>>>>>Begin Spectral Data<<<<<
801.071	27287
801.214	27260
801.356	27066
801.499	26998
801.641	26765
801.783	26834
801.926	27009
802.068	26781
802.211	26746
802.353	26648
802.496	26499
802.638	26530
802.78	26530
802.923	26355
803.065	26355
803.208	26484
803.35	26309
803.492	26526
803.635	26484
803.777	26453
803.919	26640
804.061	27013
804.204	26598
804.346	26594
804.488	26484
804.63	26537
804.773	26522
804.915	26568
805.057	26575
805.199	26385
805.341	26564
805.483	26724
805.626	26670
805.768	26587
805.91	26743
806.052	26823
806.194	26465
806.336	26735
806.478	26769
806.62	26564
806.762	26864
806.904	26967
807.046	27329
807.188	27119
807.33	27116
807.472	27100
807.614	27081
807.756	27028
807.898	26986
808.04	26963
808.182	27036
808.324	27039
808.465	27028
808.607	27100
808.749	27192
808.891	27526
809.033	27507
809.174	27405
809.316	27256
809.458	27249
809.6	27203
809.741	27435
809.883	27443
810.025	27553
810.166	27644
810.308	27595
810.45	27408
810.591	27462
810.733	27363
810.875	27245
811.016	27272
811.158	27317
811.299	27454
811.441	27458
811.582	27473
811.724	27348
811.865	27150
812.007	27218
812.148	27302
812.29	27401
812.431	27488
812.573	27591
812.714	27736
812.855	27797
812.997	27987
813.138	28112
813.279	27968
813.421	27785
813.562	27835
813.703	27610
813.845	27412
813.986	27302
814.127	26914
814.268	26986
814.41	27009
814.551	26929
814.692	27017
814.833	26963
814.974	26895
815.115	27024
815.256	26796
815.397	26864
815.539	26823
815.68	26663
815.821	26758
815.962	26750
816.103	26629
816.244	26575
816.385	26499
816.526	26469
816.666	26351
816.807	26290
816.948	26263
817.089	26225
817.23	26210
817.371	26389
817.512	26100
817.653	26320
817.793	26240
817.934	26233
818.075	26237
818.216	26149
818.356	26176
818.497	25936
818.638	25959
818.778	25970
818.919	25963
819.06	26024
819.2	26020
819.341	26092
819.481	26126
819.622	26355
819.762	26564
819.903	26442
820.043	26412
820.184	26347
820.324	26374
820.465	26526
820.605	26263
820.746	26237
820.886	26210
821.026	26252
821.167	26286
821.307	26313
821.447	26164
821.588	26183
821.728	26130
821.868	25674
822.008	25685
822.149	25731
822.289	25700
822.429	25430
822.569	25274
822.709	25365
822.849	25171
822.99	25228
823.13	25107
823.27	25126
823.41	25118
823.55	24970
823.69	24966
823.83	24939
823.97	24852
824.11	24764
824.25	24726
824.389	24783
824.529	24913
824.669	24817
824.809	24985
824.949	24966
825.089	24844
825.228	24810
825.368	24604
825.508	24650
825.648	24722
825.787	24844
825.927	24627
826.067	24616
826.206	24768
826.346	24798
826.485	24760
826.625	24646
826.765	24787
826.904	24798
827.044	24372
827.183	24536
827.323	24433
827.462	24490
827.601	24475
827.741	24384
827.88	24399
828.02	24308
828.159	24281
828.298	24311
828.437	24388
828.577	24346
828.716	24372
828.855	24251
828.994	24114
829.134	24209
829.273	24148
829.412	23958
829.551	23908
829.69	24053
829.829	24034
829.968	24201
830.107	24110
830.246	23984
830.385	23904
830.524	23992
830.663	23999
830.802	23741
830.941	23623
831.08	23695
831.219	23798
831.357	23790
831.496	23832
831.635	23668
831.774	23630
831.913	23471
832.051	23497
832.19	23444
832.329	23482
832.467	23307
832.606	23288
832.744	23341
832.883	23376
833.022	23307
833.16	23349
833.299	23493
833.437	23459
833.576	23417
833.714	23372
833.852	23505
833.991	23516
834.129	23524
834.267	23509
834.406	23436
834.544	23512
834.682	23303
834.821	23341
834.959	23554
835.097	23326
835.235	23395
835.373	23433
835.511	23414
835.65	23315
835.788	23216
835.926	23185
836.064	22938
836.202	23102
836.34	23254
836.478	23265
836.615	23185
836.753	23250
836.891	23273
837.029	23322
837.167	23254
837.305	23117
837.443	23048
837.58	23014
837.718	23265
837.856	23117
837.993	23018
838.131	23067
838.269	22991
838.406	23048
838.544	22919
838.681	22767
838.819	22672
838.956	22504
839.094	22634
839.231	22752
839.369	22721
839.506	22911
839.643	22843
839.781	22523
839.918	22535
840.055	22546
840.193	22550
840.33	22557
840.467	22516
840.604	22554
840.742	22805
840.879	22352
841.016	22466
841.153	22440
841.29	22622
841.427	22455
841.564	22588
841.701	22573
841.838	22409
841.975	22242
842.112	22478
842.249	22249
842.385	22242
842.522	22569
842.659	22360
842.796	22318
842.933	22325
843.069	22272
843.206	22287
843.343	22466
843.479	22230
843.616	22150
843.752	22032
843.889	22021
844.025	22196
844.162	21945
844.298	22040
844.435	22074
844.571	21937
844.708	22067
844.844	22287
844.98	22192
845.117	22078
845.253	21953
845.389	21823
845.525	22032
845.661	22006
845.798	21797
845.934	21751
846.07	21880
846.206	21732
846.342	21869
846.478	21705
846.614	21576
846.75	21477
846.886	21481
847.022	21507
847.158	21496
847.294	21564
847.429	21629
847.565	21538
847.701	21835
847.837	21214
847.972	21237
848.108	21256
848.244	21313
848.379	21173
848.515	21154
848.65	21127
848.786	21135
848.921	21226
849.057	21180
849.192	21264
849.328	21199
849.463	21089
849.598	21135
849.734	21074
849.869	20960
850.004	20948
850.14	20845
850.275	20929
850.41	20857
850.545	20788
850.68	20864
850.815	20899
850.95	20849
851.085	20990
851.22	20960
851.355	20971
851.49	20826
851.625	20891
851.76	20853
851.895	20731
852.03	20769
852.165	20883
852.299	20967
852.434	20994
852.569	20914
852.703	20845
852.838	20956
852.973	21055
853.107	21036
853.242	20762
853.376	20693
853.511	20507
853.645	20541
853.78	20758
853.914	20636
854.048	20644
854.183	20758
854.317	20796
854.451	20910
854.585	20613
854.72	20579
854.854	20796
854.988	20689
855.122	20731
855.256	20530
855.39	20750
855.524	20735
855.658	20773
855.792	20644
855.926	20648
856.06	20773
856.194	20769
856.327	20769
856.461	20507
856.595	20530
856.729	20735
856.862	20800
856.996	20746
857.13	20765
857.263	20670
857.397	20746
857.53	20663
857.664	20674
857.797	20659
857.931	20819
858.064	20758
858.197	20838
858.331	20674
858.464	20743
858.597	20560
858.731	20758
858.864	20678
858.997	20701
859.13	20716
859.263	20788
859.396	20701
859.529	20617
859.662	20609
859.795	20579
859.928	20712
860.061	20891
860.194	20925
860.327	20693
860.46	20701
860.592	20727
860.725	20758
860.858	20815
860.99	20651
861.123	20579
861.256	20575
861.388	20606
861.521	21374
861.653	20590
861.786	20552
861.918	20488
862.05	20552
862.183	20705
862.315	20667
862.447	20640
862.58	20697
862.712	20454
862.844	20408
862.976	20594
863.108	20530
863.24	20937
863.372	20286
863.504	20252
863.636	20499
863.768	20454
863.9	20457
864.032	20336
864.164	20438
864.296	20454
864.428	20526
864.559	20393
864.691	20556
864.823	20533
864.954	20389
865.086	20450
865.217	20374
865.349	20145
865.48	20259
865.612	20370
865.743	20499
865.875	20343
866.006	20408
866.137	20412
866.269	20362
866.4	20237
866.531	20187
866.662	20077
866.793	20355
866.924	20214
867.055	20282
867.186	20214
867.317	20339
867.448	20134
867.579	20214
867.71	20176
867.841	20164
867.972	20157
868.103	20210
868.233	20218
868.364	20180
868.495	20218
868.625	20454
868.756	20518
868.886	20457
869.017	20533
869.147	20533
869.278	20655
869.408	20473
869.539	20419
869.669	20583
869.799	20419
869.929	20461
870.06	20682
870.19	20819
870.32	20804
870.45	20845
870.58	20925
870.71	21150
870.84	21051
870.97	20826
871.1	20963
871.23	21058
871.36	20986
871.489	21104
871.619	21123
871.749	21058
871.879	21123
872.008	21169
872.138	21146
872.267	21169
872.397	20998
872.526	20902
872.656	20941
872.785	21001
872.915	21199
873.044	21203
873.173	21089
873.303	21176
873.432	21176
873.561	21077
873.69	21085
873.819	21150
873.948	21298
874.077	21104
874.206	21218
874.335	21100
874.464	21112
874.593	21374
874.722	21351
874.851	21469
874.979	21401
875.108	21386
875.237	21340
875.365	21298
875.494	21313
875.623	21397
875.751	21416
875.88	21481
876.008	21515
876.136	21515
876.265	21755
876.393	21960
876.521	21675
876.65	21876
876.778	21778
876.906	21637
877.034	21671
877.162	21732
877.29	21614
877.418	21743
877.546	21629
877.674	21720
877.802	21819
877.93	21797
878.058	21709
878.185	21523
878.313	21595
878.441	21709
878.568	21447
878.696	21717
878.824	21739
878.951	21774
879.079	21880
879.206	21892
879.333	21854
879.461	21785
879.588	21842
879.715	21850
879.842	21873
879.97	21747
880.097	21603
880.224	21515
880.351	21637
880.478	21454
880.605	21507
880.732	21603
880.859	21778
880.986	21595
881.112	21682
881.239	21435
881.366	21268
881.493	21317
881.619	21127
881.746	21077
881.872	21146
881.999	21119
882.125	21001
882.252	21154
882.378	21093
882.505	21279
882.631	20990
882.757	20921
882.883	20963
883.01	20727
883.136	20762
883.262	20701
883.388	20663
883.514	20796
883.64	20834
883.766	20731
883.892	20571
884.018	20594
884.143	20708
884.269	20880
884.395	20549
884.52	20511
884.646	20507
884.772	20492
884.897	20339
885.023	20579
885.148	20629
885.274	20583
885.399	20484
885.524	20511
885.65	20393
885.775	20571
885.9	20450
886.025	20632
886.15	20587
886.275	20374
886.4	20362
886.525	20438
886.65	20362
886.775	20358
886.9	20598
887.025	20640
887.149	20389
887.274	20256
887.399	20259
887.523	20317
887.648	20267
887.773	20149
887.897	20313
888.021	20237
888.146	20050
888.27	20317
888.395	20313
888.519	20187
888.643	20324
888.767	20324
888.891	20267
889.015	20050
889.139	20168
889.263	20054
889.387	20153
889.511	20305
889.635	20233
889.759	20126
889.883	20001
890.006	19993
890.13	20210
890.254	20054
890.377	19932
890.501	19818
890.624	19822
890.748	19906
890.871	19818
890.995	19624
891.118	19521
891.241	19647
891.364	19453
891.488	19776
891.611	19578
891.734	19616
891.857	19628
891.98	19677
892.103	19761
892.226	19639
892.349	19537
892.471	19388
892.594	19445
892.717	19624
892.839	19426
892.962	19533
893.085	19578
893.207	19529
893.33	19487
893.452	19544
893.575	19635
893.697	19544
893.819	19757
893.941	19776
894.064	19628
894.186	19491
894.308	19601
894.43	19696
894.552	19677
894.674	19575
894.796	19362
894.918	19708
895.04	19514
895.161	19635
895.283	19533
895.405	19495
895.526	19540
895.648	19552
895.769	19715
895.891	19499
896.012	19700
896.134	19559
896.255	19419
896.376	19548
896.498	19487
896.619	19677
896.74	19548
896.861	19635
896.982	19883
897.103	20050
897.224	19795
897.345	19772
897.466	19674
897.587	19837
897.708	19811
897.828	19803
897.949	19772
898.07	19472
898.19	19639
898.311	19746
898.431	19677
898.552	19845
898.672	19913
898.792	19837
898.913	19822
899.033	19613
899.153	19594
899.273	19476
899.393	19693
899.513	19586
899.633	19601
899.753	19548
899.873	19533
899.993	19616
900.113	19525
900.232	19457
900.352	19491
900.472	19419
900.591	19308
900.711	19297
900.83	19335
900.95	19441
901.069	19362
901.189	19251
901.308	18954
901.427	18878
901.546	18837
901.665	18954
901.784	18905
901.904	18646
902.023	18738
902.141	18445
902.26	18475
902.379	18509
902.498	18388
902.617	18414
902.735	18456
902.854	18342
902.973	18323
903.091	18243
903.21	18182
903.328	18057
903.446	17988
903.565	17954
903.683	17916
903.801	17798
903.919	17908
904.038	17882
904.156	17775
904.274	17813
904.392	17714
904.51	17703
904.627	17661
904.745	17729
904.863	17714
904.981	17551
905.098	17337
905.216	17360
905.334	17372
905.451	17356
905.569	17220
905.686	17398
905.803	17330
905.921	17079
906.038	17250
906.155	17212
906.272	16957
906.389	17155
906.506	17029
906.623	17025
906.74	16866
906.857	16687
906.974	16839
907.091	16923
907.208	16999
907.324	16942
907.441	16790
907.557	16786
907.674	16580
907.79	16565
907.907	16630
908.023	16641
908.139	16645
908.256	16588
908.372	16523
908.488	16542
908.604	16436
908.72	16310
908.836	16325
908.952	16249
909.068	16344
909.184	16360
909.3	16306
909.415	16375
909.531	16318
909.647	16219
909.762	16074
909.878	16029
909.993	16150
910.108	16021
910.224	16013
910.339	16086
910.454	15899
910.57	15857
910.685	15812
910.8	16059
910.915	15918
911.03	15854
911.145	15713
911.259	15667
911.374	15663
911.489	15671
911.604	15523
911.718	15454
911.833	15420
911.947	15363
912.062	15272
912.176	15428
912.291	15507
912.405	15450
912.519	15667
912.633	15507
912.748	15431
912.862	15408
912.976	15329
913.09	15051
913.204	15218
913.318	15378
913.431	15222
913.545	15230
913.659	15325
913.772	15100
913.886	15009
914	15028
914.113	15108
914.226	15138
914.34	15047
914.453	14864
914.566	15100
914.68	14902
914.793	14967
914.906	14746
915.019	14708
915.132	14667
915.245	14648
915.358	14743
915.47	14606
915.583	14682
915.696	14716
915.809	14765
915.921	14750
916.034	14602
916.146	14644
916.259	14564
916.371	14610
916.483	14773
916.595	14400
916.708	14621
916.82	14476
916.932	14457
917.044	14583
917.156	14408
917.268	14309
917.38	14400
917.491	14240
917.603	14317
917.715	14427
917.826	14328
917.938	14267
918.049	14301
918.161	14336
918.272	14408
918.384	14412
918.495	14221
918.606	14084
918.717	14084
918.828	14081
918.939	14221
919.05	14081
919.161	14039
919.272	13917
919.383	13967
919.494	14183
919.604	14328
919.715	14115
919.826	13974
919.936	14012
920.047	14183
920.157	14168
920.267	14294
920.378	14027
920.488	14096
920.598	14233
920.708	14248
920.818	14275
920.928	14123
921.038	14290
921.148	14358
921.258	14043
921.368	13951
921.477	13951
921.587	13814
921.697	13746
921.806	13803
921.916	13700
922.025	13563
922.134	13464
922.244	13453
922.353	13521
922.462	13381
922.571	13343
922.68	13133
922.789	13129
922.898	13129
923.007	13114
923.116	13107
923.224	13031
923.333	13072
923.442	13008
923.55	12981
923.659	12909
923.767	13015
923.876	12882
923.984	12928
924.092	12875
924.201	12935
924.309	12928
924.417	12825
924.525	12757
924.633	12916
924.741	13578
924.849	12601
924.956	12741
925.064	12639
925.172	12506
925.279	12563
925.387	12589
925.494	12559
925.602	12738
925.709	12612
925.816	12525
925.924	12460
926.031	12574
926.138	12498
926.245	12620
926.352	12422
926.459	12525
926.566	12566
926.673	12433
926.779	12311
926.886	12311
926.993	12194
927.099	12175
927.206	12140
927.312	12194
927.419	12209
927.525	12140
927.631	12194
927.737	11939
927.843	12049
927.95	11805
928.056	11942
928.162	12019
928.267	11988
928.373	12585
928.479	12121
928.585	11802
928.69	11984
928.796	12019
928.901	11756
929.007	11688
929.112	11840
929.218	11832
929.323	11722
929.428	11668
929.533	11809
929.638	11649
929.743	11672
929.848	11703
929.953	11722
930.058	11581
930.163	11353
930.267	11467
930.372	11509
930.477	11299
930.581	11615
930.685	11444
930.79	11296
930.894	11326
930.998	11197
931.103	11482
931.207	11052
931.311	10949
931.415	10908
931.519	10736
931.623	10641
