Data from test_V78500241_2389.txt Node
Date: Fri Mar 25 15:26:29 CST 2022
User: usil
Spectrometer: V785-0024
Trigger mode: 0
Integration Time (sec): 4.000000E-1
Scans to average: 1
Nonlinearity correction enabled: false
Boxcar width: 0
Storing dark spectrum: false
XAxis mode: Wavelengths
Number of Pixels in Spectrum: 1024
>>>>>Begin Spectral Data<<<<<
801.071	27108
801.214	27013
801.356	26762
801.499	26720
801.641	26564
801.783	26549
801.926	26632
802.068	26705
802.211	26461
802.353	26503
802.496	26374
802.638	26210
802.78	26172
802.923	26058
803.065	26126
803.208	26134
803.35	26275
803.492	26320
803.635	26282
803.777	26199
803.919	26240
804.061	26655
804.204	26579
804.346	26347
804.488	26202
804.63	26366
804.773	26267
804.915	26450
805.057	26530
805.199	26423
805.341	26484
805.483	26453
805.626	26488
805.768	26351
805.91	26320
806.052	26537
806.194	26301
806.336	26636
806.478	26492
806.62	26381
806.762	26511
806.904	26651
807.046	26883
807.188	26937
807.33	26883
807.472	27017
807.614	26587
807.756	26788
807.898	26724
808.04	26689
808.182	26701
808.324	26861
808.465	26864
808.607	27058
808.749	27043
808.891	27214
809.033	27340
809.174	27211
809.316	27028
809.458	27058
809.6	27058
809.741	27195
809.883	27165
810.025	27329
810.166	27287
810.308	27165
810.45	27264
810.591	27283
810.733	27077
810.875	26979
811.016	26804
811.158	26826
811.299	27005
811.441	27066
811.582	27093
811.724	26940
811.865	26830
812.007	26960
812.148	26971
812.29	27142
812.431	27249
812.573	27214
812.714	27378
812.855	27507
812.997	27618
813.138	27800
813.279	27671
813.421	27625
813.562	27450
813.703	27310
813.845	27199
813.986	26956
814.127	26800
814.268	26663
814.41	26792
814.551	26682
814.692	26811
814.833	26522
814.974	26549
815.115	26651
815.256	26632
815.397	26609
815.539	26636
815.68	26461
815.821	26423
815.962	26442
816.103	26385
816.244	26339
816.385	26278
816.526	26195
816.666	26024
816.807	25902
816.948	25986
817.089	26031
817.23	25879
817.371	25963
817.512	25852
817.653	25845
817.793	25917
817.934	25978
818.075	25974
818.216	25906
818.356	25925
818.497	25864
818.638	25761
818.778	25700
818.919	25647
819.06	25822
819.2	25788
819.341	26020
819.481	25944
819.622	26001
819.762	26237
819.903	26195
820.043	26046
820.184	26027
820.324	25955
820.465	25993
820.605	26065
820.746	26027
820.886	25769
821.026	26058
821.167	26008
821.307	26103
821.447	25944
821.588	25761
821.728	25696
821.868	25704
822.008	25578
822.149	25308
822.289	25407
822.429	25259
822.569	25148
822.709	25099
822.849	24939
822.99	24890
823.13	24939
823.27	24863
823.41	24795
823.55	24650
823.69	24829
823.83	24791
823.97	24620
824.11	24509
824.25	24490
824.389	24517
824.529	24669
824.669	24479
824.809	24601
824.949	24722
825.089	24677
825.228	24509
825.368	24441
825.508	24380
825.648	24502
825.787	24418
825.927	24429
826.067	24357
826.206	24437
826.346	24456
826.485	24452
826.625	24471
826.765	24471
826.904	24448
827.044	24216
827.183	24289
827.323	24129
827.462	24209
827.601	24224
827.741	24148
827.88	24140
828.02	24026
828.159	24125
828.298	24083
828.437	24167
828.577	24079
828.716	24270
828.855	24003
828.994	23798
829.134	23882
829.273	23942
829.412	23707
829.551	23733
829.69	23809
829.829	23802
829.968	24087
830.107	23912
830.246	24015
830.385	23779
830.524	23680
830.663	23638
830.802	23615
830.941	23482
831.08	23467
831.219	23406
831.357	23547
831.496	23630
831.635	23345
831.774	23440
831.913	23334
832.051	23337
832.19	23185
832.329	23277
832.467	23200
832.606	23151
832.744	23098
832.883	23124
833.022	23064
833.16	23170
833.299	23147
833.437	23079
833.576	23227
833.714	23102
833.852	23162
833.991	23368
834.129	23288
834.267	23330
834.406	23250
834.544	23334
834.682	23239
834.821	23200
834.959	23315
835.097	23090
835.235	23261
835.373	23239
835.511	23117
835.65	23006
835.788	22961
835.926	22953
836.064	22831
836.202	22812
836.34	23121
836.478	23018
836.615	23014
836.753	23044
836.891	23136
837.029	22972
837.167	23014
837.305	23003
837.443	22873
837.58	22839
837.718	23132
837.856	22797
837.993	22786
838.131	22828
838.269	22744
838.406	22675
838.544	22831
838.681	22398
838.819	22481
838.956	22314
839.094	22295
839.231	22485
839.369	22645
839.506	22755
839.643	22584
839.781	22344
839.918	22318
840.055	22276
840.193	22398
840.33	22261
840.467	22238
840.604	22398
840.742	22577
840.879	22120
841.016	22253
841.153	22211
841.29	22337
841.427	22314
841.564	22356
841.701	22150
841.838	22268
841.975	22177
842.112	22078
842.249	22044
842.385	22101
842.522	22280
842.659	22097
842.796	22051
842.933	22048
843.069	22082
843.206	22006
843.343	22158
843.479	22044
843.616	22040
843.752	21926
843.889	21785
844.025	21998
844.162	21812
844.298	21873
844.435	21728
844.571	21842
844.708	21804
844.844	22002
844.98	21964
845.117	21876
845.253	21846
845.389	21713
845.525	21781
845.661	21633
845.798	21488
845.934	21641
846.07	21511
846.206	21652
846.342	21701
846.478	21473
846.614	21298
846.75	21199
846.886	21313
847.022	21260
847.158	21378
847.294	21252
847.429	21302
847.565	21230
847.701	21538
847.837	21108
847.972	20925
848.108	20998
848.244	21188
848.379	20998
848.515	20967
848.65	20804
848.786	20937
848.921	21017
849.057	20979
849.192	21089
849.328	21013
849.463	20910
849.598	20838
849.734	20781
849.869	20708
850.004	20667
850.14	20701
850.275	20625
850.41	20598
850.545	20674
850.68	20697
850.815	20773
850.95	20693
851.085	20876
851.22	20792
851.355	20701
851.49	20648
851.625	20545
851.76	20716
851.895	20602
852.03	20518
852.165	20644
852.299	20720
852.434	20720
852.569	20674
852.703	20849
852.838	20640
852.973	20773
853.107	20861
853.242	20632
853.376	20514
853.511	20355
853.645	20518
853.78	20659
853.914	20552
854.048	20457
854.183	20450
854.317	20549
854.451	20636
854.585	20530
854.72	20507
854.854	20617
854.988	20438
855.122	20495
855.256	20366
855.39	20465
855.524	20549
855.658	20385
855.792	20450
855.926	20492
856.06	20438
856.194	20602
856.327	20488
856.461	20461
856.595	20476
856.729	20526
856.862	20552
856.996	20488
857.13	20473
857.263	20670
857.397	20575
857.53	20507
857.664	20434
857.797	20469
857.931	20549
858.064	20632
858.197	20537
858.331	20537
858.464	20358
858.597	20412
858.731	20473
858.864	20412
858.997	20446
859.13	20423
859.263	20499
859.396	20514
859.529	20431
859.662	20358
859.795	20423
859.928	20499
860.061	20659
860.194	20689
860.327	20545
860.46	20514
860.592	20598
860.725	20545
860.858	20568
860.99	20552
861.123	20446
861.256	20503
861.388	20454
861.521	21017
861.653	20507
861.786	20244
861.918	20267
862.05	20351
862.183	20366
862.315	20514
862.447	20476
862.58	20434
862.712	20221
862.844	20218
862.976	20218
863.108	20229
863.24	20750
863.372	20111
863.504	20153
863.636	20199
863.768	20377
863.9	20191
864.032	20149
864.164	20069
864.296	20301
864.428	20339
864.559	20115
864.691	20259
864.823	20362
864.954	20195
865.086	20111
865.217	20138
865.349	19993
865.48	20157
865.612	20111
865.743	20161
865.875	20058
866.006	20187
866.137	20081
866.269	20103
866.4	20043
866.531	20020
866.662	20062
866.793	20035
866.924	20058
867.055	20134
867.186	20202
867.317	20058
867.448	20016
867.579	20024
867.71	19993
867.841	19997
867.972	20039
868.103	20046
868.233	20043
868.364	20046
868.495	20100
868.625	20248
868.756	20385
868.886	20111
869.017	20240
869.147	20332
869.278	20328
869.408	20336
869.539	20103
869.669	20286
869.799	20317
869.929	20385
870.06	20461
870.19	20613
870.32	20530
870.45	20625
870.58	20746
870.71	20724
870.84	20765
870.97	20701
871.1	20621
871.23	20807
871.36	20876
871.489	20800
871.619	20948
871.749	21020
871.879	20906
872.008	21005
872.138	20937
872.267	20845
872.397	20815
872.526	20819
872.656	20773
872.785	20773
872.915	20880
873.044	20880
873.173	20876
873.303	20963
873.432	21013
873.561	21055
873.69	21066
873.819	20876
873.948	20933
874.077	20982
874.206	20864
874.335	20990
874.464	21047
874.593	21195
874.722	21108
874.851	21218
874.979	21154
875.108	21116
875.237	21085
875.365	20963
875.494	21226
875.623	21188
875.751	21150
875.88	21116
876.008	21268
876.136	21348
876.265	21595
876.393	21663
876.521	21648
876.65	21583
876.778	21496
876.906	21458
877.034	21500
877.162	21458
877.29	21485
877.418	21504
877.546	21526
877.674	21405
877.802	21351
877.93	21443
878.058	21454
878.185	21332
878.313	21519
878.441	21477
878.568	21332
878.696	21348
878.824	21572
878.951	21511
879.079	21485
879.206	21701
879.333	21816
879.461	21603
879.588	21686
879.715	21747
879.842	21720
879.97	21515
880.097	21374
880.224	21279
880.351	21291
880.478	21412
880.605	21272
880.732	21359
880.859	21595
880.986	21287
881.112	21408
881.239	21150
881.366	20971
881.493	20952
881.619	20849
881.746	20971
881.872	20933
881.999	20800
882.125	20823
882.252	20891
882.378	20880
882.505	20963
882.631	20769
882.757	20712
882.883	20625
883.01	20526
883.136	20514
883.262	20427
883.388	20385
883.514	20735
883.64	20549
883.766	20632
883.892	20355
884.018	20434
884.143	20621
884.269	20636
884.395	20492
884.52	20252
884.646	20317
884.772	20240
884.897	20229
885.023	20301
885.148	20461
885.274	20423
885.399	20362
885.524	20355
885.65	20381
885.775	20423
885.9	20103
886.025	20450
886.15	20328
886.275	20168
886.4	20088
886.525	20149
886.65	20145
886.775	20176
886.9	20476
887.025	20492
887.149	20214
887.274	20065
887.399	20058
887.523	20027
887.648	19955
887.773	19970
887.897	20259
888.021	20062
888.146	19928
888.27	20062
888.395	20115
888.519	20039
888.643	20134
888.767	20126
888.891	19963
889.015	19822
889.139	19928
889.263	19879
889.387	19940
889.511	20157
889.635	20012
889.759	19833
889.883	19845
890.006	19940
890.13	19944
890.254	19803
890.377	19757
890.501	19582
890.624	19609
890.748	19685
890.871	19647
890.995	19430
891.118	19411
891.241	19464
891.364	19525
891.488	19575
891.611	19453
891.734	19491
891.857	19552
891.98	19430
892.103	19495
892.226	19487
892.349	19384
892.471	19282
892.594	19369
892.717	19403
892.839	19263
892.962	19415
893.085	19373
893.207	19415
893.33	19221
893.452	19259
893.575	19453
893.697	19365
893.819	19438
893.941	19613
894.064	19575
894.186	19232
894.308	19377
894.43	19449
894.552	19434
894.674	19381
894.796	19270
894.918	19301
895.04	19373
895.161	19472
895.283	19449
895.405	19324
895.526	19369
895.648	19308
895.769	19335
895.891	19472
896.012	19430
896.134	19426
896.255	19419
896.376	19373
896.498	19278
896.619	19369
896.74	19324
896.861	19411
896.982	19658
897.103	19780
897.224	19704
897.345	19620
897.466	19521
897.587	19544
897.708	19776
897.828	19567
897.949	19548
898.07	19426
898.19	19506
898.311	19647
898.431	19495
898.552	19613
898.672	19590
898.792	19750
898.913	19700
899.033	19491
899.153	19449
899.273	19270
899.393	19358
899.513	19457
899.633	19415
899.753	19441
899.873	19354
899.993	19464
900.113	19354
900.232	19160
900.352	19217
900.472	19213
900.591	19129
900.711	19156
900.83	19270
900.95	19209
901.069	19259
901.189	19213
901.308	18890
901.427	18703
901.546	18814
901.665	18810
901.784	18806
901.904	18700
902.023	18582
902.141	18418
902.26	18296
902.379	18433
902.498	18426
902.617	18330
902.735	18380
902.854	18140
902.973	18216
903.091	18003
903.21	17897
903.328	17882
903.446	17817
903.565	17756
903.683	17672
903.801	17684
903.919	17832
904.038	17779
904.156	17532
904.274	17482
904.392	17436
904.51	17463
904.627	17528
904.745	17592
904.863	17497
904.981	17360
905.098	17239
905.216	17189
905.334	17265
905.451	17265
905.569	17117
905.686	17181
905.803	17136
905.921	17014
906.038	17121
906.155	17010
906.272	16854
906.389	16877
906.506	16752
906.623	16725
906.74	16660
906.857	16641
906.974	16668
907.091	16736
907.208	16755
907.324	16774
907.441	16656
907.557	16489
907.674	16466
907.79	16436
907.907	16451
908.023	16535
908.139	16375
908.256	16390
908.372	16337
908.488	16455
908.604	16215
908.72	16124
908.836	16200
908.952	16105
909.068	16192
909.184	16276
909.3	16215
909.415	16177
909.531	16124
909.647	16017
909.762	15934
909.878	15903
909.993	15915
910.108	15827
910.224	15911
910.339	15823
910.454	15736
910.57	15720
910.685	15679
910.8	15888
910.915	15911
911.03	15762
911.145	15523
911.259	15530
911.374	15485
911.489	15412
911.604	15466
911.718	15279
911.833	15370
911.947	15192
912.062	15077
912.176	15199
912.291	15226
912.405	15211
912.519	15466
912.633	15378
912.748	15291
912.862	15268
912.976	15077
913.09	14929
913.204	15020
913.318	15161
913.431	15161
913.545	15108
913.659	15188
913.772	15070
913.886	14910
914	14906
914.113	14963
914.226	15032
914.34	14891
914.453	14705
914.566	14925
914.68	14804
914.793	14712
914.906	14583
915.019	14579
915.132	14381
915.245	14511
915.358	14598
915.47	14511
915.583	14518
915.696	14545
915.809	14552
915.921	14739
916.034	14495
916.146	14431
916.259	14377
916.371	14511
916.483	14507
916.595	14358
916.708	14328
916.82	14400
916.932	14237
917.044	14381
917.156	14286
917.268	14168
917.38	14161
917.491	14214
917.603	14187
917.715	14313
917.826	14229
917.938	14168
918.049	14142
918.161	14039
918.272	14278
918.384	14332
918.495	14100
918.606	14001
918.717	13986
918.828	14050
918.939	14016
919.05	13879
919.161	13852
919.272	13734
919.383	13864
919.494	14024
919.604	14062
919.715	13970
919.826	13784
919.936	13978
920.047	14103
920.157	13890
920.267	14111
920.378	13928
920.488	13852
920.598	14111
920.708	14248
920.818	14054
920.928	14069
921.038	14164
921.148	14218
921.258	13955
921.368	13791
921.477	13647
921.587	13700
921.697	13521
921.806	13750
921.916	13563
922.025	13358
922.134	13350
922.244	13251
922.353	13403
922.462	13194
922.571	13152
922.68	12985
922.789	13012
922.898	12943
923.007	12958
923.116	13031
923.224	12973
923.333	13000
923.442	12825
923.55	12787
923.659	12840
923.767	12882
923.876	12783
923.984	12954
924.092	12757
924.201	12787
924.309	12741
924.417	12688
924.525	12692
924.633	12662
924.741	13556
924.849	12517
924.956	12669
925.064	12494
925.172	12410
925.279	12475
925.387	12422
925.494	12418
925.602	12589
925.709	12471
925.816	12342
925.924	12346
926.031	12441
926.138	12376
926.245	12445
926.352	12361
926.459	12464
926.566	12376
926.673	12350
926.779	12205
926.886	12129
926.993	12019
927.099	12110
927.206	12030
927.312	11984
927.419	12038
927.525	12007
927.631	12083
927.737	11866
927.843	11809
927.95	11688
928.056	11836
928.162	11882
928.267	11912
928.373	12486
928.479	11954
928.585	11699
928.69	11805
928.796	11863
928.901	11722
929.007	11566
929.112	11707
929.218	11642
929.323	11600
929.428	11505
929.533	11699
929.638	11600
929.743	11520
929.848	11566
929.953	11528
930.058	11383
930.163	11326
930.267	11391
930.372	11372
930.477	11280
930.581	11387
930.685	11250
930.79	11197
930.894	11121
930.998	11094
931.103	11265
931.207	10980
931.311	10820
931.415	10828
931.519	10561
931.623	10592
