Data from test_V78500241_686.txt Node
Date: Fri Mar 25 15:14:38 CST 2022
User: usil
Spectrometer: V785-0024
Trigger mode: 0
Integration Time (sec): 4.000000E-1
Scans to average: 1
Nonlinearity correction enabled: false
Boxcar width: 0
Storing dark spectrum: false
XAxis mode: Wavelengths
Number of Pixels in Spectrum: 1024
>>>>>Begin Spectral Data<<<<<
801.071	28139
801.214	28169
801.356	27934
801.499	28006
801.641	27644
801.783	27759
801.926	27914
802.068	27633
802.211	27591
802.353	27568
802.496	27473
802.638	27443
802.78	27325
802.923	27336
803.065	27260
803.208	27397
803.35	27427
803.492	27420
803.635	27534
803.777	27549
803.919	27644
804.061	27994
804.204	27686
804.346	27553
804.488	27496
804.63	27466
804.773	27367
804.915	27663
805.057	27618
805.199	27561
805.341	27679
805.483	27698
805.626	27671
805.768	27614
805.91	27606
806.052	27709
806.194	27835
806.336	27934
806.478	27766
806.62	27660
806.762	27934
806.904	28109
807.046	28181
807.188	28169
807.33	27949
807.472	28131
807.614	28086
807.756	28139
807.898	27861
808.04	27861
808.182	27911
808.324	28082
808.465	28044
808.607	28291
808.749	28401
808.891	28367
809.033	28618
809.174	28348
809.316	28284
809.458	28329
809.6	28417
809.741	28675
809.883	28607
810.025	28630
810.166	28618
810.308	28634
810.45	28748
810.591	28516
810.733	28557
810.875	28310
811.016	28291
811.158	28284
811.299	28497
811.441	28580
811.582	28344
811.724	28352
811.865	28344
812.007	28386
812.148	28459
812.29	28428
812.431	28413
812.573	28698
812.714	28965
812.855	28930
812.997	28976
813.138	29280
813.279	29086
813.421	28987
813.562	28968
813.703	28790
813.845	28599
813.986	28337
814.127	28143
814.268	28082
814.41	28086
814.551	28002
814.692	28238
814.833	28021
814.974	28093
815.115	28200
815.256	28029
815.397	27876
815.539	27838
815.68	27751
815.821	27797
815.962	27819
816.103	27857
816.244	27652
816.385	27823
816.526	27701
816.666	27603
816.807	27504
816.948	27458
817.089	27625
817.23	27412
817.371	27454
817.512	27355
817.653	27359
817.793	27405
817.934	27526
818.075	27458
818.216	27454
818.356	27302
818.497	27298
818.638	27146
818.778	27081
818.919	27096
819.06	27150
819.2	27329
819.341	27454
819.481	27408
819.622	27485
819.762	27648
819.903	27747
820.043	27652
820.184	27622
820.324	27580
820.465	27538
820.605	27561
820.746	27595
820.886	27226
821.026	27477
821.167	27583
821.307	27629
821.447	27412
821.588	27256
821.728	27306
821.868	27036
822.008	26853
822.149	26785
822.289	26883
822.429	26720
822.569	26587
822.709	26537
822.849	26465
822.99	26438
823.13	26214
823.27	26347
823.41	26244
823.55	26183
823.69	26210
823.83	26157
823.97	26286
824.11	26069
824.25	26008
824.389	26008
824.529	26027
824.669	26069
824.809	26164
824.949	26145
825.089	26096
825.228	26054
825.368	25780
825.508	25982
825.648	25970
825.787	26020
825.927	26035
826.067	25879
826.206	25879
826.346	25978
826.485	25959
826.625	25784
826.765	26065
826.904	25875
827.044	25753
827.183	25685
827.323	25453
827.462	25655
827.601	25582
827.741	25685
827.88	25575
828.02	25548
828.159	25499
828.298	25559
828.437	25662
828.577	25609
828.716	25613
828.855	25544
828.994	25434
829.134	25407
829.273	25449
829.412	25400
829.551	25209
829.69	25343
829.829	25244
829.968	25400
830.107	25377
830.246	25324
830.385	25327
830.524	25160
830.663	25274
830.802	24954
830.941	24989
831.08	24935
831.219	24947
831.357	24996
831.496	25152
831.635	24913
831.774	24844
831.913	24890
832.051	24722
832.19	24642
832.329	24795
832.467	24608
832.606	24467
832.744	24509
832.883	24623
833.022	24566
833.16	24456
833.299	24639
833.437	24703
833.576	24597
833.714	24768
833.852	24787
833.991	24798
834.129	24757
834.267	24814
834.406	24738
834.544	24783
834.682	24726
834.821	24601
834.959	24837
835.097	24684
835.235	24669
835.373	24608
835.511	24578
835.65	24509
835.788	24509
835.926	24262
836.064	24388
836.202	24315
836.34	24410
836.478	24650
836.615	24517
836.753	24498
836.891	24502
837.029	24414
837.167	24346
837.305	24433
837.443	24437
837.58	24361
837.718	24505
837.856	24391
837.993	24292
838.131	24384
838.269	24235
838.406	24140
838.544	24049
838.681	23878
838.819	24011
838.956	23836
839.094	23729
839.231	23958
839.369	23939
839.506	24152
839.643	24079
839.781	23904
839.918	23786
840.055	23745
840.193	23764
840.33	23661
840.467	23737
840.604	23843
840.742	23984
840.879	23573
841.016	23771
841.153	23551
841.29	23836
841.427	23649
841.564	23748
841.701	23604
841.838	23562
841.975	23589
842.112	23680
842.249	23452
842.385	23589
842.522	23665
842.659	23448
842.796	23417
842.933	23531
843.069	23368
843.206	23429
843.343	23444
843.479	23410
843.616	23512
843.752	23235
843.889	23265
844.025	23383
844.162	23181
844.298	23280
844.435	23189
844.571	23159
844.708	23246
844.844	23330
844.98	23322
845.117	23368
845.253	23216
845.389	23075
845.525	23098
845.661	23159
845.798	23121
845.934	23060
846.07	22930
846.206	23147
846.342	23117
846.478	22786
846.614	22660
846.75	22679
846.886	22634
847.022	22736
847.158	22641
847.294	22706
847.429	22767
847.565	22649
847.701	22915
847.837	22470
847.972	22417
848.108	22386
848.244	22508
848.379	22344
848.515	22166
848.65	22265
848.786	22287
848.921	22265
849.057	22363
849.192	22459
849.328	22333
849.463	22249
849.598	22192
849.734	22173
849.869	22124
850.004	21960
850.14	22006
850.275	21960
850.41	21983
850.545	22010
850.68	22029
850.815	22086
850.95	22055
851.085	22257
851.22	22150
851.355	22150
851.49	21911
851.625	21892
851.76	21941
851.895	21968
852.03	21907
852.165	21998
852.299	22070
852.434	22029
852.569	22173
852.703	21934
852.838	22158
852.973	22074
853.107	22044
853.242	22051
853.376	21953
853.511	21717
853.645	21827
853.78	21953
853.914	21953
854.048	21762
854.183	21827
854.317	21937
854.451	22063
854.585	21808
854.72	21785
854.854	21979
854.988	21816
855.122	21854
855.256	21793
855.39	21846
855.524	21934
855.658	21895
855.792	21808
855.926	21842
856.06	21892
856.194	21892
856.327	21850
856.461	21842
856.595	21793
856.729	21690
856.862	21892
856.996	21842
857.13	22002
857.263	21930
857.397	21842
857.53	21895
857.664	21774
857.797	21827
857.931	22032
858.064	21736
858.197	21937
858.331	21895
858.464	21823
858.597	21812
858.731	21724
858.864	21793
858.997	21808
859.13	21846
859.263	21793
859.396	21903
859.529	21857
859.662	21842
859.795	21717
859.928	21831
860.061	22021
860.194	22097
860.327	21884
860.46	21831
860.592	21854
860.725	22029
860.858	21994
860.99	21816
861.123	21793
861.256	21766
861.388	21793
861.521	22554
861.653	21622
861.786	21675
861.918	21591
862.05	21717
862.183	21755
862.315	21724
862.447	21941
862.58	21755
862.712	21507
862.844	21542
862.976	21641
863.108	21656
863.24	21892
863.372	21526
863.504	21553
863.636	21561
863.768	21641
863.9	21557
864.032	21428
864.164	21485
864.296	21473
864.428	21667
864.559	21545
864.691	21709
864.823	21538
864.954	21603
865.086	21481
865.217	21443
865.349	21348
865.48	21374
865.612	21428
865.743	21675
865.875	21431
866.006	21488
866.137	21408
866.269	21374
866.4	21412
866.531	21294
866.662	21298
866.793	21359
866.924	21329
867.055	21401
867.186	21287
867.317	21222
867.448	21222
867.579	21294
867.71	21367
867.841	21252
867.972	21317
868.103	21382
868.233	21321
868.364	21348
868.495	21462
868.625	21473
868.756	21663
868.886	21622
869.017	21553
869.147	21713
869.278	21614
869.408	21686
869.539	21637
869.669	21618
869.799	21747
869.929	21701
870.06	21637
870.19	21869
870.32	21903
870.45	22002
870.58	21941
870.71	22051
870.84	21987
870.97	21960
871.1	21968
871.23	22177
871.36	22211
871.489	22139
871.619	22299
871.749	22074
871.879	22215
872.008	22253
872.138	22169
872.267	22192
872.397	22192
872.526	22032
872.656	21937
872.785	22029
872.915	22284
873.044	22299
873.173	22200
873.303	22268
873.432	22272
873.561	22261
873.69	22147
873.819	22173
873.948	22287
874.077	22211
874.206	22211
874.335	22284
874.464	22291
874.593	22424
874.722	22341
874.851	22363
874.979	22508
875.108	22508
875.237	22299
875.365	22356
875.494	22443
875.623	22409
875.751	22390
875.88	22436
876.008	22500
876.136	22508
876.265	22786
876.393	22938
876.521	22805
876.65	22850
876.778	22793
876.906	22691
877.034	22687
877.162	22702
877.29	22763
877.418	22759
877.546	22797
877.674	22824
877.802	22809
877.93	22748
878.058	22748
878.185	22679
878.313	22767
878.441	22923
878.568	22519
878.696	22706
878.824	22812
878.951	22965
879.079	22896
879.206	23056
879.333	22965
879.461	22820
879.588	22892
879.715	22968
879.842	22911
879.97	22828
880.097	22538
880.224	22516
880.351	22557
880.478	22546
880.605	22538
880.732	22531
880.859	22839
880.986	22542
881.112	22618
881.239	22516
881.366	22318
881.493	22211
881.619	21960
881.746	22246
881.872	22181
881.999	22131
882.125	22101
882.252	22204
882.378	22017
882.505	22322
882.631	21975
882.757	21953
882.883	21846
883.01	21918
883.136	21857
883.262	21682
883.388	21759
883.514	21930
883.64	21838
883.766	21827
883.892	21713
884.018	21587
884.143	21785
884.269	21739
884.395	21576
884.52	21500
884.646	21526
884.772	21412
884.897	21382
885.023	21477
885.148	21644
885.274	21572
885.399	21469
885.524	21447
885.65	21549
885.775	21485
885.9	21488
886.025	21580
886.15	21515
886.275	21287
886.4	21447
886.525	21538
886.65	21428
886.775	21496
886.9	21583
887.025	21660
887.149	21466
887.274	21332
887.399	21332
887.523	21184
887.648	21226
887.773	21252
887.897	21260
888.021	21355
888.146	21283
888.27	21370
888.395	21351
888.519	21374
888.643	21348
888.767	21199
888.891	21070
889.015	20952
889.139	21047
889.263	21077
889.387	21146
889.511	21230
889.635	21135
889.759	20967
889.883	20918
890.006	20990
890.13	21203
890.254	20895
890.377	20929
890.501	20861
890.624	20830
890.748	20823
890.871	20781
890.995	20636
891.118	20518
891.241	20655
891.364	20659
891.488	20720
891.611	20556
891.734	20644
891.857	20564
891.98	20678
892.103	20507
892.226	20533
892.349	20545
892.471	20526
892.594	20431
892.717	20609
892.839	20644
892.962	20514
893.085	20457
893.207	20511
893.33	20389
893.452	20393
893.575	20560
893.697	20450
893.819	20571
893.941	20693
894.064	20678
894.186	20415
894.308	20492
894.43	20457
894.552	20651
894.674	20549
894.796	20492
894.918	20480
895.04	20427
895.161	20590
895.283	20545
895.405	20446
895.526	20393
895.648	20518
895.769	20450
895.891	20495
896.012	20522
896.134	20549
896.255	20442
896.376	20522
896.498	20457
896.619	20537
896.74	20480
896.861	20560
896.982	20708
897.103	20773
897.224	20838
897.345	20743
897.466	20708
897.587	20651
897.708	20838
897.828	20750
897.949	20598
898.07	20587
898.19	20663
898.311	20815
898.431	20530
898.552	20678
898.672	20697
898.792	20765
898.913	20598
899.033	20579
899.153	20613
899.273	20457
899.393	20450
899.513	20431
899.633	20434
899.753	20465
899.873	20415
899.993	20526
900.113	20301
900.232	20473
900.352	20400
900.472	20180
900.591	20168
900.711	20218
900.83	20096
900.95	20263
901.069	20229
901.189	20054
901.308	19997
901.427	19822
901.546	19811
901.665	19852
901.784	19776
901.904	19693
902.023	19544
902.141	19316
902.26	19343
902.379	19304
902.498	19263
902.617	19244
902.735	19327
902.854	19251
902.973	19270
903.091	18943
903.21	19065
903.328	18935
903.446	18886
903.565	18806
903.683	18741
903.801	18681
903.919	18726
904.038	18627
904.156	18597
904.274	18688
904.392	18578
904.51	18631
904.627	18513
904.745	18612
904.863	18517
904.981	18422
905.098	18155
905.216	18197
905.334	18167
905.451	18277
905.569	18083
905.686	18273
905.803	18117
905.921	18011
906.038	18045
906.155	18045
906.272	17923
906.389	17954
906.506	17767
906.623	17771
906.74	17760
906.857	17627
906.974	17710
907.091	17851
907.208	17828
907.324	17771
907.441	17646
907.557	17512
907.674	17471
907.79	17497
907.907	17345
908.023	17372
908.139	17482
908.256	17311
908.372	17376
908.488	17376
908.604	17178
908.72	17204
908.836	17121
908.952	17140
909.068	17181
909.184	17242
909.3	17079
909.415	17094
909.531	17273
909.647	16877
909.762	16877
909.878	16889
909.993	16915
910.108	16904
910.224	16812
910.339	16850
910.454	16660
910.57	16694
910.685	16660
910.8	16809
910.915	16805
911.03	16599
911.145	16596
911.259	16481
911.374	16436
911.489	16280
911.604	16428
911.718	16242
911.833	16185
911.947	16185
912.062	15968
912.176	16215
912.291	16166
912.405	16226
912.519	16291
912.633	16363
912.748	16181
912.862	16238
912.976	16112
913.09	16013
913.204	15869
913.318	16105
913.431	16086
913.545	15979
913.659	16150
913.772	16017
913.886	15873
914	15819
914.113	15861
914.226	15892
914.34	15911
914.453	15660
914.566	15823
914.68	15724
914.793	15652
914.906	15447
915.019	15389
915.132	15416
915.245	15336
915.358	15591
915.47	15485
915.583	15443
915.696	15435
915.809	15538
915.921	15545
916.034	15241
916.146	15275
916.259	15268
916.371	15370
916.483	15325
916.595	15298
916.708	15340
916.82	15173
916.932	15085
917.044	15089
917.156	15138
917.268	15077
917.38	15077
917.491	15051
917.603	14956
917.715	15032
917.826	15199
917.938	14971
918.049	14906
918.161	14899
918.272	15199
918.384	15135
918.495	14994
918.606	14864
918.717	14727
918.828	14750
918.939	14948
919.05	14724
919.161	14739
919.272	14545
919.383	14663
919.494	14777
919.604	14918
919.715	14724
919.826	14735
919.936	14788
920.047	14883
920.157	14781
920.267	15001
920.378	14830
920.488	14682
920.598	14880
920.708	15036
920.818	14887
920.928	14872
921.038	14990
921.148	14990
921.258	14693
921.368	14659
921.477	14446
921.587	14492
921.697	14427
921.806	14465
921.916	14366
922.025	14195
922.134	14073
922.244	14016
922.353	14176
922.462	13974
922.571	13849
922.68	13791
922.789	13715
922.898	13803
923.007	13723
923.116	13791
923.224	13784
923.333	13757
923.442	13628
923.55	13537
923.659	13567
923.767	13651
923.876	13624
923.984	13613
924.092	13518
924.201	13525
924.309	13499
924.417	13499
924.525	13472
924.633	13480
924.741	14168
924.849	13274
924.956	13297
925.064	13209
925.172	13114
925.279	13099
925.387	13164
925.494	13149
925.602	13236
925.709	13247
925.816	13137
925.924	13114
926.031	13198
926.138	13137
926.245	13065
926.352	13061
926.459	13076
926.566	13152
926.673	13061
926.779	12894
926.886	12954
926.993	12795
927.099	12798
927.206	12669
927.312	12688
927.419	12833
927.525	12730
927.631	12719
927.737	12593
927.843	12528
927.95	12353
928.056	12570
928.162	12589
928.267	12551
928.373	13179
928.479	12684
928.585	12376
928.69	12486
928.796	12566
928.901	12418
929.007	12270
929.112	12399
929.218	12441
929.323	12270
929.428	12292
929.533	12403
929.638	12133
929.743	12228
929.848	12273
929.953	12201
930.058	12076
930.163	11908
930.267	12015
930.372	12121
930.477	11927
930.581	12091
930.685	11999
930.79	11893
930.894	11836
930.998	11821
931.103	11912
931.207	11551
931.311	11520
931.415	11516
931.519	11143
931.623	11121
