Data from test_V78500241_3213.txt Node
Date: Fri Mar 25 15:32:13 CST 2022
User: usil
Spectrometer: V785-0024
Trigger mode: 0
Integration Time (sec): 4.000000E-1
Scans to average: 1
Nonlinearity correction enabled: false
Boxcar width: 0
Storing dark spectrum: false
XAxis mode: Wavelengths
Number of Pixels in Spectrum: 1024
>>>>>Begin Spectral Data<<<<<
801.071	27077
801.214	26918
801.356	26762
801.499	26701
801.641	26613
801.783	26552
801.926	26727
802.068	26530
802.211	26613
802.353	26606
802.496	26358
802.638	26244
802.78	26202
802.923	26221
803.065	26126
803.208	26145
803.35	26206
803.492	26278
803.635	26358
803.777	26111
803.919	26195
804.061	26724
804.204	26396
804.346	26305
804.488	26301
804.63	26275
804.773	26282
804.915	26408
805.057	26473
805.199	26347
805.341	26495
805.483	26526
805.626	26457
805.768	26408
805.91	26499
806.052	26461
806.194	26358
806.336	26640
806.478	26556
806.62	26541
806.762	26571
806.904	26648
807.046	27036
807.188	27013
807.33	26845
807.472	26971
807.614	26663
807.756	26902
807.898	26727
808.04	26682
808.182	26701
808.324	26781
808.465	26785
808.607	26906
808.749	27108
808.891	27142
809.033	27188
809.174	27165
809.316	27089
809.458	27176
809.6	27036
809.741	27370
809.883	27173
810.025	27397
810.166	27393
810.308	27310
810.45	27317
810.591	27214
810.733	27173
810.875	27028
811.016	26952
811.158	26853
811.299	27081
811.441	27199
811.582	27203
811.724	27081
811.865	27104
812.007	27013
812.148	26925
812.29	27123
812.431	27173
812.573	27420
812.714	27481
812.855	27523
812.997	27618
813.138	27625
813.279	27785
813.421	27595
813.562	27458
813.703	27310
813.845	27176
813.986	26918
814.127	26861
814.268	26777
814.41	26712
814.551	26667
814.692	26811
814.833	26625
814.974	26629
815.115	26788
815.256	26526
815.397	26564
815.539	26705
815.68	26629
815.821	26461
815.962	26541
816.103	26461
816.244	26218
816.385	26244
816.526	26263
816.666	26020
816.807	25917
816.948	25894
817.089	25959
817.23	25974
817.371	25849
817.512	25947
817.653	25928
817.793	25811
817.934	25860
818.075	25978
818.216	26103
818.356	25883
818.497	25868
818.638	25708
818.778	25567
818.919	25765
819.06	25750
819.2	25818
819.341	25955
819.481	25868
819.622	26145
819.762	26278
819.903	26180
820.043	26275
820.184	26092
820.324	26035
820.465	26195
820.605	25970
820.746	26035
820.886	25890
821.026	26035
821.167	25944
821.307	26092
821.447	25898
821.588	25765
821.728	25849
821.868	25544
822.008	25552
822.149	25502
822.289	25384
822.429	25168
822.569	25091
822.709	25198
822.849	24928
822.99	24890
823.13	24886
823.27	24871
823.41	24669
823.55	24661
823.69	24810
823.83	24658
823.97	24654
824.11	24654
824.25	24479
824.389	24639
824.529	24509
824.669	24551
824.809	24646
824.949	24646
825.089	24593
825.228	24578
825.368	24384
825.508	24437
825.648	24376
825.787	24384
825.927	24486
826.067	24456
826.206	24471
826.346	24509
826.485	24494
826.625	24456
826.765	24505
826.904	24399
827.044	24376
827.183	24281
827.323	24174
827.462	24247
827.601	24140
827.741	24053
827.88	24159
828.02	23961
828.159	24095
828.298	24136
828.437	24121
828.577	24091
828.716	24281
828.855	24117
828.994	23817
829.134	23920
829.273	23794
829.412	23904
829.551	23676
829.69	23756
829.829	23764
829.968	23931
830.107	23961
830.246	23840
830.385	23703
830.524	23745
830.663	23490
830.802	23577
830.941	23535
831.08	23379
831.219	23554
831.357	23474
831.496	23695
831.635	23395
831.774	23318
831.913	23425
832.051	23299
832.19	23193
832.329	23284
832.467	23223
832.606	23022
832.744	23117
832.883	23143
833.022	23231
833.16	23220
833.299	23071
833.437	23227
833.576	23174
833.714	23261
833.852	23197
833.991	23242
834.129	23334
834.267	23280
834.406	23242
834.544	23254
834.682	23193
834.821	23117
834.959	23421
835.097	23124
835.235	23216
835.373	23197
835.511	23178
835.65	23006
835.788	23075
835.926	23022
836.064	22885
836.202	22896
836.34	23083
836.478	23117
836.615	23029
836.753	23113
836.891	23143
837.029	23159
837.167	23094
837.305	23041
837.443	22968
837.58	22797
837.718	22923
837.856	22949
837.993	22908
838.131	22862
838.269	22831
838.406	22835
838.544	22782
838.681	22592
838.819	22656
838.956	22291
839.094	22371
839.231	22455
839.369	22607
839.506	22911
839.643	22721
839.781	22405
839.918	22306
840.055	22459
840.193	22348
840.33	22367
840.467	22325
840.604	22436
840.742	22599
840.879	22200
841.016	22219
841.153	22207
841.29	22466
841.427	22367
841.564	22299
841.701	22421
841.838	22242
841.975	22139
842.112	22238
842.249	22196
842.385	22154
842.522	22280
842.659	22086
842.796	22063
842.933	22143
843.069	22078
843.206	22143
843.343	22147
843.479	22109
843.616	22029
843.752	21816
843.889	21991
844.025	22067
844.162	21778
844.298	21960
844.435	21850
844.571	21876
844.708	21812
844.844	21888
844.98	21960
845.117	21918
845.253	21739
845.389	21743
845.525	21751
845.661	21667
845.798	21496
845.934	21698
846.07	21576
846.206	21530
846.342	21656
846.478	21595
846.614	21408
846.75	21454
846.886	21435
847.022	21332
847.158	21386
847.294	21233
847.429	21435
847.565	21348
847.701	21538
847.837	21032
847.972	20994
848.108	21211
848.244	21184
848.379	21058
848.515	20975
848.65	20941
848.786	20952
848.921	20994
849.057	21119
849.192	20933
849.328	21001
849.463	20971
849.598	20887
849.734	20868
849.869	20765
850.004	20655
850.14	20670
850.275	20743
850.41	20651
850.545	20609
850.68	20705
850.815	20674
850.95	20777
851.085	20788
851.22	20861
851.355	20678
851.49	20724
851.625	20613
851.76	20674
851.895	20556
852.03	20579
852.165	20788
852.299	20762
852.434	20804
852.569	20659
852.703	20762
852.838	20670
852.973	20800
853.107	20876
853.242	20606
853.376	20434
853.511	20476
853.645	20434
853.78	20629
853.914	20609
854.048	20495
854.183	20514
854.317	20571
854.451	20609
854.585	20670
854.72	20450
854.854	20640
854.988	20514
855.122	20484
855.256	20427
855.39	20419
855.524	20670
855.658	20693
855.792	20587
855.926	20469
856.06	20541
856.194	20667
856.327	20583
856.461	20473
856.595	20393
856.729	20507
856.862	20674
856.996	20545
857.13	20571
857.263	20602
857.397	20564
857.53	20552
857.664	20568
857.797	20602
857.931	20594
858.064	20598
858.197	20583
858.331	20438
858.464	20450
858.597	20298
858.731	20476
858.864	20499
858.997	20492
859.13	20446
859.263	20484
859.396	20594
859.529	20473
859.662	20480
859.795	20488
859.928	20590
860.061	20617
860.194	20655
860.327	20579
860.46	20587
860.592	20583
860.725	20731
860.858	20621
860.99	20522
861.123	20412
861.256	20431
861.388	20438
861.521	20975
861.653	20465
861.786	20290
861.918	20339
862.05	20488
862.183	20461
862.315	20434
862.447	20434
862.58	20488
862.712	20252
862.844	20244
862.976	20419
863.108	20252
863.24	20598
863.372	20168
863.504	20259
863.636	20298
863.768	20301
863.9	20259
864.032	20145
864.164	20180
864.296	20214
864.428	20317
864.559	20305
864.691	20275
864.823	20191
864.954	20206
865.086	20199
865.217	20145
865.349	20122
865.48	20081
865.612	20096
865.743	20278
865.875	20153
866.006	20195
866.137	20176
866.269	20168
866.4	19997
866.531	20119
866.662	19955
866.793	20100
866.924	20206
867.055	20130
867.186	20122
867.317	20142
867.448	19913
867.579	20012
867.71	19871
867.841	20054
867.972	20161
868.103	20252
868.233	20092
868.364	20081
868.495	20176
868.625	20324
868.756	20351
868.886	20282
869.017	20317
869.147	20370
869.278	20488
869.408	20298
869.539	20355
869.669	20313
869.799	20370
869.929	20457
870.06	20473
870.19	20636
870.32	20678
870.45	20697
870.58	20598
870.71	20868
870.84	20811
870.97	20651
871.1	20800
871.23	20963
871.36	20861
871.489	20891
871.619	20914
871.749	20956
871.879	21020
872.008	21005
872.138	20975
872.267	20872
872.397	20781
872.526	20758
872.656	20727
872.785	20765
872.915	21017
873.044	20838
873.173	21017
873.303	21058
873.432	21024
873.561	21123
873.69	20952
873.819	20967
873.948	21005
874.077	20929
874.206	21005
874.335	20910
874.464	21028
874.593	21142
874.722	21085
874.851	21313
874.979	21199
875.108	21180
875.237	21100
875.365	21055
875.494	21138
875.623	21298
875.751	21108
875.88	21363
876.008	21237
876.136	21374
876.265	21648
876.393	21762
876.521	21656
876.65	21694
876.778	21568
876.906	21610
877.034	21580
877.162	21603
877.29	21481
877.418	21595
877.546	21530
877.674	21428
877.802	21564
877.93	21507
878.058	21515
878.185	21504
878.313	21526
878.441	21492
878.568	21340
878.696	21500
878.824	21572
878.951	21686
879.079	21770
879.206	21816
879.333	21705
879.461	21610
879.588	21671
879.715	21694
879.842	21762
879.97	21667
880.097	21279
880.224	21412
880.351	21393
880.478	21469
880.605	21336
880.732	21370
880.859	21652
880.986	21389
881.112	21405
881.239	21222
881.366	21142
881.493	21123
881.619	20982
881.746	20971
881.872	20963
881.999	20986
882.125	20880
882.252	20887
882.378	21024
882.505	20986
882.631	20788
882.757	20697
882.883	20811
883.01	20587
883.136	20636
883.262	20590
883.388	20556
883.514	20705
883.64	20781
883.766	20629
883.892	20480
884.018	20533
884.143	20568
884.269	20686
884.395	20454
884.52	20259
884.646	20404
884.772	20313
884.897	20271
885.023	20305
885.148	20355
885.274	20381
885.399	20427
885.524	20271
885.65	20358
885.775	20309
885.9	20309
886.025	20389
886.15	20476
886.275	20278
886.4	20290
886.525	20343
886.65	20381
886.775	20145
886.9	20404
887.025	20499
887.149	20328
887.274	20073
887.399	20153
887.523	20115
887.648	20058
887.773	20031
887.897	20164
888.021	20183
888.146	20008
888.27	20157
888.395	20195
888.519	20149
888.643	20164
888.767	20225
888.891	19967
889.015	19963
889.139	19947
889.263	19944
889.387	19894
889.511	19986
889.635	20046
889.759	19959
889.883	19856
890.006	19921
890.13	19967
890.254	19784
890.377	19894
890.501	19696
890.624	19578
890.748	19708
890.871	19628
890.995	19548
891.118	19365
891.241	19480
891.364	19578
891.488	19628
891.611	19464
891.734	19506
891.857	19594
891.98	19377
892.103	19472
892.226	19472
892.349	19422
892.471	19301
892.594	19407
892.717	19441
892.839	19343
892.962	19358
893.085	19411
893.207	19472
893.33	19339
893.452	19407
893.575	19464
893.697	19400
893.819	19590
893.941	19537
894.064	19578
894.186	19297
894.308	19312
894.43	19426
894.552	19556
894.674	19422
894.796	19247
894.918	19407
895.04	19263
895.161	19384
895.283	19476
895.405	19453
895.526	19255
895.648	19396
895.769	19426
895.891	19453
896.012	19495
896.134	19415
896.255	19483
896.376	19434
896.498	19419
896.619	19350
896.74	19525
896.861	19472
896.982	19803
897.103	19875
897.224	19769
897.345	19578
897.466	19594
897.587	19639
897.708	19833
897.828	19765
897.949	19704
898.07	19502
898.19	19556
898.311	19658
898.431	19518
898.552	19662
898.672	19746
898.792	19799
898.913	19670
899.033	19571
899.153	19483
899.273	19339
899.393	19468
899.513	19480
899.633	19499
899.753	19521
899.873	19362
899.993	19403
900.113	19453
900.232	19388
900.352	19259
900.472	19297
900.591	19148
900.711	19308
900.83	19027
900.95	19289
901.069	19282
901.189	19107
901.308	18901
901.427	18745
901.546	18738
901.665	18719
901.784	18802
901.904	18555
902.023	18578
902.141	18445
902.26	18346
902.379	18448
902.498	18232
902.617	18266
902.735	18281
902.854	18323
902.973	18224
903.091	17996
903.21	18041
903.328	17908
903.446	17840
903.565	17733
903.683	17889
903.801	17733
903.919	17767
904.038	17786
904.156	17573
904.274	17608
904.392	17535
904.51	17551
904.627	17551
904.745	17615
904.863	17535
904.981	17376
905.098	17277
905.216	17269
905.334	17356
905.451	17254
905.569	17261
905.686	17204
905.803	17124
905.921	16968
906.038	17086
906.155	17143
906.272	16953
906.389	16961
906.506	16698
906.623	16809
906.74	16744
906.857	16618
906.974	16733
907.091	16786
907.208	16995
907.324	16881
907.441	16729
907.557	16421
907.674	16523
907.79	16394
907.907	16443
908.023	16500
908.139	16561
908.256	16573
908.372	16424
908.488	16394
908.604	16226
908.72	16219
908.836	16280
908.952	16181
909.068	16257
909.184	16337
909.3	16242
909.415	16230
909.531	16207
909.647	16006
909.762	15907
909.878	15960
909.993	15979
910.108	15922
910.224	15983
910.339	15865
910.454	15816
910.57	15720
910.685	15717
910.8	16017
910.915	15884
911.03	15781
911.145	15599
911.259	15549
911.374	15488
911.489	15439
911.604	15443
911.718	15306
911.833	15313
911.947	15317
912.062	15173
912.176	15256
912.291	15298
912.405	15325
912.519	15469
912.633	15420
912.748	15279
912.862	15192
912.976	15112
913.09	15013
913.204	15089
913.318	15119
913.431	15062
913.545	15272
913.659	15214
913.772	15093
913.886	15020
914	14921
914.113	15093
914.226	15165
914.34	15001
914.453	14686
914.566	14944
914.68	14800
914.793	14769
914.906	14644
915.019	14560
915.132	14442
915.245	14492
915.358	14549
915.47	14545
915.583	14667
915.696	14590
915.809	14549
915.921	14712
916.034	14446
916.146	14518
916.259	14415
916.371	14560
916.483	14457
916.595	14427
916.708	14423
916.82	14347
916.932	14393
917.044	14324
917.156	14412
917.268	14180
917.38	14168
917.491	14199
917.603	14298
917.715	14366
917.826	14286
917.938	14138
918.049	14100
918.161	14210
918.272	14389
918.384	14256
918.495	14218
918.606	14107
918.717	13890
918.828	14016
918.939	13997
919.05	13947
919.161	13868
919.272	13906
919.383	13852
919.494	13989
919.604	14100
919.715	13986
919.826	13868
919.936	13887
920.047	14126
920.157	14012
920.267	14168
920.378	13967
920.488	13917
920.598	14157
920.708	14233
920.818	14172
920.928	14168
921.038	14214
921.148	14180
921.258	13894
921.368	13852
921.477	13769
921.587	13620
921.697	13655
921.806	13655
921.916	13575
922.025	13438
922.134	13251
922.244	13358
922.353	13510
922.462	13354
922.571	13209
922.68	13053
922.789	13019
922.898	12993
923.007	12894
923.116	13072
923.224	12901
923.333	13031
923.442	12859
923.55	12890
923.659	12757
923.767	12894
923.876	12715
923.984	12852
924.092	12768
924.201	12810
924.309	12764
924.417	12692
924.525	12772
924.633	12662
924.741	13616
924.849	12506
924.956	12608
925.064	12475
925.172	12445
925.279	12410
925.387	12494
925.494	12479
925.602	12574
925.709	12517
925.816	12414
925.924	12399
926.031	12490
926.138	12441
926.245	12418
926.352	12330
926.459	12498
926.566	12456
926.673	12380
926.779	12254
926.886	12235
926.993	12117
927.099	11999
927.206	11980
927.312	12057
927.419	12102
927.525	12049
927.631	12121
927.737	12057
927.843	11923
927.95	11828
928.056	11851
928.162	11866
928.267	12022
928.373	12525
928.479	11897
928.585	11619
928.69	11783
928.796	11805
928.901	11786
929.007	11600
929.112	11775
929.218	11703
929.323	11665
929.428	11653
929.533	11760
929.638	11509
929.743	11577
929.848	11577
929.953	11573
930.058	11455
930.163	11273
930.267	11372
930.372	11452
930.477	11231
930.581	11543
930.685	11368
930.79	11181
930.894	11261
930.998	11208
931.103	11330
931.207	10965
931.311	10930
931.415	10908
931.519	10687
931.623	10535
