Data from test_V78500241_2981.txt Node
Date: Fri Mar 25 15:30:37 CST 2022
User: usil
Spectrometer: V785-0024
Trigger mode: 0
Integration Time (sec): 4.000000E-1
Scans to average: 1
Nonlinearity correction enabled: false
Boxcar width: 0
Storing dark spectrum: false
XAxis mode: Wavelengths
Number of Pixels in Spectrum: 1024
>>>>>Begin Spectral Data<<<<<
801.071	27096
801.214	27074
801.356	26967
801.499	26845
801.641	26743
801.783	26701
801.926	26815
802.068	26724
802.211	26705
802.353	26598
802.496	26450
802.638	26533
802.78	26446
802.923	26267
803.065	26229
803.208	26286
803.35	26400
803.492	26469
803.635	26602
803.777	26427
803.919	26556
804.061	26800
804.204	26629
804.346	26446
804.488	26537
804.63	26461
804.773	26469
804.915	26514
805.057	26613
805.199	26446
805.341	26537
805.483	26720
805.626	26609
805.768	26613
805.91	26587
806.052	26781
806.194	26613
806.336	26986
806.478	26545
806.62	26473
806.762	26918
806.904	26834
807.046	27116
807.188	27119
807.33	27058
807.472	27249
807.614	27009
807.756	26971
807.898	26804
808.04	26758
808.182	26895
808.324	26883
808.465	26990
808.607	27096
808.749	27294
808.891	27431
809.033	27332
809.174	27241
809.316	27199
809.458	27173
809.6	27150
809.741	27435
809.883	27389
810.025	27458
810.166	27431
810.308	27420
810.45	27450
810.591	27359
810.733	27283
810.875	27252
811.016	27245
811.158	27020
811.299	27458
811.441	27477
811.582	27325
811.724	27332
811.865	27245
812.007	27169
812.148	27306
812.29	27252
812.431	27393
812.573	27538
812.714	27538
812.855	27728
812.997	27770
813.138	27983
813.279	27842
813.421	27542
813.562	27701
813.703	27515
813.845	27526
813.986	27127
814.127	26899
814.268	26979
814.41	27005
814.551	26769
814.692	26975
814.833	26887
814.974	26868
815.115	26990
815.256	26663
815.397	26746
815.539	26758
815.68	26697
815.821	26556
815.962	26758
816.103	26541
816.244	26575
816.385	26400
816.526	26507
816.666	26305
816.807	26153
816.948	26275
817.089	26259
817.23	26214
817.371	26138
817.512	26096
817.653	26069
817.793	26225
817.934	26145
818.075	26088
818.216	26119
818.356	26119
818.497	25993
818.638	25936
818.778	25875
818.919	25921
819.06	25849
819.2	25986
819.341	26016
819.481	26107
819.622	26355
819.762	26431
819.903	26465
820.043	26393
820.184	26271
820.324	26282
820.465	26286
820.605	26244
820.746	26126
820.886	26012
821.026	26324
821.167	26149
821.307	26366
821.447	26267
821.588	25970
821.728	25966
821.868	25772
822.008	25616
822.149	25506
822.289	25620
822.429	25400
822.569	25274
822.709	25339
822.849	25118
822.99	25004
823.13	25129
823.27	24973
823.41	24901
823.55	24764
823.69	24939
823.83	24909
823.97	24890
824.11	24814
824.25	24700
824.389	24814
824.529	24829
824.669	24783
824.809	24875
824.949	24783
825.089	24905
825.228	24753
825.368	24722
825.508	24631
825.648	24719
825.787	24566
825.927	24654
826.067	24646
826.206	24612
826.346	24540
826.485	24525
826.625	24536
826.765	24772
826.904	24612
827.044	24532
827.183	24418
827.323	24289
827.462	24433
827.601	24205
827.741	24418
827.88	24403
828.02	24114
828.159	24239
828.298	24365
828.437	24448
828.577	24213
828.716	24498
828.855	24167
828.994	23885
829.134	23999
829.273	24041
829.412	24038
829.551	23920
829.69	24106
829.829	24091
829.968	24091
830.107	24026
830.246	23996
830.385	24007
830.524	23855
830.663	23843
830.802	23699
830.941	23695
831.08	23634
831.219	23608
831.357	23691
831.496	23851
831.635	23649
831.774	23528
831.913	23531
832.051	23478
832.19	23318
832.329	23501
832.467	23231
832.606	23208
832.744	23242
832.883	23235
833.022	23235
833.16	23341
833.299	23284
833.437	23277
833.576	23448
833.714	23417
833.852	23436
833.991	23455
834.129	23429
834.267	23395
834.406	23425
834.544	23353
834.682	23277
834.821	23246
834.959	23490
835.097	23231
835.235	23376
835.373	23334
835.511	23402
835.65	23250
835.788	23239
835.926	23029
836.064	23014
836.202	23090
836.34	23220
836.478	23208
836.615	23143
836.753	23288
836.891	23303
837.029	23060
837.167	23151
837.305	23109
837.443	23105
837.58	23010
837.718	23052
837.856	23006
837.993	23003
838.131	23064
838.269	22984
838.406	22953
838.544	22881
838.681	22850
838.819	22668
838.956	22489
839.094	22596
839.231	22538
839.369	22850
839.506	22919
839.643	22831
839.781	22424
839.918	22424
840.055	22440
840.193	22554
840.33	22451
840.467	22424
840.604	22451
840.742	22748
840.879	22424
841.016	22451
841.153	22352
841.29	22474
841.427	22360
841.564	22386
841.701	22550
841.838	22299
841.975	22306
842.112	22474
842.249	22432
842.385	22215
842.522	22489
842.659	22249
842.796	22200
842.933	22166
843.069	22162
843.206	22101
843.343	22234
843.479	22154
843.616	22268
843.752	21949
843.889	21953
844.025	22242
844.162	21953
844.298	22078
844.435	21987
844.571	21846
844.708	22013
844.844	22200
844.98	22124
845.117	22097
845.253	21888
845.389	21812
845.525	21892
845.661	21808
845.798	21755
845.934	21800
846.07	21671
846.206	21732
846.342	21831
846.478	21717
846.614	21450
846.75	21412
846.886	21389
847.022	21523
847.158	21466
847.294	21450
847.429	21572
847.565	21431
847.701	21561
847.837	21203
847.972	21119
848.108	21302
848.244	21351
848.379	21085
848.515	21001
848.65	20944
848.786	20975
848.921	20979
849.057	21192
849.192	21081
849.328	21089
849.463	21085
849.598	21028
849.734	20933
849.869	20960
850.004	20746
850.14	20868
850.275	20823
850.41	20716
850.545	20765
850.68	20800
850.815	20754
850.95	20777
851.085	20963
851.22	20883
851.355	20750
851.49	20762
851.625	20762
851.76	20731
851.895	20872
852.03	20712
852.165	20746
852.299	20921
852.434	20895
852.569	20853
852.703	20861
852.838	20819
852.973	20998
853.107	20830
853.242	20750
853.376	20629
853.511	20537
853.645	20678
853.78	20731
853.914	20609
854.048	20575
854.183	20488
854.317	20587
854.451	20842
854.585	20705
854.72	20564
854.854	20602
854.988	20594
855.122	20526
855.256	20488
855.39	20636
855.524	20659
855.658	20575
855.792	20632
855.926	20746
856.06	20670
856.194	20686
856.327	20769
856.461	20514
856.595	20587
856.729	20678
856.862	20697
856.996	20727
857.13	20724
857.263	20720
857.397	20689
857.53	20640
857.664	20777
857.797	20651
857.931	20746
858.064	20686
858.197	20746
858.331	20526
858.464	20598
858.597	20366
858.731	20644
858.864	20594
858.997	20701
859.13	20655
859.263	20625
859.396	20724
859.529	20621
859.662	20408
859.795	20571
859.928	20727
860.061	20788
860.194	20933
860.327	20629
860.46	20625
860.592	20735
860.725	20750
860.858	20727
860.99	20667
861.123	20434
861.256	20552
861.388	20659
861.521	21119
861.653	20476
861.786	20427
861.918	20457
862.05	20514
862.183	20590
862.315	20587
862.447	20606
862.58	20423
862.712	20309
862.844	20400
862.976	20412
863.108	20434
863.24	20792
863.372	20267
863.504	20328
863.636	20282
863.768	20218
863.9	20336
864.032	20164
864.164	20256
864.296	20438
864.428	20358
864.559	20404
864.691	20423
864.823	20256
864.954	20320
865.086	20256
865.217	20218
865.349	20180
865.48	20324
865.612	20248
865.743	20244
865.875	20358
866.006	20122
866.137	20233
866.269	20301
866.4	20161
866.531	20202
866.662	20252
866.793	20115
866.924	20248
867.055	20191
867.186	20282
867.317	20130
867.448	20130
867.579	20149
867.71	20119
867.841	20077
867.972	20050
868.103	20050
868.233	20119
868.364	20233
868.495	20229
868.625	20393
868.756	20545
868.886	20305
869.017	20381
869.147	20552
869.278	20457
869.408	20374
869.539	20465
869.669	20408
869.799	20370
869.929	20488
870.06	20530
870.19	20727
870.32	20670
870.45	20785
870.58	20773
870.71	20838
870.84	20902
870.97	20849
871.1	20891
871.23	20975
871.36	21013
871.489	20952
871.619	21043
871.749	21047
871.879	21024
872.008	21302
872.138	20994
872.267	20914
872.397	20819
872.526	20960
872.656	20834
872.785	20785
872.915	21039
873.044	21077
873.173	20971
873.303	20975
873.432	21055
873.561	21116
873.69	20975
873.819	20899
873.948	21138
874.077	21066
874.206	21089
874.335	20986
874.464	21207
874.593	21249
874.722	21142
874.851	21218
874.979	21310
875.108	21302
875.237	21192
875.365	21275
875.494	21275
875.623	21325
875.751	21256
875.88	21294
876.008	21389
876.136	21378
876.265	21732
876.393	21842
876.521	21713
876.65	21812
876.778	21770
876.906	21507
877.034	21682
877.162	21736
877.29	21633
877.418	21713
877.546	21644
877.674	21610
877.802	21637
877.93	21652
878.058	21606
878.185	21519
878.313	21534
878.441	21557
878.568	21408
878.696	21587
878.824	21728
878.951	21652
879.079	21907
879.206	21911
879.333	21816
879.461	21644
879.588	21667
879.715	21759
879.842	21861
879.97	21690
880.097	21538
880.224	21492
880.351	21644
880.478	21500
880.605	21511
880.732	21370
880.859	21549
880.986	21382
881.112	21443
881.239	21321
881.366	21249
881.493	21108
881.619	21062
881.746	21150
881.872	20971
881.999	20944
882.125	20944
882.252	21169
882.378	21017
882.505	21135
882.631	20967
882.757	20739
882.883	20796
883.01	20781
883.136	20754
883.262	20594
883.388	20632
883.514	20686
883.64	20842
883.766	20689
883.892	20465
884.018	20549
884.143	20792
884.269	20819
884.395	20473
884.52	20385
884.646	20438
884.772	20259
884.897	20305
885.023	20450
885.148	20518
885.274	20454
885.399	20476
885.524	20377
885.65	20419
885.775	20446
885.9	20446
886.025	20571
886.15	20389
886.275	20313
886.4	20214
886.525	20408
886.65	20225
886.775	20355
886.9	20495
887.025	20579
887.149	20457
887.274	20149
887.399	20183
887.523	20271
887.648	20187
887.773	19993
887.897	20187
888.021	20145
888.146	20096
888.27	20229
888.395	20286
888.519	20157
888.643	20271
888.767	20202
888.891	20122
889.015	19913
889.139	20020
889.263	19959
889.387	20058
889.511	20065
889.635	20001
889.759	19887
889.883	20058
890.006	19959
890.13	20145
890.254	19940
890.377	19879
890.501	19727
890.624	19696
890.748	19845
890.871	19685
890.995	19590
891.118	19506
891.241	19628
891.364	19548
891.488	19662
891.611	19571
891.734	19445
891.857	19628
891.98	19483
892.103	19613
892.226	19518
892.349	19590
892.471	19373
892.594	19438
892.717	19396
892.839	19445
892.962	19537
893.085	19434
893.207	19392
893.33	19487
893.452	19499
893.575	19502
893.697	19373
893.819	19586
893.941	19643
894.064	19639
894.186	19460
894.308	19472
894.43	19529
894.552	19685
894.674	19605
894.796	19388
894.918	19472
895.04	19426
895.161	19472
895.283	19480
895.405	19472
895.526	19499
895.648	19502
895.769	19434
895.891	19518
896.012	19609
896.134	19533
896.255	19438
896.376	19544
896.498	19529
896.619	19521
896.74	19392
896.861	19464
896.982	19788
897.103	20020
897.224	19757
897.345	19731
897.466	19624
897.587	19715
897.708	19875
897.828	19811
897.949	19772
898.07	19609
898.19	19769
898.311	19845
898.431	19693
898.552	19742
898.672	19811
898.792	19761
898.913	19807
899.033	19552
899.153	19476
899.273	19403
899.393	19438
899.513	19491
899.633	19525
899.753	19499
899.873	19362
899.993	19521
900.113	19487
900.232	19563
900.352	19457
900.472	19350
900.591	19282
900.711	19266
900.83	19232
900.95	19472
901.069	19316
901.189	19278
901.308	18939
901.427	18810
901.546	18867
901.665	18905
901.784	18852
901.904	18802
902.023	18635
902.141	18372
902.26	18426
902.379	18452
902.498	18399
902.617	18338
902.735	18441
902.854	18361
902.973	18285
903.091	18064
903.21	18106
903.328	18087
903.446	18015
903.565	17942
903.683	17874
903.801	17752
903.919	17809
904.038	17824
904.156	17661
904.274	17630
904.392	17676
904.51	17638
904.627	17577
904.745	17699
904.863	17665
904.981	17414
905.098	17368
905.216	17440
905.334	17337
905.451	17277
905.569	17235
905.686	17414
905.803	17296
905.921	17071
906.038	17200
906.155	17075
906.272	17048
906.389	17010
906.506	16790
906.623	16816
906.74	16885
906.857	16744
906.974	16824
907.091	16930
907.208	16968
907.324	16892
907.441	16717
907.557	16679
907.674	16569
907.79	16409
907.907	16466
908.023	16542
908.139	16577
908.256	16550
908.372	16519
908.488	16478
908.604	16341
908.72	16295
908.836	16440
908.952	16246
909.068	16242
909.184	16409
909.3	16360
909.415	16337
909.531	16284
909.647	15991
909.762	16055
909.878	15960
909.993	16086
910.108	15994
910.224	15937
910.339	16002
910.454	15899
910.57	15827
910.685	15781
910.8	16032
910.915	15975
911.03	15812
911.145	15679
911.259	15519
911.374	15671
911.489	15591
911.604	15564
911.718	15405
911.833	15420
911.947	15287
912.062	15241
912.176	15382
912.291	15420
912.405	15481
912.519	15511
912.633	15496
912.748	15431
912.862	15302
912.976	15222
913.09	15070
913.204	15112
913.318	15252
913.431	15310
913.545	15241
913.659	15214
913.772	15142
913.886	15077
914	14998
914.113	15112
914.226	15104
914.34	15112
914.453	14891
914.566	14986
914.68	14895
914.793	14834
914.906	14659
915.019	14598
915.132	14549
915.245	14705
915.358	14560
915.47	14602
915.583	14541
915.696	14621
915.809	14762
915.921	14689
916.034	14575
916.146	14488
916.259	14533
916.371	14606
916.483	14571
916.595	14552
916.708	14488
916.82	14377
916.932	14412
917.044	14389
917.156	14469
917.268	14324
917.38	14282
917.491	14256
917.603	14282
917.715	14408
917.826	14381
917.938	14275
918.049	14176
918.161	14176
918.272	14450
918.384	14396
918.495	14259
918.606	14073
918.717	14020
918.828	14024
918.939	14134
919.05	13917
919.161	14012
919.272	13803
919.383	13860
919.494	14005
919.604	14161
919.715	14020
919.826	13917
919.936	13970
920.047	14142
920.157	14043
920.267	14183
920.378	14008
920.488	13890
920.598	14126
920.708	14324
920.818	14153
920.928	14164
921.038	14336
921.148	14336
921.258	14027
921.368	13833
921.477	13841
921.587	13769
921.697	13590
921.806	13807
921.916	13624
922.025	13422
922.134	13533
922.244	13441
922.353	13411
922.462	13327
922.571	13221
922.68	13046
922.789	13133
922.898	13072
923.007	13031
923.116	13179
923.224	13061
923.333	13053
923.442	12947
923.55	12897
923.659	12928
923.767	12935
923.876	12886
923.984	12859
924.092	12734
924.201	12856
924.309	12848
924.417	12833
924.525	12840
924.633	12757
924.741	13597
924.849	12585
924.956	12688
925.064	12460
925.172	12422
925.279	12582
925.387	12532
925.494	12566
925.602	12635
925.709	12506
925.816	12471
925.924	12445
926.031	12509
926.138	12544
926.245	12551
926.352	12357
926.459	12448
926.566	12540
926.673	12342
926.779	12327
926.886	12205
926.993	12182
927.099	12171
927.206	12041
927.312	12034
927.419	12148
927.525	12041
927.631	12060
927.737	12060
927.843	12011
927.95	11874
928.056	11897
928.162	11977
928.267	11912
928.373	12536
928.479	11973
928.585	11802
928.69	11916
928.796	11946
928.901	11771
929.007	11604
929.112	11843
929.218	11748
929.323	11737
929.428	11608
929.533	11817
929.638	11547
929.743	11566
929.848	11630
929.953	11638
930.058	11532
930.163	11269
930.267	11353
930.372	11520
930.477	11318
930.581	11566
930.685	11345
930.79	11231
930.894	11250
930.998	11265
931.103	11356
931.207	11006
931.311	10892
931.415	10858
931.519	10641
931.623	10774
