Data from test_V78500241_3567.txt Node
Date: Fri Mar 25 15:34:41 CST 2022
User: usil
Spectrometer: V785-0024
Trigger mode: 0
Integration Time (sec): 4.000000E-1
Scans to average: 1
Nonlinearity correction enabled: false
Boxcar width: 0
Storing dark spectrum: false
XAxis mode: Wavelengths
Number of Pixels in Spectrum: 1024
>>>>>Begin Spectral Data<<<<<
801.071	27313
801.214	27241
801.356	27093
801.499	27039
801.641	26777
801.783	27017
801.926	26819
802.068	26864
802.211	26883
802.353	26746
802.496	26621
802.638	26480
802.78	26564
802.923	26358
803.065	26400
803.208	26514
803.35	26453
803.492	26480
803.635	26625
803.777	26579
803.919	26644
804.061	26971
804.204	26590
804.346	26564
804.488	26514
804.63	26606
804.773	26495
804.915	26667
805.057	26693
805.199	26590
805.341	26815
805.483	26640
805.626	26727
805.768	26613
805.91	26765
806.052	26796
806.194	26667
806.336	26994
806.478	26788
806.62	26743
806.762	26849
806.904	26990
807.046	27222
807.188	27058
807.33	27241
807.472	27214
807.614	27047
807.756	27108
807.898	27024
808.04	26975
808.182	26899
808.324	26929
808.465	26971
808.607	27283
808.749	27355
808.891	27523
809.033	27686
809.174	27363
809.316	27370
809.458	27386
809.6	27218
809.741	27485
809.883	27553
810.025	27663
810.166	27751
810.308	27610
810.45	27568
810.591	27511
810.733	27401
810.875	27325
811.016	27142
811.158	27173
811.299	27439
811.441	27530
811.582	27553
811.724	27488
811.865	27260
812.007	27378
812.148	27504
812.29	27310
812.431	27557
812.573	27652
812.714	27713
812.855	27789
812.997	27812
813.138	27998
813.279	27903
813.421	27812
813.562	27797
813.703	27781
813.845	27545
813.986	27336
814.127	27081
814.268	27024
814.41	27081
814.551	26944
814.692	27047
814.833	27005
814.974	27081
815.115	27085
815.256	26971
815.397	26842
815.539	27020
815.68	26834
815.821	26788
815.962	26819
816.103	26826
816.244	26708
816.385	26556
816.526	26480
816.666	26381
816.807	26248
816.948	26393
817.089	26453
817.23	26301
817.371	26324
817.512	26313
817.653	26366
817.793	26187
817.934	26419
818.075	26191
818.216	26332
818.356	26282
818.497	26126
818.638	25955
818.778	26001
818.919	26149
819.06	26111
819.2	26138
819.341	26168
819.481	26328
819.622	26396
819.762	26556
819.903	26541
820.043	26511
820.184	26434
820.324	26419
820.465	26465
820.605	26469
820.746	26343
820.886	26240
821.026	26183
821.167	26358
821.307	26431
821.447	26267
821.588	26210
821.728	26126
821.868	25898
822.008	25856
822.149	25693
822.289	25780
822.429	25632
822.569	25457
822.709	25384
822.849	25221
822.99	25320
823.13	25213
823.27	25156
823.41	25042
823.55	24886
823.69	25122
823.83	25107
823.97	25034
824.11	24856
824.25	24848
824.389	24795
824.529	24943
824.669	24920
824.809	24992
824.949	24939
825.089	25000
825.228	24913
825.368	24753
825.508	24753
825.648	24715
825.787	24852
825.927	24776
826.067	24688
826.206	24768
826.346	24821
826.485	24779
826.625	24772
826.765	24859
826.904	24795
827.044	24700
827.183	24407
827.323	24509
827.462	24505
827.601	24616
827.741	24437
827.88	24616
828.02	24475
828.159	24407
828.298	24452
828.437	24570
828.577	24456
828.716	24589
828.855	24300
828.994	24106
829.134	24194
829.273	24273
829.412	24114
829.551	24148
829.69	24106
829.829	24186
829.968	24224
830.107	24243
830.246	24163
830.385	24186
830.524	24068
830.663	23958
830.802	23813
830.941	23840
831.08	23752
831.219	23889
831.357	23916
831.496	23916
831.635	23779
831.774	23558
831.913	23642
832.051	23630
832.19	23486
832.329	23684
832.467	23410
832.606	23398
832.744	23509
832.883	23467
833.022	23512
833.16	23509
833.299	23539
833.437	23490
833.576	23638
833.714	23505
833.852	23630
833.991	23585
834.129	23649
834.267	23729
834.406	23627
834.544	23577
834.682	23653
834.821	23566
834.959	23737
835.097	23490
835.235	23596
835.373	23516
835.511	23497
835.65	23330
835.788	23391
835.926	23280
836.064	23155
836.202	23208
836.34	23376
836.478	23509
836.615	23429
836.753	23520
836.891	23360
837.029	23444
837.167	23505
837.305	23303
837.443	23246
837.58	23185
837.718	23269
837.856	23204
837.993	23121
838.131	23140
838.269	23083
838.406	23132
838.544	23121
838.681	22854
838.819	22904
838.956	22664
839.094	22626
839.231	22835
839.369	22828
839.506	23098
839.643	22942
839.781	22577
839.918	22740
840.055	22656
840.193	22683
840.33	22588
840.467	22767
840.604	22679
840.742	22862
840.879	22489
841.016	22683
841.153	22512
841.29	22752
841.427	22664
841.564	22599
841.701	22660
841.838	22618
841.975	22516
842.112	22634
842.249	22538
842.385	22443
842.522	22717
842.659	22588
842.796	22493
842.933	22356
843.069	22348
843.206	22398
843.343	22455
843.479	22618
843.616	22360
843.752	22230
843.889	22196
844.025	22405
844.162	22242
844.298	22272
844.435	22249
844.571	22299
844.708	22310
844.844	22379
844.98	22337
845.117	22249
845.253	22128
845.389	22086
845.525	22059
845.661	22070
845.798	21964
845.934	21949
846.07	21857
846.206	21972
846.342	21907
846.478	21972
846.614	21762
846.75	21523
846.886	21682
847.022	21812
847.158	21747
847.294	21854
847.429	21690
847.565	21717
847.701	21869
847.837	21378
847.972	21348
848.108	21447
848.244	21401
848.379	21317
848.515	21260
848.65	21344
848.786	21325
848.921	21332
849.057	21344
849.192	21332
849.328	21302
849.463	21313
849.598	21241
849.734	21245
849.869	21169
850.004	21096
850.14	21146
850.275	21039
850.41	20910
850.545	20918
850.68	20956
850.815	21077
850.95	20952
851.085	21245
851.22	21138
851.355	21066
851.49	21077
851.625	21077
851.76	21028
851.895	20979
852.03	20944
852.165	21051
852.299	21047
852.434	21058
852.569	21062
852.703	20902
852.838	21146
852.973	21138
853.107	21138
853.242	21028
853.376	20853
853.511	20781
853.645	20868
853.78	21009
853.914	20963
854.048	20944
854.183	20929
854.317	20902
854.451	21036
854.585	20902
854.72	20883
854.854	20880
854.988	20815
855.122	20811
855.256	20781
855.39	20842
855.524	20895
855.658	20830
855.792	20853
855.926	20864
856.06	20842
856.194	20941
856.327	20883
856.461	20758
856.595	20868
856.729	20857
856.862	20918
856.996	20868
857.13	20979
857.263	21013
857.397	20956
857.53	20739
857.664	20773
857.797	20944
857.931	20842
858.064	20769
858.197	20933
858.331	20853
858.464	20918
858.597	20830
858.731	20963
858.864	20819
858.997	20864
859.13	20895
859.263	20826
859.396	21013
859.529	20800
859.662	20819
859.795	20883
859.928	20842
860.061	21028
860.194	21036
860.327	20887
860.46	20872
860.592	20952
860.725	20880
860.858	21024
860.99	20906
861.123	20853
861.256	20773
861.388	20868
861.521	21671
861.653	20689
861.786	20659
861.918	20659
862.05	20720
862.183	20765
862.315	20830
862.447	20921
862.58	20716
862.712	20598
862.844	20587
862.976	20800
863.108	20651
863.24	20944
863.372	20522
863.504	20587
863.636	20522
863.768	20526
863.9	20682
864.032	20530
864.164	20450
864.296	20556
864.428	20830
864.559	20727
864.691	20583
864.823	20640
864.954	20667
865.086	20552
865.217	20526
865.349	20503
865.48	20495
865.612	20560
865.743	20727
865.875	20533
866.006	20377
866.137	20526
866.269	20476
866.4	20381
866.531	20442
866.662	20423
866.793	20362
866.924	20377
867.055	20377
867.186	20389
867.317	20476
867.448	20393
867.579	20434
867.71	20339
867.841	20355
867.972	20358
868.103	20457
868.233	20579
868.364	20370
868.495	20492
868.625	20727
868.756	20800
868.886	20575
869.017	20625
869.147	20750
869.278	20872
869.408	20788
869.539	20625
869.669	20708
869.799	20743
869.929	20769
870.06	20792
870.19	20861
870.32	21062
870.45	21051
870.58	21085
870.71	21226
870.84	21203
870.97	20979
871.1	20998
871.23	21252
871.36	21245
871.489	21150
871.619	21249
871.749	21214
871.879	21370
872.008	21397
872.138	21192
872.267	21378
872.397	21154
872.526	21116
872.656	21249
872.785	21176
872.915	21355
873.044	21260
873.173	21363
873.303	21348
873.432	21374
873.561	21458
873.69	21370
873.819	21340
873.948	21348
874.077	21348
874.206	21348
874.335	21268
874.464	21310
874.593	21618
874.722	21530
874.851	21523
874.979	21542
875.108	21591
875.237	21591
875.365	21561
875.494	21583
875.623	21603
875.751	21507
875.88	21751
876.008	21679
876.136	21846
876.265	21953
876.393	22032
876.521	22093
876.65	22093
876.778	21918
876.906	21960
877.034	21941
877.162	22010
877.29	21903
877.418	22040
877.546	21953
877.674	21934
877.802	22044
877.93	21861
878.058	22029
878.185	21850
878.313	21876
878.441	21934
878.568	21751
878.696	21861
878.824	21934
878.951	21983
879.079	22029
879.206	22230
879.333	22086
879.461	22025
879.588	22006
879.715	22150
879.842	22226
879.97	21987
880.097	21861
880.224	21656
880.351	21717
880.478	21736
880.605	21747
880.732	21641
880.859	21949
880.986	21865
881.112	21838
881.239	21641
881.366	21568
881.493	21367
881.619	21317
881.746	21344
881.872	21363
881.999	21241
882.125	21272
882.252	21329
882.378	21214
882.505	21275
882.631	21146
882.757	20971
882.883	21077
883.01	20952
883.136	21096
883.262	20979
883.388	20838
883.514	21135
883.64	21043
883.766	20887
883.892	20823
884.018	20746
884.143	21051
884.269	21131
884.395	20765
884.52	20648
884.646	20613
884.772	20564
884.897	20503
885.023	20667
885.148	20743
885.274	20765
885.399	20853
885.524	20568
885.65	20735
885.775	20785
885.9	20701
886.025	20796
886.15	20762
886.275	20644
886.4	20552
886.525	20716
886.65	20549
886.775	20594
886.9	20765
887.025	20963
887.149	20667
887.274	20495
887.399	20541
887.523	20514
887.648	20400
887.773	20377
887.897	20469
888.021	20427
888.146	20400
888.27	20503
888.395	20473
888.519	20450
888.643	20473
888.767	20431
888.891	20362
889.015	20202
889.139	20324
889.263	20210
889.387	20351
889.511	20484
889.635	20457
889.759	20248
889.883	20210
890.006	20271
890.13	20294
890.254	20138
890.377	20153
890.501	20005
890.624	19822
890.748	19974
890.871	20012
890.995	19879
891.118	19795
891.241	19818
891.364	19837
891.488	19993
891.611	19784
891.734	19894
891.857	19860
891.98	19803
892.103	19868
892.226	19940
892.349	19830
892.471	19639
892.594	19647
892.717	19818
892.839	19700
892.962	19753
893.085	19822
893.207	19685
893.33	19670
893.452	19639
893.575	19807
893.697	19693
893.819	19894
893.941	19982
894.064	19928
894.186	19712
894.308	19643
894.43	19788
894.552	19894
894.674	19807
894.796	19639
894.918	19738
895.04	19594
895.161	19883
895.283	19769
895.405	19696
895.526	19704
895.648	19795
895.769	19799
895.891	19723
896.012	19704
896.134	19753
896.255	19727
896.376	19746
896.498	19769
896.619	19761
896.74	19708
896.861	19712
896.982	20058
897.103	20248
897.224	20092
897.345	19963
897.466	19860
897.587	19913
897.708	20111
897.828	20119
897.949	19890
898.07	19734
898.19	19837
898.311	20012
898.431	19940
898.552	19890
898.672	19997
898.792	19982
898.913	19921
899.033	19887
899.153	19913
899.273	19742
899.393	19803
899.513	19761
899.633	19715
899.753	19784
899.873	19674
899.993	19723
900.113	19613
900.232	19647
900.352	19616
900.472	19525
900.591	19480
900.711	19533
900.83	19396
900.95	19571
901.069	19575
901.189	19434
901.308	19126
901.427	19213
901.546	19076
901.665	19080
901.784	19103
901.904	18962
902.023	18848
902.141	18669
902.26	18578
902.379	18734
902.498	18639
902.617	18623
902.735	18506
902.854	18559
902.973	18540
903.091	18300
903.21	18323
903.328	18289
903.446	18133
903.565	18136
903.683	18057
903.801	18003
903.919	17973
904.038	17965
904.156	17790
904.274	17980
904.392	17946
904.51	17870
904.627	17885
904.745	17851
904.863	17817
904.981	17710
905.098	17505
905.216	17535
905.334	17554
905.451	17520
905.569	17478
905.686	17570
905.803	17532
905.921	17341
906.038	17395
906.155	17414
906.272	17242
906.389	17235
906.506	17033
906.623	17105
906.74	17109
906.857	16915
906.974	17014
907.091	17151
907.208	17117
907.324	17174
907.441	16984
907.557	16809
907.674	16809
907.79	16630
907.907	16854
908.023	16805
908.139	16885
908.256	16790
908.372	16630
908.488	16698
908.604	16626
908.72	16504
908.836	16641
908.952	16565
909.068	16558
909.184	16618
909.3	16554
909.415	16580
909.531	16436
909.647	16291
909.762	16226
909.878	16200
909.993	16223
910.108	16147
910.224	16223
910.339	16124
910.454	16082
910.57	16101
910.685	15892
910.8	16185
910.915	16150
911.03	15941
911.145	15812
911.259	15876
911.374	15842
911.489	15724
911.604	15675
911.718	15534
911.833	15603
911.947	15545
912.062	15504
912.176	15625
912.291	15538
912.405	15690
912.519	15816
912.633	15766
912.748	15610
912.862	15557
912.976	15542
913.09	15199
913.204	15405
913.318	15405
913.431	15473
913.545	15477
913.659	15458
913.772	15298
913.886	15294
914	15184
914.113	15279
914.226	15275
914.34	15241
914.453	15097
914.566	15294
914.68	15062
914.793	15135
914.906	14891
915.019	14762
915.132	14769
915.245	14823
915.358	14750
915.47	14792
915.583	14739
915.696	14941
915.809	14933
915.921	14998
916.034	14826
916.146	14693
916.259	14727
916.371	14800
916.483	14762
916.595	14625
916.708	14678
916.82	14602
916.932	14598
917.044	14693
917.156	14552
917.268	14484
917.38	14541
917.491	14511
917.603	14480
917.715	14526
917.826	14583
917.938	14408
918.049	14290
918.161	14362
918.272	14522
918.384	14476
918.495	14454
918.606	14278
918.717	14248
918.828	14237
918.939	14309
919.05	14084
919.161	14180
919.272	14020
919.383	14138
919.494	14271
919.604	14457
919.715	14252
919.826	14115
919.936	14123
920.047	14256
920.157	14183
920.267	14362
920.378	14294
920.488	14164
920.598	14400
920.708	14495
920.818	14309
920.928	14427
921.038	14522
921.148	14484
921.258	14153
921.368	14073
921.477	14054
921.587	13982
921.697	13879
921.806	14016
921.916	13780
922.025	13636
922.134	13594
922.244	13495
922.353	13605
922.462	13441
922.571	13468
922.68	13335
922.789	13198
922.898	13293
923.007	13244
923.116	13263
923.224	13251
923.333	13251
923.442	13168
923.55	13061
923.659	13095
923.767	13091
923.876	13084
923.984	13080
924.092	12871
924.201	13076
924.309	13069
924.417	12996
924.525	12928
924.633	12909
924.741	13822
924.849	12726
924.956	12837
925.064	12745
925.172	12673
925.279	12677
925.387	12719
925.494	12700
925.602	12779
925.709	12734
925.816	12627
925.924	12673
926.031	12601
926.138	12566
926.245	12658
926.352	12517
926.459	12734
926.566	12703
926.673	12521
926.779	12460
926.886	12464
926.993	12330
927.099	12315
927.206	12281
927.312	12121
927.419	12311
927.525	12281
927.631	12239
927.737	12148
927.843	12098
927.95	11992
928.056	12106
928.162	12095
928.267	12148
928.373	12616
928.479	12182
928.585	11916
928.69	11977
928.796	12068
928.901	11992
929.007	11805
929.112	11912
929.218	11935
929.323	11840
929.428	11836
929.533	11916
929.638	11771
929.743	11726
929.848	11707
929.953	11764
930.058	11680
930.163	11532
930.267	11516
930.372	11676
930.477	11486
930.581	11653
930.685	11592
930.79	11265
930.894	11436
930.998	11360
931.103	11444
931.207	11162
931.311	11003
931.415	11037
931.519	10721
931.623	10801
