Data from test_V78500241_2957.txt Node
Date: Fri Mar 25 15:30:27 CST 2022
User: usil
Spectrometer: V785-0024
Trigger mode: 0
Integration Time (sec): 4.000000E-1
Scans to average: 1
Nonlinearity correction enabled: false
Boxcar width: 0
Storing dark spectrum: false
XAxis mode: Wavelengths
Number of Pixels in Spectrum: 1024
>>>>>Begin Spectral Data<<<<<
801.071	27161
801.214	27150
801.356	26857
801.499	26743
801.641	26754
801.783	26724
801.926	26815
802.068	26754
802.211	26621
802.353	26686
802.496	26473
802.638	26362
802.78	26389
802.923	26347
803.065	26358
803.208	26294
803.35	26495
803.492	26518
803.635	26412
803.777	26423
803.919	26552
804.061	26891
804.204	26682
804.346	26495
804.488	26347
804.63	26583
804.773	26412
804.915	26461
805.057	26735
805.199	26514
805.341	26518
805.483	26590
805.626	26617
805.768	26594
805.91	26663
806.052	26663
806.194	26408
806.336	26777
806.478	26625
806.62	26583
806.762	26663
806.904	26906
807.046	27123
807.188	27047
807.33	26948
807.472	27089
807.614	26868
807.756	26899
807.898	26876
808.04	26785
808.182	26864
808.324	26910
808.465	26918
808.607	27093
808.749	27127
808.891	27287
809.033	27367
809.174	27226
809.316	27066
809.458	27203
809.6	27066
809.741	27340
809.883	27310
810.025	27466
810.166	27447
810.308	27447
810.45	27405
810.591	27370
810.733	27268
810.875	27226
811.016	27081
811.158	27116
811.299	27344
811.441	27416
811.582	27279
811.724	27317
811.865	27180
812.007	27165
812.148	27214
812.29	27233
812.431	27317
812.573	27351
812.714	27538
812.855	27656
812.997	27835
813.138	27876
813.279	27743
813.421	27701
813.562	27679
813.703	27507
813.845	27298
813.986	27146
814.127	26864
814.268	26834
814.41	26823
814.551	26853
814.692	27036
814.833	26739
814.974	26754
815.115	26895
815.256	26708
815.397	26777
815.539	26769
815.68	26678
815.821	26602
815.962	26636
816.103	26590
816.244	26594
816.385	26374
816.526	26374
816.666	26103
816.807	26107
816.948	26282
817.089	26191
817.23	26191
817.371	26077
817.512	25982
817.653	26115
817.793	26218
817.934	26035
818.075	26130
818.216	26161
818.356	26073
818.497	25997
818.638	25765
818.778	25807
818.919	25928
819.06	25845
819.2	26024
819.341	26046
819.481	26161
819.622	26347
819.762	26393
819.903	26286
820.043	26229
820.184	26336
820.324	26126
820.465	26145
820.605	26248
820.746	26206
820.886	26020
821.026	26119
821.167	26244
821.307	26050
821.447	26103
821.588	26088
821.728	25955
821.868	25708
822.008	25586
822.149	25681
822.289	25540
822.429	25263
822.569	25240
822.709	25240
822.849	25114
822.99	24951
823.13	25080
823.27	24958
823.41	24985
823.55	24787
823.69	24897
823.83	24909
823.97	24924
824.11	24646
824.25	24574
824.389	24700
824.529	24783
824.669	24745
824.809	24837
824.949	24734
825.089	24707
825.228	24635
825.368	24479
825.508	24536
825.648	24555
825.787	24502
825.927	24528
826.067	24589
826.206	24464
826.346	24715
826.485	24612
826.625	24407
826.765	24532
826.904	24540
827.044	24350
827.183	24456
827.323	24300
827.462	24262
827.601	24201
827.741	24194
827.88	24270
828.02	24201
828.159	24186
828.298	24197
828.437	24277
828.577	24235
828.716	24403
828.855	24289
828.994	23965
829.134	24129
829.273	24038
829.412	23874
829.551	23893
829.69	24003
829.829	23973
829.968	24087
830.107	23935
830.246	23946
830.385	23805
830.524	23786
830.663	23767
830.802	23642
830.941	23505
831.08	23608
831.219	23623
831.357	23718
831.496	23843
831.635	23509
831.774	23406
831.913	23349
832.051	23379
832.19	23269
832.329	23231
832.467	23254
832.606	23166
832.744	23071
832.883	23132
833.022	23197
833.16	23159
833.299	23334
833.437	23330
833.576	23288
833.714	23174
833.852	23330
833.991	23345
834.129	23448
834.267	23318
834.406	23296
834.544	23303
834.682	23410
834.821	23330
834.959	23277
835.097	23311
835.235	23452
835.373	23204
835.511	23364
835.65	23117
835.788	23060
835.926	23014
836.064	22987
836.202	22900
836.34	23143
836.478	23258
836.615	23189
836.753	23170
836.891	23311
837.029	23086
837.167	23105
837.305	22965
837.443	23044
837.58	22953
837.718	22961
837.856	22839
837.993	22934
838.131	22965
838.269	22877
838.406	22984
838.544	22763
838.681	22497
838.819	22649
838.956	22466
839.094	22356
839.231	22481
839.369	22645
839.506	22850
839.643	22687
839.781	22394
839.918	22348
840.055	22523
840.193	22291
840.33	22295
840.467	22344
840.604	22394
840.742	22645
840.879	22242
841.016	22341
841.153	22207
841.29	22478
841.427	22508
841.564	22344
841.701	22443
841.838	22322
841.975	22284
842.112	22219
842.249	22219
842.385	22192
842.522	22466
842.659	22295
842.796	22135
842.933	22116
843.069	22078
843.206	22082
843.343	22230
843.479	22230
843.616	22093
843.752	21949
843.889	21945
844.025	22074
844.162	21816
844.298	21941
844.435	21789
844.571	21850
844.708	21937
844.844	21975
844.98	21937
845.117	22006
845.253	21831
845.389	21831
845.525	21759
845.661	21747
845.798	21690
845.934	21637
846.07	21504
846.206	21542
846.342	21743
846.478	21614
846.614	21526
846.75	21340
846.886	21378
847.022	21439
847.158	21382
847.294	21439
847.429	21355
847.565	21245
847.701	21504
847.837	21077
847.972	21199
848.108	21264
848.244	21150
848.379	21138
848.515	20975
848.65	20971
848.786	20933
848.921	20956
849.057	20975
849.192	21108
849.328	21009
849.463	20998
849.598	20868
849.734	20781
849.869	20830
850.004	20739
850.14	20792
850.275	20826
850.41	20625
850.545	20708
850.68	20773
850.815	20746
850.95	20807
851.085	20998
851.22	20849
851.355	20731
851.49	20689
851.625	20693
851.76	20701
851.895	20697
852.03	20674
852.165	20743
852.299	20834
852.434	20773
852.569	20830
852.703	20765
852.838	20792
852.973	20807
853.107	20864
853.242	20617
853.376	20575
853.511	20495
853.645	20442
853.78	20636
853.914	20655
854.048	20393
854.183	20606
854.317	20598
854.451	20659
854.585	20511
854.72	20556
854.854	20556
854.988	20454
855.122	20526
855.256	20503
855.39	20469
855.524	20606
855.658	20667
855.792	20663
855.926	20659
856.06	20530
856.194	20716
856.327	20644
856.461	20454
856.595	20442
856.729	20552
856.862	20621
856.996	20625
857.13	20625
857.263	20583
857.397	20727
857.53	20537
857.664	20571
857.797	20556
857.931	20686
858.064	20705
858.197	20598
858.331	20552
858.464	20499
858.597	20480
858.731	20514
858.864	20537
858.997	20484
859.13	20575
859.263	20636
859.396	20754
859.529	20412
859.662	20412
859.795	20454
859.928	20530
860.061	20659
860.194	20697
860.327	20480
860.46	20564
860.592	20712
860.725	20609
860.858	20644
860.99	20446
861.123	20457
861.256	20427
861.388	20492
861.521	21135
861.653	20446
861.786	20419
861.918	20343
862.05	20351
862.183	20476
862.315	20507
862.447	20469
862.58	20450
862.712	20259
862.844	20271
862.976	20381
863.108	20389
863.24	20804
863.372	20183
863.504	20278
863.636	20202
863.768	20275
863.9	20282
864.032	20221
864.164	20267
864.296	20381
864.428	20286
864.559	20320
864.691	20263
864.823	20263
864.954	20282
865.086	20240
865.217	20138
865.349	20130
865.48	20210
865.612	20244
865.743	20317
865.875	20138
866.006	20168
866.137	20103
866.269	20210
866.4	20054
866.531	20221
866.662	20214
866.793	20100
866.924	20016
867.055	20142
867.186	20180
867.317	20024
867.448	20031
867.579	20153
867.71	20088
867.841	20050
867.972	20153
868.103	20084
868.233	20256
868.364	20111
868.495	20294
868.625	20336
868.756	20461
868.886	20240
869.017	20377
869.147	20427
869.278	20412
869.408	20412
869.539	20324
869.669	20412
869.799	20389
869.929	20503
870.06	20541
870.19	20651
870.32	20640
870.45	20708
870.58	20758
870.71	20815
870.84	20853
870.97	20781
871.1	20807
871.23	20937
871.36	21013
871.489	20815
871.619	20769
871.749	20918
871.879	21066
872.008	21043
872.138	21039
872.267	21028
872.397	20857
872.526	20819
872.656	20910
872.785	20861
872.915	20956
873.044	20994
873.173	20914
873.303	20944
873.432	21047
873.561	21112
873.69	21024
873.819	20998
873.948	20994
874.077	20975
874.206	20918
874.335	20963
874.464	21127
874.593	21188
874.722	21180
874.851	21146
874.979	21287
875.108	21332
875.237	21066
875.365	21001
875.494	21180
875.623	21298
875.751	21047
875.88	21150
876.008	21283
876.136	21317
876.265	21675
876.393	21800
876.521	21736
876.65	21728
876.778	21618
876.906	21595
877.034	21599
877.162	21561
877.29	21519
877.418	21644
877.546	21542
877.674	21469
877.802	21682
877.93	21523
878.058	21595
878.185	21477
878.313	21564
878.441	21450
878.568	21382
878.696	21389
878.824	21679
878.951	21572
879.079	21694
879.206	21884
879.333	21751
879.461	21679
879.588	21637
879.715	21785
879.842	21762
879.97	21572
880.097	21348
880.224	21252
880.351	21496
880.478	21473
880.605	21443
880.732	21469
880.859	21595
880.986	21408
881.112	21473
881.239	21310
881.366	21081
881.493	21070
881.619	20948
881.746	21104
881.872	20929
881.999	20956
882.125	20804
882.252	21066
882.378	20937
882.505	21108
882.631	20872
882.757	20689
882.883	20876
883.01	20598
883.136	20686
883.262	20598
883.388	20606
883.514	20609
883.64	20712
883.766	20533
883.892	20385
884.018	20533
884.143	20613
884.269	20785
884.395	20313
884.52	20389
884.646	20419
884.772	20309
884.897	20256
885.023	20343
885.148	20434
885.274	20541
885.399	20434
885.524	20298
885.65	20415
885.775	20396
885.9	20275
886.025	20408
886.15	20408
886.275	20374
886.4	20252
886.525	20320
886.65	20206
886.775	20149
886.9	20393
887.025	20602
887.149	20278
887.274	20168
887.399	20046
887.523	20199
887.648	20130
887.773	19963
887.897	20122
888.021	20271
888.146	20050
888.27	20271
888.395	20225
888.519	20233
888.643	20138
888.767	20157
888.891	20088
889.015	19986
889.139	20020
889.263	19849
889.387	19902
889.511	20035
889.635	20138
889.759	19906
889.883	19902
890.006	19890
890.13	19940
890.254	19864
890.377	19921
890.501	19727
890.624	19651
890.748	19738
890.871	19639
890.995	19510
891.118	19434
891.241	19559
891.364	19666
891.488	19559
891.611	19426
891.734	19403
891.857	19590
891.98	19563
892.103	19571
892.226	19381
892.349	19556
892.471	19301
892.594	19388
892.717	19540
892.839	19464
892.962	19422
893.085	19403
893.207	19407
893.33	19308
893.452	19403
893.575	19441
893.697	19441
893.819	19651
893.941	19582
894.064	19521
894.186	19396
894.308	19384
894.43	19525
894.552	19624
894.674	19518
894.796	19270
894.918	19278
895.04	19392
895.161	19460
895.283	19491
895.405	19396
895.526	19392
895.648	19518
895.769	19403
895.891	19396
896.012	19464
896.134	19422
896.255	19445
896.376	19411
896.498	19426
896.619	19422
896.74	19388
896.861	19396
896.982	19826
897.103	19852
897.224	19776
897.345	19780
897.466	19609
897.587	19696
897.708	19765
897.828	19753
897.949	19772
898.07	19525
898.19	19624
898.311	19776
898.431	19666
898.552	19578
898.672	19837
898.792	19795
898.913	19750
899.033	19533
899.153	19506
899.273	19384
899.393	19468
899.513	19521
899.633	19472
899.753	19586
899.873	19430
899.993	19510
900.113	19266
900.232	19438
900.352	19449
900.472	19346
900.591	19179
900.711	19339
900.83	19194
900.95	19343
901.069	19407
901.189	19156
901.308	18878
901.427	18913
901.546	18890
901.665	18829
901.784	18890
901.904	18692
902.023	18582
902.141	18506
902.26	18437
902.379	18479
902.498	18350
902.617	18350
902.735	18338
902.854	18361
902.973	18357
903.091	18106
903.21	17916
903.328	18060
903.446	17969
903.565	17893
903.683	17851
903.801	17729
903.919	17851
904.038	17764
904.156	17592
904.274	17691
904.392	17630
904.51	17528
904.627	17634
904.745	17695
904.863	17665
904.981	17554
905.098	17235
905.216	17288
905.334	17296
905.451	17258
905.569	17223
905.686	17239
905.803	17246
905.921	16991
906.038	17208
906.155	17147
906.272	17018
906.389	16999
906.506	16908
906.623	16892
906.74	16816
906.857	16752
906.974	16786
907.091	16805
907.208	16934
907.324	16835
907.441	16637
907.557	16645
907.674	16577
907.79	16451
907.907	16584
908.023	16653
908.139	16607
908.256	16459
908.372	16554
908.488	16436
908.604	16382
908.72	16082
908.836	16272
908.952	16268
909.068	16215
909.184	16348
909.3	16238
909.415	16352
909.531	16287
909.647	15998
909.762	15994
909.878	15892
909.993	15998
910.108	16063
910.224	15960
910.339	15991
910.454	15899
910.57	15865
910.685	15838
910.8	16109
910.915	16063
911.03	15808
911.145	15595
911.259	15557
911.374	15618
911.489	15515
911.604	15504
911.718	15389
911.833	15443
911.947	15336
912.062	15279
912.176	15389
912.291	15397
912.405	15401
912.519	15591
912.633	15625
912.748	15450
912.862	15405
912.976	15176
913.09	15116
913.204	15119
913.318	15138
913.431	15252
913.545	15188
913.659	15207
913.772	15131
913.886	15093
914	14960
914.113	15024
914.226	15074
914.34	15077
914.453	14804
914.566	15058
914.68	14914
914.793	14769
914.906	14667
915.019	14636
915.132	14571
915.245	14659
915.358	14533
915.47	14602
915.583	14598
915.696	14556
915.809	14762
915.921	14739
916.034	14568
916.146	14442
916.259	14549
916.371	14526
916.483	14518
916.595	14438
916.708	14503
916.82	14560
916.932	14419
917.044	14355
917.156	14419
917.268	14263
917.38	14240
917.491	14271
917.603	14347
917.715	14324
917.826	14374
917.938	14244
918.049	14153
918.161	14271
918.272	14381
918.384	14332
918.495	14176
918.606	13989
918.717	13997
918.828	14065
918.939	14176
919.05	13906
919.161	14035
919.272	13845
919.383	13944
919.494	14084
919.604	14180
919.715	13978
919.826	14024
919.936	13982
920.047	14039
920.157	14092
920.267	14180
920.378	13986
920.488	13982
920.598	14187
920.708	14290
920.818	14195
920.928	14259
921.038	14324
921.148	14309
921.258	14043
921.368	13811
921.477	13784
921.587	13696
921.697	13662
921.806	13811
921.916	13700
922.025	13597
922.134	13460
922.244	13472
922.353	13472
922.462	13209
922.571	13209
922.68	13179
922.789	13065
922.898	13095
923.007	12924
923.116	13152
923.224	13080
923.333	13019
923.442	12939
923.55	12905
923.659	12901
923.767	12939
923.876	12905
923.984	12939
924.092	12829
924.201	12817
924.309	12852
924.417	12928
924.525	12791
924.633	12734
924.741	13514
924.849	12597
924.956	12703
925.064	12490
925.172	12464
925.279	12490
925.387	12570
925.494	12486
925.602	12623
925.709	12498
925.816	12475
925.924	12445
926.031	12544
926.138	12441
926.245	12517
926.352	12399
926.459	12578
926.566	12513
926.673	12380
926.779	12304
926.886	12258
926.993	12152
927.099	12148
927.206	11973
927.312	12121
927.419	12125
927.525	12110
927.631	12072
927.737	12083
927.843	11927
927.95	11874
928.056	11946
928.162	11939
928.267	11942
928.373	12593
928.479	11958
928.585	11764
928.69	11828
928.796	11916
928.901	11832
929.007	11642
929.112	11798
929.218	11756
929.323	11680
929.428	11699
929.533	11737
929.638	11672
929.743	11615
929.848	11634
929.953	11573
930.058	11554
930.163	11341
930.267	11349
930.372	11570
930.477	11261
930.581	11596
930.685	11356
930.79	11242
930.894	11258
930.998	11181
931.103	11368
931.207	10980
931.311	11052
931.415	10869
931.519	10637
931.623	10698
