Data from test_V78500241_586.txt Node
Date: Fri Mar 25 15:13:56 CST 2022
User: usil
Spectrometer: V785-0024
Trigger mode: 0
Integration Time (sec): 4.000000E-1
Scans to average: 1
Nonlinearity correction enabled: false
Boxcar width: 0
Storing dark spectrum: false
XAxis mode: Wavelengths
Number of Pixels in Spectrum: 1024
>>>>>Begin Spectral Data<<<<<
801.071	27195
801.214	27070
801.356	26937
801.499	26933
801.641	26720
801.783	26735
801.926	26788
802.068	26663
802.211	26636
802.353	26511
802.496	26358
802.638	26400
802.78	26282
802.923	26389
803.065	26069
803.208	26343
803.35	26301
803.492	26362
803.635	26488
803.777	26256
803.919	26396
804.061	26659
804.204	26568
804.346	26423
804.488	26336
804.63	26492
804.773	26336
804.915	26457
805.057	26393
805.199	26488
805.341	26545
805.483	26552
805.626	26495
805.768	26396
805.91	26575
806.052	26389
806.194	26438
806.336	26708
806.478	26613
806.62	26629
806.762	26663
806.904	26895
807.046	27093
807.188	26986
807.33	26895
807.472	26967
807.614	26834
807.756	26845
807.898	26781
808.04	26815
808.182	26838
808.324	26910
808.465	26773
808.607	26880
808.749	27154
808.891	27123
809.033	27325
809.174	27138
809.316	27093
809.458	27245
809.6	27047
809.741	27230
809.883	27268
810.025	27458
810.166	27241
810.308	27416
810.45	27355
810.591	27397
810.733	27264
810.875	27249
811.016	27005
811.158	27001
811.299	27291
811.441	27260
811.582	27218
811.724	27062
811.865	27195
812.007	27096
812.148	27188
812.29	27256
812.431	27283
812.573	27545
812.714	27587
812.855	27720
812.997	27774
813.138	27880
813.279	27873
813.421	27644
813.562	27724
813.703	27534
813.845	27439
813.986	27131
814.127	26986
814.268	26788
814.41	26861
814.551	26648
814.692	26990
814.833	26785
814.974	26762
815.115	26781
815.256	26629
815.397	26716
815.539	26701
815.68	26663
815.821	26651
815.962	26693
816.103	26480
816.244	26469
816.385	26374
816.526	26393
816.666	26126
816.807	26355
816.948	26176
817.089	26229
817.23	26199
817.371	26172
817.512	26134
817.653	26122
817.793	25997
817.934	26149
818.075	26187
818.216	26043
818.356	26039
818.497	25909
818.638	25837
818.778	25913
818.919	25879
819.06	25902
819.2	26008
819.341	26065
819.481	26050
819.622	26237
819.762	26488
819.903	26317
820.043	26271
820.184	26290
820.324	26244
820.465	26256
820.605	26115
820.746	26168
820.886	26058
821.026	26172
821.167	26111
821.307	26248
821.447	26054
821.588	26084
821.728	25921
821.868	25780
822.008	25559
822.149	25559
822.289	25571
822.429	25209
822.569	25202
822.709	25293
822.849	25118
822.99	25114
823.13	24985
823.27	25012
823.41	24886
823.55	24958
823.69	24711
823.83	24795
823.97	24829
824.11	24513
824.25	24703
824.389	24730
824.529	24848
824.669	24566
824.809	24833
824.949	24760
825.089	24802
825.228	24707
825.368	24574
825.508	24582
825.648	24612
825.787	24658
825.927	24669
826.067	24570
826.206	24563
826.346	24486
826.485	24719
826.625	24525
826.765	24703
826.904	24658
827.044	24361
827.183	24167
827.323	24254
827.462	24460
827.601	24467
827.741	24353
827.88	24342
828.02	24201
828.159	24239
828.298	24330
828.437	24429
828.577	24133
828.716	24494
828.855	24243
828.994	24098
829.134	24087
829.273	24140
829.412	24003
829.551	24072
829.69	23958
829.829	24057
829.968	24167
830.107	24125
830.246	24083
830.385	24034
830.524	23912
830.663	23790
830.802	23843
830.941	23608
831.08	23531
831.219	23733
831.357	23813
831.496	23901
831.635	23737
831.774	23398
831.913	23421
832.051	23486
832.19	23326
832.329	23421
832.467	23220
832.606	23280
832.744	23246
832.883	23269
833.022	23254
833.16	23292
833.299	23391
833.437	23398
833.576	23334
833.714	23273
833.852	23467
833.991	23395
834.129	23345
834.267	23467
834.406	23459
834.544	23417
834.682	23379
834.821	23322
834.959	23512
835.097	23227
835.235	23372
835.373	23448
835.511	23322
835.65	23185
835.788	23162
835.926	23162
836.064	23102
836.202	23105
836.34	23318
836.478	23235
836.615	23136
836.753	23102
836.891	23318
837.029	23360
837.167	23128
837.305	23018
837.443	23056
837.58	23113
837.718	23132
837.856	23041
837.993	23048
838.131	23113
838.269	22881
838.406	22904
838.544	22835
838.681	22809
838.819	22584
838.956	22462
839.094	22516
839.231	22573
839.369	22687
839.506	22904
839.643	22801
839.781	22599
839.918	22542
840.055	22557
840.193	22478
840.33	22500
840.467	22466
840.604	22424
840.742	22717
840.879	22253
841.016	22329
841.153	22424
841.29	22584
841.427	22451
841.564	22440
841.701	22417
841.838	22417
841.975	22344
842.112	22356
842.249	22139
842.385	22196
842.522	22523
842.659	22215
842.796	22295
842.933	22257
843.069	22143
843.206	22143
843.343	22333
843.479	22356
843.616	22265
843.752	21975
843.889	21998
844.025	22173
844.162	22051
844.298	22109
844.435	22059
844.571	21945
844.708	22044
844.844	22112
844.98	22120
845.117	22226
845.253	21972
845.389	21838
845.525	21892
845.661	21880
845.798	21842
845.934	21838
846.07	21762
846.206	21793
846.342	21861
846.478	21800
846.614	21447
846.75	21473
846.886	21389
847.022	21606
847.158	21466
847.294	21572
847.429	21496
847.565	21386
847.701	21709
847.837	21123
847.972	21260
848.108	21287
848.244	21241
848.379	21047
848.515	21074
848.65	21077
848.786	21074
848.921	21150
849.057	21135
849.192	21256
849.328	21188
849.463	21154
849.598	21070
849.734	20937
849.869	20937
850.004	20857
850.14	20857
850.275	20792
850.41	20857
850.545	20731
850.68	20731
850.815	20899
850.95	20788
851.085	21070
851.22	21058
851.355	20796
851.49	20906
851.625	20857
851.76	20708
851.895	20773
852.03	20868
852.165	20807
852.299	20876
852.434	20918
852.569	20853
852.703	20845
852.838	20887
852.973	21039
853.107	20891
853.242	20883
853.376	20750
853.511	20389
853.645	20640
853.78	20823
853.914	20735
854.048	20674
854.183	20712
854.317	20705
854.451	20823
854.585	20712
854.72	20552
854.854	20861
854.988	20537
855.122	20537
855.256	20454
855.39	20678
855.524	20727
855.658	20750
855.792	20678
855.926	20629
856.06	20743
856.194	20800
856.327	20686
856.461	20571
856.595	20617
856.729	20621
856.862	20670
856.996	20651
857.13	20720
857.263	20720
857.397	20773
857.53	20629
857.664	20754
857.797	20739
857.931	20724
858.064	20746
858.197	20826
858.331	20609
858.464	20606
858.597	20579
858.731	20571
858.864	20632
858.997	20796
859.13	20739
859.263	20663
859.396	20765
859.529	20663
859.662	20670
859.795	20670
859.928	20705
860.061	20826
860.194	20804
860.327	20785
860.46	20746
860.592	20861
860.725	20902
860.858	20796
860.99	20621
861.123	20629
861.256	20644
861.388	20773
861.521	21397
861.653	20541
861.786	20514
861.918	20457
862.05	20526
862.183	20579
862.315	20564
862.447	20594
862.58	20663
862.712	20415
862.844	20290
862.976	20393
863.108	20476
863.24	20914
863.372	20252
863.504	20438
863.636	20488
863.768	20400
863.9	20427
864.032	20225
864.164	20309
864.296	20457
864.428	20393
864.559	20461
864.691	20514
864.823	20480
864.954	20438
865.086	20442
865.217	20294
865.349	20168
865.48	20221
865.612	20275
865.743	20442
865.875	20366
866.006	20259
866.137	20267
866.269	20381
866.4	20301
866.531	20252
866.662	20240
866.793	20252
866.924	20183
867.055	20229
867.186	20214
867.317	20275
867.448	20168
867.579	20229
867.71	20172
867.841	20062
867.972	20275
868.103	20240
868.233	20202
868.364	20206
868.495	20267
868.625	20457
868.756	20556
868.886	20419
869.017	20480
869.147	20537
869.278	20507
869.408	20427
869.539	20438
869.669	20499
869.799	20518
869.929	20549
870.06	20613
870.19	20743
870.32	20758
870.45	20777
870.58	20876
870.71	20864
870.84	20979
870.97	20830
871.1	20925
871.23	21055
871.36	21161
871.489	20986
871.619	20994
871.749	21074
871.879	21081
872.008	21085
872.138	21013
872.267	21024
872.397	20914
872.526	20937
872.656	20921
872.785	20876
872.915	21150
873.044	21127
873.173	21032
873.303	21112
873.432	21203
873.561	21252
873.69	21195
873.819	21055
873.948	21146
874.077	21062
874.206	21013
874.335	21154
874.464	21211
874.593	21294
874.722	21188
874.851	21272
874.979	21382
875.108	21355
875.237	21222
875.365	21199
875.494	21336
875.623	21313
875.751	21481
875.88	21370
876.008	21393
876.136	21515
876.265	21770
876.393	21884
876.521	21812
876.65	21838
876.778	21751
876.906	21694
877.034	21701
877.162	21804
877.29	21717
877.418	21641
877.546	21751
877.674	21717
877.802	21682
877.93	21671
878.058	21724
878.185	21462
878.313	21641
878.441	21629
878.568	21389
878.696	21561
878.824	21610
878.951	21781
879.079	21781
879.206	22017
879.333	21880
879.461	21709
879.588	21667
879.715	21850
879.842	21937
879.97	21785
880.097	21523
880.224	21389
880.351	21519
880.478	21492
880.605	21473
880.732	21511
880.859	21823
880.986	21466
881.112	21526
881.239	21458
881.366	21272
881.493	21203
881.619	21199
881.746	21184
881.872	20994
881.999	21001
882.125	21058
882.252	21089
882.378	21001
882.505	21020
882.631	20921
882.757	20765
882.883	20807
883.01	20845
883.136	20785
883.262	20617
883.388	20632
883.514	20796
883.64	20769
883.766	20689
883.892	20571
884.018	20587
884.143	20693
884.269	20815
884.395	20522
884.52	20347
884.646	20457
884.772	20419
884.897	20263
885.023	20450
885.148	20526
885.274	20511
885.399	20556
885.524	20286
885.65	20469
885.775	20419
885.9	20438
886.025	20476
886.15	20568
886.275	20423
886.4	20305
886.525	20480
886.65	20317
886.775	20339
886.9	20609
887.025	20648
887.149	20503
887.274	20267
887.399	20278
887.523	20183
887.648	20161
887.773	20100
887.897	20157
888.021	20221
888.146	20107
888.27	20221
888.395	20389
888.519	20263
888.643	20210
888.767	20271
888.891	20092
889.015	20024
889.139	20035
889.263	20046
889.387	20134
889.511	20214
889.635	20145
889.759	19947
889.883	19909
890.006	19978
890.13	20050
890.254	19955
890.377	19913
890.501	19628
890.624	19860
890.748	19715
890.871	19567
890.995	19609
891.118	19632
891.241	19605
891.364	19624
891.488	19651
891.611	19601
891.734	19567
891.857	19719
891.98	19609
892.103	19616
892.226	19575
892.349	19548
892.471	19460
892.594	19533
892.717	19571
892.839	19491
892.962	19285
893.085	19476
893.207	19537
893.33	19278
893.452	19362
893.575	19514
893.697	19506
893.819	19655
893.941	19723
894.064	19605
894.186	19453
894.308	19373
894.43	19613
894.552	19613
894.674	19544
894.796	19350
894.918	19460
895.04	19445
895.161	19632
895.283	19563
895.405	19464
895.526	19495
895.648	19506
895.769	19472
895.891	19525
896.012	19578
896.134	19601
896.255	19575
896.376	19441
896.498	19552
896.619	19521
896.74	19548
896.861	19594
896.982	19921
897.103	20005
897.224	19830
897.345	19750
897.466	19613
897.587	19674
897.708	19807
897.828	19814
897.949	19723
898.07	19540
898.19	19704
898.311	19841
898.431	19788
898.552	19651
898.672	19833
898.792	19788
898.913	19742
899.033	19700
899.153	19613
899.273	19384
899.393	19605
899.513	19605
899.633	19529
899.753	19487
899.873	19426
899.993	19499
900.113	19464
900.232	19426
900.352	19411
900.472	19285
900.591	19225
900.711	19179
900.83	19266
900.95	19384
901.069	19331
901.189	19110
901.308	18943
901.427	18970
901.546	18954
901.665	18951
901.784	18932
901.904	18711
902.023	18696
902.141	18540
902.26	18384
902.379	18498
902.498	18467
902.617	18319
902.735	18502
902.854	18372
902.973	18258
903.091	18117
903.21	18015
903.328	17961
903.446	17958
903.565	17832
903.683	17961
903.801	17817
903.919	17783
904.038	17889
904.156	17745
904.274	17657
904.392	17687
904.51	17646
904.627	17680
904.745	17684
904.863	17691
904.981	17467
905.098	17356
905.216	17299
905.334	17459
905.451	17398
905.569	17269
905.686	17406
905.803	17337
905.921	17052
906.038	17242
906.155	17246
906.272	17029
906.389	17181
906.506	16877
906.623	16923
906.74	16828
906.857	16767
906.974	16691
907.091	16854
907.208	16984
907.324	16850
907.441	16744
907.557	16656
907.674	16634
907.79	16519
907.907	16554
908.023	16569
908.139	16626
908.256	16580
908.372	16546
908.488	16371
908.604	16363
908.72	16242
908.836	16325
908.952	16246
909.068	16325
909.184	16428
909.3	16272
909.415	16344
909.531	16295
909.647	15930
909.762	16059
909.878	16036
909.993	16040
910.108	16017
910.224	15949
910.339	16002
910.454	15983
910.57	15838
910.685	15831
910.8	16017
910.915	16036
911.03	15747
911.145	15720
911.259	15690
911.374	15743
911.489	15644
911.604	15587
911.718	15363
911.833	15412
911.947	15332
912.062	15203
912.176	15302
912.291	15283
912.405	15332
912.519	15595
912.633	15553
912.748	15348
912.862	15325
912.976	15260
913.09	15176
913.204	15157
913.318	15237
913.431	15302
913.545	15367
913.659	15260
913.772	15199
913.886	15005
914	14986
914.113	15131
914.226	15165
914.34	15081
914.453	14834
914.566	14986
914.68	14895
914.793	14902
914.906	14701
915.019	14606
915.132	14594
915.245	14575
915.358	14598
915.47	14644
915.583	14621
915.696	14613
915.809	14705
915.921	14788
916.034	14651
916.146	14579
916.259	14499
916.371	14499
916.483	14575
916.595	14594
916.708	14518
916.82	14522
916.932	14355
917.044	14347
917.156	14446
917.268	14301
917.38	14351
917.491	14347
917.603	14248
917.715	14385
917.826	14385
917.938	14225
918.049	14088
918.161	14176
918.272	14396
918.384	14393
918.495	14278
918.606	14161
918.717	14008
918.828	14077
918.939	14164
919.05	13932
919.161	14001
919.272	13868
919.383	13902
919.494	14065
919.604	14221
919.715	14100
919.826	14027
919.936	14035
920.047	14092
920.157	14115
920.267	14244
920.378	14043
920.488	14054
920.598	14157
920.708	14385
920.818	14259
920.928	14164
921.038	14320
921.148	14377
921.258	13940
921.368	13928
921.477	13807
921.587	13784
921.697	13708
921.806	13769
921.916	13632
922.025	13468
922.134	13403
922.244	13335
922.353	13518
922.462	13236
922.571	13175
922.68	13183
922.789	13126
922.898	13160
923.007	13114
923.116	13057
923.224	13152
923.333	12973
923.442	13015
923.55	12958
923.659	13000
923.767	13019
923.876	12791
923.984	12996
924.092	12916
924.201	12909
924.309	12840
924.417	12886
924.525	12814
924.633	12825
924.741	13518
924.849	12563
924.956	12719
925.064	12589
925.172	12369
925.279	12494
925.387	12604
925.494	12578
925.602	12677
925.709	12589
925.816	12410
925.924	12494
926.031	12658
926.138	12422
926.245	12593
926.352	12353
926.459	12483
926.566	12620
926.673	12452
926.779	12414
926.886	12353
926.993	12129
927.099	12155
927.206	12175
927.312	12068
927.419	12091
927.525	12068
927.631	12110
927.737	12007
927.843	12003
927.95	11828
928.056	11965
928.162	11931
928.267	11935
928.373	12544
928.479	12026
928.585	11779
928.69	11946
928.796	11958
928.901	11866
929.007	11646
929.112	11809
929.218	11767
929.323	11684
929.428	11634
929.533	11771
929.638	11528
929.743	11653
929.848	11726
929.953	11649
930.058	11471
930.163	11455
930.267	11311
930.372	11459
930.477	11398
930.581	11573
930.685	11459
930.79	11284
930.894	11322
930.998	11265
931.103	11383
931.207	11052
931.311	10976
931.415	10862
931.519	10664
931.623	10706
