Data from test_V78500241_867.txt Node
Date: Fri Mar 25 15:15:53 CST 2022
User: usil
Spectrometer: V785-0024
Trigger mode: 0
Integration Time (sec): 4.000000E-1
Scans to average: 1
Nonlinearity correction enabled: false
Boxcar width: 0
Storing dark spectrum: false
XAxis mode: Wavelengths
Number of Pixels in Spectrum: 1024
>>>>>Begin Spectral Data<<<<<
801.071	28207
801.214	28070
801.356	28139
801.499	27888
801.641	27747
801.783	27759
801.926	27918
802.068	27625
802.211	27717
802.353	27572
802.496	27557
802.638	27359
802.78	27515
802.923	27355
803.065	27332
803.208	27603
803.35	27435
803.492	27401
803.635	27523
803.777	27545
803.919	27675
804.061	28002
804.204	27644
804.346	27606
804.488	27580
804.63	27549
804.773	27629
804.915	27648
805.057	27850
805.199	27690
805.341	27736
805.483	27895
805.626	27751
805.768	27736
805.91	27808
806.052	27743
806.194	27717
806.336	27987
806.478	27911
806.62	27819
806.762	27876
806.904	28086
807.046	28253
807.188	28120
807.33	28234
807.472	28333
807.614	28249
807.756	28185
807.898	27998
808.04	28036
808.182	28131
808.324	28109
808.465	28086
808.607	28287
808.749	28325
808.891	28481
809.033	28664
809.174	28455
809.316	28569
809.458	28504
809.6	28276
809.741	28519
809.883	28565
810.025	28736
810.166	28721
810.308	28736
810.45	28603
810.591	28500
810.733	28451
810.875	28417
811.016	28344
811.158	28360
811.299	28580
811.441	28615
811.582	28535
811.724	28401
811.865	28398
812.007	28584
812.148	28565
812.29	28546
812.431	28634
812.573	28862
812.714	28888
812.855	28976
812.997	29079
813.138	29227
813.279	29060
813.421	29113
813.562	28953
813.703	28862
813.845	28763
813.986	28481
814.127	28325
814.268	28204
814.41	28173
814.551	28082
814.692	28341
814.833	28124
814.974	28082
815.115	28192
815.256	27972
815.397	28109
815.539	27937
815.68	27937
815.821	27873
815.962	27987
816.103	28029
816.244	27869
816.385	27857
816.526	27743
816.666	27576
816.807	27355
816.948	27507
817.089	27606
817.23	27473
817.371	27530
817.512	27454
817.653	27519
817.793	27351
817.934	27370
818.075	27439
818.216	27515
818.356	27431
818.497	27454
818.638	27070
818.778	27188
818.919	27222
819.06	27355
819.2	27447
819.341	27450
819.481	27370
819.622	27622
819.762	27789
819.903	27774
820.043	27736
820.184	27469
820.324	27507
820.465	27610
820.605	27629
820.746	27652
820.886	27458
821.026	27553
821.167	27507
821.307	27564
821.447	27542
821.588	27466
821.728	27355
821.868	27020
822.008	27032
822.149	27032
822.289	26918
822.429	26769
822.569	26526
822.709	26693
822.849	26522
822.99	26473
823.13	26499
823.27	26514
823.41	26320
823.55	26278
823.69	26290
823.83	26214
823.97	26351
824.11	26259
824.25	26145
824.389	26134
824.529	26126
824.669	26195
824.809	26347
824.949	26081
825.089	26225
825.228	26206
825.368	26005
825.508	26039
825.648	26058
825.787	26050
825.927	25959
826.067	25921
826.206	26046
826.346	26016
826.485	25940
826.625	25970
826.765	26153
826.904	25906
827.044	25712
827.183	25727
827.323	25795
827.462	25784
827.601	25875
827.741	25708
827.88	25780
828.02	25590
828.159	25719
828.298	25750
828.437	25814
828.577	25651
828.716	25856
828.855	25628
828.994	25396
829.134	25502
829.273	25468
829.412	25335
829.551	25285
829.69	25495
829.829	25502
829.968	25460
830.107	25537
830.246	25460
830.385	25403
830.524	25278
830.663	25179
830.802	25148
830.941	25008
831.08	24996
831.219	25065
831.357	25091
831.496	25259
831.635	25019
831.774	24981
831.913	24844
832.051	24943
832.19	24833
832.329	24897
832.467	24760
832.606	24661
832.744	24700
832.883	24753
833.022	24661
833.16	24798
833.299	24745
833.437	24772
833.576	24688
833.714	24776
833.852	24757
833.991	24753
834.129	24806
834.267	24840
834.406	24924
834.544	24875
834.682	24798
834.821	24741
834.959	24913
835.097	24623
835.235	24715
835.373	24757
835.511	24627
835.65	24639
835.788	24486
835.926	24502
836.064	24304
836.202	24486
836.34	24502
836.478	24703
836.615	24544
836.753	24620
836.891	24707
837.029	24707
837.167	24616
837.305	24498
837.443	24536
837.58	24467
837.718	24559
837.856	24437
837.993	24399
838.131	24277
838.269	24296
838.406	24296
838.544	24388
838.681	23931
838.819	24049
838.956	23920
839.094	23851
839.231	23954
839.369	24079
839.506	24209
839.643	24144
839.781	23889
839.918	24007
840.055	23946
840.193	23870
840.33	23836
840.467	23969
840.604	23726
840.742	23977
840.879	23668
841.016	23798
841.153	23821
841.29	23866
841.427	23843
841.564	23866
841.701	23840
841.838	23764
841.975	23657
842.112	23824
842.249	23672
842.385	23478
842.522	23722
842.659	23592
842.796	23528
842.933	23585
843.069	23581
843.206	23509
843.343	23638
843.479	23566
843.616	23471
843.752	23368
843.889	23417
844.025	23330
844.162	23353
844.298	23467
844.435	23299
844.571	23318
844.708	23235
844.844	23395
844.98	23596
845.117	23402
845.253	23288
845.389	23178
845.525	23288
845.661	23181
845.798	22972
845.934	23094
846.07	23010
846.206	23155
846.342	23109
846.478	23090
846.614	22896
846.75	22691
846.886	22820
847.022	22759
847.158	22812
847.294	22805
847.429	22847
847.565	22831
847.701	22927
847.837	22527
847.972	22447
848.108	22584
848.244	22596
848.379	22409
848.515	22432
848.65	22333
848.786	22348
848.921	22371
849.057	22565
849.192	22546
849.328	22371
849.463	22322
849.598	22367
849.734	22299
849.869	22257
850.004	22135
850.14	22093
850.275	22181
850.41	22029
850.545	22090
850.68	22059
850.815	22219
850.95	22135
851.085	22280
851.22	22192
851.355	22097
851.49	22188
851.625	21994
851.76	21994
851.895	22010
852.03	22067
852.165	22177
852.299	22055
852.434	22166
852.569	22112
852.703	22154
852.838	22230
852.973	22348
853.107	22306
853.242	21968
853.376	21880
853.511	21918
853.645	21998
853.78	22139
853.914	22025
854.048	21941
854.183	21983
854.317	22040
854.451	22082
854.585	21835
854.72	22078
854.854	22116
854.988	21922
855.122	21937
855.256	21899
855.39	22013
855.524	22013
855.658	22040
855.792	21876
855.926	21994
856.06	22051
856.194	21983
856.327	21937
856.461	21895
856.595	21876
856.729	21953
856.862	22078
856.996	21926
857.13	22109
857.263	22116
857.397	21934
857.53	21934
857.664	21892
857.797	22082
857.931	22013
858.064	21972
858.197	21983
858.331	21861
858.464	21850
858.597	21991
858.731	21808
858.864	21941
858.997	21739
859.13	21994
859.263	21888
859.396	22010
859.529	21930
859.662	21800
859.795	21816
859.928	21934
860.061	22143
860.194	22078
860.327	22002
860.46	21918
860.592	21975
860.725	22196
860.858	22055
860.99	21998
861.123	21907
861.256	21922
861.388	21972
861.521	22812
861.653	21892
861.786	21785
861.918	21762
862.05	21888
862.183	21922
862.315	21918
862.447	21865
862.58	21869
862.712	21679
862.844	21515
862.976	21736
863.108	21690
863.24	21975
863.372	21629
863.504	21739
863.636	21583
863.768	21686
863.9	21717
864.032	21595
864.164	21606
864.296	21644
864.428	21679
864.559	21667
864.691	21682
864.823	21781
864.954	21614
865.086	21622
865.217	21530
865.349	21420
865.48	21625
865.612	21599
865.743	21561
865.875	21633
866.006	21614
866.137	21542
866.269	21557
866.4	21564
866.531	21507
866.662	21431
866.793	21454
866.924	21405
867.055	21568
867.186	21466
867.317	21435
867.448	21386
867.579	21473
867.71	21450
867.841	21435
867.972	21507
868.103	21408
868.233	21507
868.364	21477
868.495	21545
868.625	21701
868.756	21835
868.886	21679
869.017	21660
869.147	21854
869.278	21869
869.408	21816
869.539	21728
869.669	21728
869.799	21804
869.929	21793
870.06	21800
870.19	21876
870.32	21873
870.45	21998
870.58	22124
870.71	22196
870.84	22139
870.97	22131
871.1	22124
871.23	22322
871.36	22230
871.489	22257
871.619	22207
871.749	22272
871.879	22303
872.008	22363
872.138	22246
872.267	22253
872.397	22185
872.526	22143
872.656	22097
872.785	22048
872.915	22352
873.044	22386
873.173	22379
873.303	22421
873.432	22379
873.561	22455
873.69	22265
873.819	22261
873.948	22375
874.077	22295
874.206	22268
874.335	22287
874.464	22459
874.593	22519
874.722	22508
874.851	22580
874.979	22656
875.108	22516
875.237	22527
875.365	22451
875.494	22440
875.623	22542
875.751	22577
875.88	22447
876.008	22630
876.136	22618
876.265	22949
876.393	23166
876.521	22980
876.65	23079
876.778	22961
876.906	22774
877.034	22820
877.162	22900
877.29	22938
877.418	22923
877.546	22790
877.674	22839
877.802	22767
877.93	22927
878.058	22873
878.185	22733
878.313	22896
878.441	22877
878.568	22656
878.696	22763
878.824	22847
878.951	23064
879.079	23022
879.206	23128
879.333	23090
879.461	22839
879.588	22923
879.715	23044
879.842	23094
879.97	22953
880.097	22675
880.224	22729
880.351	22752
880.478	22668
880.605	22611
880.732	22607
880.859	22885
880.986	22641
881.112	22698
881.239	22497
881.366	22653
881.493	22360
881.619	22272
881.746	22303
881.872	22291
881.999	22215
882.125	22196
882.252	22280
882.378	22078
882.505	22386
882.631	22101
882.757	22074
882.883	22006
883.01	22006
883.136	21968
883.262	21960
883.388	21880
883.514	21922
883.64	22063
883.766	21880
883.892	21663
884.018	21736
884.143	21800
884.269	21907
884.395	21610
884.52	21622
884.646	21667
884.772	21507
884.897	21504
885.023	21580
885.148	21591
885.274	21663
885.399	21629
885.524	21671
885.65	21576
885.775	21576
885.9	21511
886.025	21466
886.15	21720
886.275	21477
886.4	21561
886.525	21595
886.65	21595
886.775	21348
886.9	21698
887.025	21918
887.149	21504
887.274	21401
887.399	21386
887.523	21317
887.648	21370
887.773	21188
887.897	21348
888.021	21378
888.146	21367
888.27	21507
888.395	21405
888.519	21481
888.643	21408
888.767	21416
888.891	21218
889.015	21077
889.139	21192
889.263	21081
889.387	21268
889.511	21332
889.635	21207
889.759	21176
889.883	21108
890.006	21051
890.13	21184
890.254	20994
890.377	21039
890.501	20853
890.624	20906
890.748	21005
890.871	20880
890.995	20689
891.118	20670
891.241	20659
891.364	20727
891.488	20857
891.611	20769
891.734	20754
891.857	20781
891.98	20735
892.103	20819
892.226	20781
892.349	20693
892.471	20469
892.594	20583
892.717	20598
892.839	20541
892.962	20575
893.085	20735
893.207	20526
893.33	20465
893.452	20533
893.575	20503
893.697	20560
893.819	20705
893.941	20811
894.064	20594
894.186	20461
894.308	20476
894.43	20746
894.552	20697
894.674	20720
894.796	20526
894.918	20518
895.04	20602
895.161	20492
895.283	20598
895.405	20549
895.526	20499
895.648	20549
895.769	20503
895.891	20533
896.012	20606
896.134	20625
896.255	20693
896.376	20385
896.498	20408
896.619	20552
896.74	20495
896.861	20568
896.982	20861
897.103	21013
897.224	20857
897.345	20727
897.466	20773
897.587	20895
897.708	20838
897.828	20925
897.949	20754
898.07	20632
898.19	20720
898.311	20864
898.431	20781
898.552	20823
898.672	20941
898.792	20899
898.913	20697
899.033	20674
899.153	20659
899.273	20552
899.393	20613
899.513	20621
899.633	20606
899.753	20511
899.873	20404
899.993	20594
900.113	20503
900.232	20552
900.352	20568
900.472	20309
900.591	20339
900.711	20259
900.83	20317
900.95	20377
901.069	20434
901.189	20161
901.308	20016
901.427	19955
901.546	20065
901.665	19852
901.784	19989
901.904	19723
902.023	19605
902.141	19483
902.26	19491
902.379	19445
902.498	19438
902.617	19392
902.735	19457
902.854	19388
902.973	19312
903.091	19126
903.21	19019
903.328	19110
903.446	18985
903.565	18837
903.683	18863
903.801	18730
903.919	18848
904.038	18772
904.156	18665
904.274	18734
904.392	18494
904.51	18521
904.627	18585
904.745	18719
904.863	18688
904.981	18361
905.098	18311
905.216	18205
905.334	18209
905.451	18243
905.569	18315
905.686	18277
905.803	18258
905.921	18053
906.038	18205
906.155	18083
906.272	17859
906.389	17923
906.506	17821
906.623	17840
906.74	17741
906.857	17676
906.974	17726
907.091	17843
907.208	17843
907.324	17847
907.441	17710
907.557	17558
907.674	17566
907.79	17452
907.907	17471
908.023	17528
908.139	17501
908.256	17334
908.372	17452
908.488	17455
908.604	17299
908.72	17303
908.836	17273
908.952	17155
909.068	17299
909.184	17387
909.3	17212
909.415	17364
909.531	17280
909.647	16965
909.762	16995
909.878	16953
909.993	16980
910.108	16889
910.224	16885
910.339	16869
910.454	16782
910.57	16778
910.685	16702
910.8	16885
910.915	16900
911.03	16656
911.145	16573
911.259	16474
911.374	16603
911.489	16451
911.604	16417
911.718	16219
911.833	16268
911.947	16211
912.062	16112
912.176	16196
912.291	16265
912.405	16280
912.519	16360
912.633	16352
912.748	16303
912.862	16261
912.976	16025
913.09	16017
913.204	16040
913.318	16074
913.431	16257
913.545	16128
913.659	16131
913.772	16006
913.886	15819
914	15812
914.113	16044
914.226	15960
914.34	15956
914.453	15736
914.566	15854
914.68	15781
914.793	15679
914.906	15553
915.019	15549
915.132	15325
915.245	15530
915.358	15530
915.47	15519
915.583	15561
915.696	15523
915.809	15553
915.921	15564
916.034	15500
916.146	15332
916.259	15386
916.371	15488
916.483	15450
916.595	15348
916.708	15287
916.82	15344
916.932	15192
917.044	15279
917.156	15192
917.268	15089
917.38	15135
917.491	15074
917.603	15146
917.715	15222
917.826	15146
917.938	15005
918.049	14986
918.161	15009
918.272	15077
918.384	15161
918.495	14967
918.606	14918
918.717	14887
918.828	14895
918.939	14830
919.05	14697
919.161	14876
919.272	14636
919.383	14651
919.494	14834
919.604	15089
919.715	14914
919.826	14743
919.936	14773
920.047	14910
920.157	14861
920.267	15032
920.378	14792
920.488	14750
920.598	15043
920.708	14929
920.818	15013
920.928	14853
921.038	15036
921.148	14994
921.258	14773
921.368	14655
921.477	14537
921.587	14480
921.697	14415
921.806	14518
921.916	14377
922.025	14263
922.134	14252
922.244	14214
922.353	14263
922.462	14134
922.571	14043
922.68	13871
922.789	13841
922.898	13833
923.007	13727
923.116	13795
923.224	13841
923.333	13734
923.442	13757
923.55	13605
923.659	13746
923.767	13666
923.876	13567
923.984	13700
924.092	13620
924.201	13597
924.309	13590
924.417	13510
924.525	13403
924.633	13491
924.741	14286
924.849	13221
924.956	13365
925.064	13339
925.172	13088
925.279	13194
925.387	13232
925.494	13149
925.602	13285
925.709	13263
925.816	13072
925.924	13171
926.031	13225
926.138	13145
926.245	13202
926.352	13099
926.459	13149
926.566	13194
926.673	13160
926.779	12935
926.886	12970
926.993	12840
927.099	12749
927.206	12703
927.312	12707
927.419	12837
927.525	12837
927.631	12829
927.737	12700
927.843	12578
927.95	12483
928.056	12585
928.162	12620
928.267	12722
928.373	13274
928.479	12703
928.585	12391
928.69	12448
928.796	12536
928.901	12494
929.007	12251
929.112	12365
929.218	12372
929.323	12388
929.428	12350
929.533	12410
929.638	12216
929.743	12258
929.848	12342
929.953	12235
930.058	12152
930.163	11920
930.267	11999
930.372	12186
930.477	11999
930.581	12148
930.685	11984
930.79	11863
930.894	11836
930.998	11843
931.103	12015
931.207	11657
931.311	11539
931.415	11440
931.519	11258
931.623	11216
