Data from test_V78500241_2054.txt Node
Date: Fri Mar 25 15:24:09 CST 2022
User: usil
Spectrometer: V785-0024
Trigger mode: 0
Integration Time (sec): 4.000000E-1
Scans to average: 1
Nonlinearity correction enabled: false
Boxcar width: 0
Storing dark spectrum: false
XAxis mode: Wavelengths
Number of Pixels in Spectrum: 1024
>>>>>Begin Spectral Data<<<<<
801.071	27576
801.214	27397
801.356	27348
801.499	27176
801.641	27161
801.783	27013
801.926	27188
802.068	27104
802.211	27055
802.353	26948
802.496	26830
802.638	26781
802.78	26735
802.923	26712
803.065	26667
803.208	26670
803.35	26861
803.492	26750
803.635	27009
803.777	26929
803.919	27017
804.061	27241
804.204	27089
804.346	26925
804.488	26819
804.63	26948
804.773	26899
804.915	26982
805.057	26948
805.199	26788
805.341	27070
805.483	27081
805.626	26975
805.768	26842
805.91	27089
806.052	27001
806.194	26990
806.336	27123
806.478	27077
806.62	27013
806.762	27135
806.904	27317
807.046	27523
807.188	27466
807.33	27549
807.472	27485
807.614	27340
807.756	27374
807.898	27264
808.04	27142
808.182	27302
808.324	27427
808.465	27302
808.607	27557
808.749	27606
808.891	27694
809.033	27743
809.174	27713
809.316	27500
809.458	27622
809.6	27599
809.741	27751
809.883	27838
810.025	27979
810.166	27895
810.308	27911
810.45	27823
810.591	27705
810.733	27561
810.875	27629
811.016	27416
811.158	27568
811.299	27724
811.441	27603
811.582	27808
811.724	27595
811.865	27545
812.007	27641
812.148	27568
812.29	27660
812.431	27785
812.573	27960
812.714	28139
812.855	28249
812.997	28257
813.138	28386
813.279	28226
813.421	28181
813.562	28147
813.703	27930
813.845	27736
813.986	27557
814.127	27408
814.268	27340
814.41	27397
814.551	27176
814.692	27477
814.833	27184
814.974	27321
815.115	27340
815.256	27089
815.397	27207
815.539	27005
815.68	27062
815.821	27028
815.962	27165
816.103	27096
816.244	26929
816.385	26762
816.526	26823
816.666	26598
816.807	26568
816.948	26632
817.089	26693
817.23	26617
817.371	26507
817.512	26651
817.653	26613
817.793	26492
817.934	26625
818.075	26670
818.216	26640
818.356	26556
818.497	26469
818.638	26438
818.778	26396
818.919	26434
819.06	26271
819.2	26636
819.341	26556
819.481	26617
819.622	26853
819.762	26940
819.903	26693
820.043	26815
820.184	26678
820.324	26648
820.465	26773
820.605	26720
820.746	26682
820.886	26613
821.026	26644
821.167	26689
821.307	26708
821.447	26571
821.588	26560
821.728	26377
821.868	26286
822.008	26103
822.149	26054
822.289	26050
822.429	25727
822.569	25772
822.709	25780
822.849	25582
822.99	25609
823.13	25362
823.27	25476
823.41	25403
823.55	25198
823.69	25320
823.83	25377
823.97	25377
824.11	25069
824.25	25107
824.389	25141
824.529	25236
824.669	25240
824.809	25236
824.949	25221
825.089	25072
825.228	25175
825.368	25004
825.508	24970
825.648	25156
825.787	24958
825.927	25065
826.067	25091
826.206	24932
826.346	25129
826.485	25057
826.625	25034
826.765	25217
826.904	25000
827.044	24783
827.183	24715
827.323	24665
827.462	24688
827.601	24764
827.741	24871
827.88	24745
828.02	24608
828.159	24730
828.298	24833
828.437	24639
828.577	24738
828.716	24779
828.855	24738
828.994	24525
829.134	24467
829.273	24582
829.412	24570
829.551	24467
829.69	24460
829.829	24483
829.968	24616
830.107	24483
830.246	24445
830.385	24376
830.524	24467
830.663	24190
830.802	24281
830.941	24034
831.08	23988
831.219	24167
831.357	24209
831.496	24296
831.635	23996
831.774	24045
831.913	23977
832.051	23840
832.19	23878
832.329	23984
832.467	23767
832.606	23718
832.744	23680
832.883	23790
833.022	23699
833.16	23710
833.299	23790
833.437	23813
833.576	23847
833.714	23729
833.852	23813
833.991	23813
834.129	23821
834.267	23813
834.406	23821
834.544	23779
834.682	23779
834.821	23779
834.959	24144
835.097	23657
835.235	23802
835.373	23863
835.511	23741
835.65	23638
835.788	23699
835.926	23463
836.064	23417
836.202	23482
836.34	23722
836.478	23707
836.615	23566
836.753	23634
836.891	23756
837.029	23657
837.167	23497
837.305	23573
837.443	23600
837.58	23600
837.718	23562
837.856	23638
837.993	23398
838.131	23596
838.269	23376
838.406	23433
838.544	23284
838.681	23086
838.819	23079
838.956	23003
839.094	22961
839.231	22938
839.369	23029
839.506	23318
839.643	23311
839.781	23010
839.918	22862
840.055	23033
840.193	23018
840.33	22892
840.467	22869
840.604	22858
840.742	23143
840.879	22771
841.016	22752
841.153	22740
841.29	23071
841.427	22828
841.564	22854
841.701	22820
841.838	22691
841.975	22831
842.112	22801
842.249	22630
842.385	22618
842.522	22797
842.659	22649
842.796	22607
842.933	22653
843.069	22611
843.206	22565
843.343	22618
843.479	22588
843.616	22721
843.752	22352
843.889	22440
844.025	22569
844.162	22466
844.298	22550
844.435	22489
844.571	22325
844.708	22409
844.844	22512
844.98	22603
845.117	22485
845.253	22371
845.389	22440
845.525	22504
845.661	22325
845.798	22211
845.934	22185
846.07	22116
846.206	22177
846.342	22284
846.478	22109
846.614	22059
846.75	21911
846.886	21797
847.022	21956
847.158	21953
847.294	21812
847.429	21865
847.565	21831
847.701	22128
847.837	21587
847.972	21583
848.108	21751
848.244	21701
848.379	21564
848.515	21416
848.65	21416
848.786	21511
848.921	21485
849.057	21572
849.192	21610
849.328	21481
849.463	21454
849.598	21416
849.734	21416
849.869	21302
850.004	21252
850.14	21222
850.275	21294
850.41	21203
850.545	21169
850.68	21214
850.815	21325
850.95	21302
851.085	21515
851.22	21348
851.355	21283
851.49	21066
851.625	21256
851.76	21260
851.895	21093
852.03	21142
852.165	21161
852.299	21340
852.434	21237
852.569	21195
852.703	21176
852.838	21195
852.973	21332
853.107	21279
853.242	21188
853.376	21096
853.511	20921
853.645	20948
853.78	21100
853.914	21074
854.048	21085
854.183	20941
854.317	21268
854.451	21340
854.585	21028
854.72	21138
854.854	21306
854.988	21017
855.122	21127
855.256	20914
855.39	21020
855.524	21108
855.658	21104
855.792	21005
855.926	21036
856.06	21051
856.194	21020
856.327	21112
856.461	20979
856.595	20979
856.729	20975
856.862	21081
856.996	21100
857.13	21043
857.263	21138
857.397	21089
857.53	21096
857.664	21017
857.797	21169
857.931	21226
858.064	21077
858.197	21062
858.331	21024
858.464	21028
858.597	20937
858.731	21047
858.864	20925
858.997	21070
859.13	21055
859.263	21081
859.396	21241
859.529	21100
859.662	20967
859.795	21100
859.928	21123
860.061	21233
860.194	21393
860.327	21013
860.46	21142
860.592	21310
860.725	21142
860.858	21264
860.99	21127
861.123	20982
861.256	21024
861.388	21066
861.521	21682
861.653	20952
861.786	20823
861.918	20872
862.05	20941
862.183	20914
862.315	21036
862.447	21013
862.58	21070
862.712	20746
862.844	20712
862.976	20823
863.108	21005
863.24	21192
863.372	20762
863.504	20785
863.636	20701
863.768	20804
863.9	20906
864.032	20644
864.164	20640
864.296	20826
864.428	20944
864.559	20830
864.691	20887
864.823	20788
864.954	20689
865.086	20792
865.217	20636
865.349	20511
865.48	20621
865.612	20571
865.743	20788
865.875	20549
866.006	20568
866.137	20640
866.269	20823
866.4	20667
866.531	20629
866.662	20571
866.793	20617
866.924	20636
867.055	20743
867.186	20716
867.317	20564
867.448	20560
867.579	20667
867.71	20499
867.841	20457
867.972	20537
868.103	20663
868.233	20549
868.364	20571
868.495	20606
868.625	20781
868.756	21043
868.886	20769
869.017	20834
869.147	20838
869.278	20998
869.408	20800
869.539	20739
869.669	20960
869.799	20697
869.929	20982
870.06	20944
870.19	21169
870.32	21051
870.45	21131
870.58	21256
870.71	21264
870.84	21340
870.97	21230
871.1	21359
871.23	21336
871.36	21507
871.489	21321
871.619	21367
871.749	21431
871.879	21424
872.008	21606
872.138	21477
872.267	21405
872.397	21287
872.526	21348
872.656	21359
872.785	21230
872.915	21393
873.044	21519
873.173	21416
873.303	21488
873.432	21481
873.561	21591
873.69	21568
873.819	21526
873.948	21469
874.077	21538
874.206	21272
874.335	21291
874.464	21580
874.593	21698
874.722	21595
874.851	21686
874.979	21618
875.108	21641
875.237	21538
875.365	21469
875.494	21698
875.623	21827
875.751	21671
875.88	21694
876.008	21797
876.136	21808
876.265	22200
876.393	22268
876.521	22219
876.65	22185
876.778	22040
876.906	21945
877.034	22002
877.162	22177
877.29	21975
877.418	21994
877.546	21975
877.674	22040
877.802	22006
877.93	22070
878.058	21934
878.185	21880
878.313	22048
878.441	21983
878.568	21812
878.696	22006
878.824	22044
878.951	22181
879.079	22181
879.206	22299
879.333	22226
879.461	22078
879.588	22158
879.715	22253
879.842	22314
879.97	22040
880.097	21762
880.224	21759
880.351	21869
880.478	21884
880.605	21876
880.732	21911
880.859	22112
880.986	21953
881.112	21857
881.239	21797
881.366	21698
881.493	21530
881.619	21389
881.746	21405
881.872	21500
881.999	21386
882.125	21374
882.252	21348
882.378	21332
882.505	21458
882.631	21268
882.757	21214
882.883	21310
883.01	21142
883.136	21138
883.262	20925
883.388	20921
883.514	21188
883.64	21116
883.766	21104
883.892	20952
884.018	20880
884.143	21081
884.269	21245
884.395	20883
884.52	20785
884.646	20773
884.772	20788
884.897	20571
885.023	20762
885.148	20986
885.274	20811
885.399	20918
885.524	20834
885.65	20727
885.775	20735
885.9	20838
886.025	20883
886.15	20872
886.275	20762
886.4	20644
886.525	20800
886.65	20705
886.775	20678
886.9	20986
887.025	20994
887.149	20743
887.274	20670
887.399	20693
887.523	20583
887.648	20522
887.773	20366
887.897	20689
888.021	20651
888.146	20480
888.27	20686
888.395	20609
888.519	20412
888.643	20499
888.767	20682
888.891	20556
889.015	20393
889.139	20419
889.263	20370
889.387	20495
889.511	20537
889.635	20446
889.759	20320
889.883	20457
890.006	20324
890.13	20549
890.254	20317
890.377	20267
890.501	20138
890.624	20115
890.748	20290
890.871	20027
890.995	19928
891.118	19780
891.241	19955
891.364	19906
891.488	20001
891.611	19955
891.734	19913
891.857	20005
891.98	19974
892.103	19947
892.226	19982
892.349	19909
892.471	19689
892.594	19928
892.717	19830
892.839	19750
892.962	19845
893.085	19986
893.207	19772
893.33	19712
893.452	19746
893.575	19875
893.697	19753
893.819	19963
893.941	19997
894.064	20069
894.186	19799
894.308	19811
894.43	19887
894.552	20012
894.674	19814
894.796	19776
894.918	19833
895.04	19772
895.161	19852
895.283	19928
895.405	19830
895.526	19841
895.648	19822
895.769	19940
895.891	19807
896.012	19864
896.134	19841
896.255	19906
896.376	19780
896.498	19890
896.619	19947
896.74	19788
896.861	19947
896.982	20187
897.103	20290
897.224	20115
897.345	20058
897.466	20058
897.587	20088
897.708	20096
897.828	20199
897.949	19989
898.07	19902
898.19	20073
898.311	20187
898.431	19989
898.552	20016
898.672	20046
898.792	20233
898.913	19978
899.033	19928
899.153	19780
899.273	19833
899.393	19772
899.513	19788
899.633	19890
899.753	19883
899.873	19814
899.993	19811
900.113	19780
900.232	19818
900.352	19689
900.472	19670
900.591	19567
900.711	19715
900.83	19567
900.95	19677
901.069	19666
901.189	19514
901.308	19217
901.427	19217
901.546	19282
901.665	19152
901.784	19202
901.904	19118
902.023	18996
902.141	18802
902.26	18779
902.379	18844
902.498	18635
902.617	18684
902.735	18772
902.854	18696
902.973	18578
903.091	18422
903.21	18471
903.328	18414
903.446	18201
903.565	18102
903.683	18178
903.801	17916
903.919	18129
904.038	18114
904.156	18030
904.274	17988
904.392	18026
904.51	17939
904.627	18038
904.745	18026
904.863	18011
904.981	17779
905.098	17657
905.216	17707
905.334	17718
905.451	17748
905.569	17646
905.686	17627
905.803	17649
905.921	17440
906.038	17444
906.155	17474
906.272	17341
906.389	17372
906.506	17140
906.623	17151
906.74	17174
906.857	17022
906.974	17033
907.091	17178
907.208	17414
907.324	17189
907.441	17136
907.557	16908
907.674	16892
907.79	16866
907.907	16736
908.023	16923
908.139	16877
908.256	16809
908.372	16809
908.488	16771
908.604	16744
908.72	16542
908.836	16672
908.952	16455
909.068	16637
909.184	16721
909.3	16668
909.415	16656
909.531	16611
909.647	16348
909.762	16219
909.878	16200
909.993	16379
910.108	16329
910.224	16291
910.339	16295
910.454	16177
910.57	16135
910.685	16017
910.8	16211
910.915	16261
911.03	16124
911.145	15915
911.259	15911
911.374	15922
911.489	15838
911.604	15846
911.718	15587
911.833	15515
911.947	15545
912.062	15393
912.176	15614
912.291	15599
912.405	15641
912.519	15781
912.633	15911
912.748	15694
912.862	15785
912.976	15469
913.09	15481
913.204	15450
913.318	15488
913.431	15690
913.545	15606
913.659	15603
913.772	15542
913.886	15317
914	15302
914.113	15298
914.226	15348
914.34	15165
914.453	15211
914.566	15302
914.68	15218
914.793	15176
914.906	14933
915.019	14807
915.132	14815
915.245	14899
915.358	14872
915.47	14868
915.583	14792
915.696	14982
915.809	14982
915.921	15009
916.034	14830
916.146	14826
916.259	14773
916.371	14876
916.483	14891
916.595	14621
916.708	14659
916.82	14686
916.932	14613
917.044	14587
917.156	14606
917.268	14610
917.38	14571
917.491	14427
917.603	14644
917.715	14579
917.826	14564
917.938	14419
918.049	14385
918.161	14454
918.272	14545
918.384	14541
918.495	14438
918.606	14278
918.717	14275
918.828	14317
918.939	14290
919.05	14286
919.161	14271
919.272	14145
919.383	14062
919.494	14320
919.604	14556
919.715	14301
919.826	14134
919.936	14210
920.047	14351
920.157	14362
920.267	14408
920.378	14298
920.488	14233
920.598	14370
920.708	14484
920.818	14404
920.928	14336
921.038	14499
921.148	14503
921.258	14286
921.368	14145
921.477	14115
921.587	13989
921.697	13898
921.806	14031
921.916	13879
922.025	13742
922.134	13609
922.244	13651
922.353	13582
922.462	13544
922.571	13510
922.68	13350
922.789	13324
922.898	13301
923.007	13297
923.116	13301
923.224	13259
923.333	13221
923.442	13069
923.55	13099
923.659	13194
923.767	13141
923.876	13072
923.984	13099
924.092	13023
924.201	13080
924.309	13118
924.417	13152
924.525	12928
924.633	13023
924.741	13772
924.849	12852
924.956	12894
925.064	12787
925.172	12700
925.279	12779
925.387	12703
925.494	12669
925.602	12814
925.709	12791
925.816	12700
925.924	12703
926.031	12707
926.138	12753
926.245	12745
926.352	12555
926.459	12760
926.566	12707
926.673	12585
926.779	12494
926.886	12475
926.993	12292
927.099	12300
927.206	12209
927.312	12239
927.419	12361
927.525	12384
927.631	12327
927.737	12186
927.843	12163
927.95	11939
928.056	12224
928.162	12159
928.267	12121
928.373	12696
928.479	12190
928.585	11999
928.69	12125
928.796	12098
928.901	11980
929.007	11790
929.112	11927
929.218	12011
929.323	11893
929.428	11843
929.533	11977
929.638	11764
929.743	11843
929.848	11847
929.953	11851
930.058	11684
930.163	11600
930.267	11627
930.372	11684
930.477	11486
930.581	11783
930.685	11665
930.79	11448
930.894	11570
930.998	11376
931.103	11543
931.207	11239
931.311	11132
931.415	11064
931.519	10831
931.623	10904
