Data from test_V78500241_1603.txt Node
Date: Fri Mar 25 15:21:01 CST 2022
User: usil
Spectrometer: V785-0024
Trigger mode: 0
Integration Time (sec): 4.000000E-1
Scans to average: 1
Nonlinearity correction enabled: false
Boxcar width: 0
Storing dark spectrum: false
XAxis mode: Wavelengths
Number of Pixels in Spectrum: 1024
>>>>>Begin Spectral Data<<<<<
801.071	27876
801.214	27918
801.356	27660
801.499	27622
801.641	27454
801.783	27591
801.926	27580
802.068	27523
802.211	27378
802.353	27408
802.496	27363
802.638	27123
802.78	27093
802.923	27077
803.065	27252
803.208	27173
803.35	27157
803.492	27275
803.635	27321
803.777	27096
803.919	27382
804.061	27564
804.204	27466
804.346	27287
804.488	27344
804.63	27332
804.773	27340
804.915	27462
805.057	27641
805.199	27378
805.341	27545
805.483	27580
805.626	27637
805.768	27397
805.91	27306
806.052	27557
806.194	27530
806.336	27637
806.478	27504
806.62	27557
806.762	27625
806.904	27736
807.046	27880
807.188	27819
807.33	27914
807.472	28002
807.614	27816
807.756	28006
807.898	27835
808.04	27739
808.182	27781
808.324	27766
808.465	27949
808.607	28017
808.749	28143
808.891	28246
809.033	28196
809.174	28173
809.316	27945
809.458	28154
809.6	28090
809.741	28219
809.883	28246
810.025	28459
810.166	28447
810.308	28428
810.45	28478
810.591	28246
810.733	28215
810.875	28112
811.016	27903
811.158	27994
811.299	28116
811.441	28181
811.582	28363
811.724	28215
811.865	28059
812.007	28105
812.148	28063
812.29	28169
812.431	28386
812.573	28481
812.714	28538
812.855	28649
812.997	28797
813.138	28904
813.279	28835
813.421	28687
813.562	28634
813.703	28474
813.845	28432
813.986	28093
814.127	27846
814.268	27732
814.41	27956
814.551	27720
814.692	27987
814.833	27816
814.974	27838
815.115	27861
815.256	27804
815.397	27542
815.539	27747
815.68	27542
815.821	27591
815.962	27641
816.103	27720
816.244	27511
816.385	27492
816.526	27424
816.666	27233
816.807	27112
816.948	27214
817.089	27287
817.23	27180
817.371	27192
817.512	27116
817.653	27100
817.793	27009
817.934	27032
818.075	27195
818.216	27096
818.356	27070
818.497	26994
818.638	26834
818.778	27062
818.919	26883
819.06	26960
819.2	27135
819.341	27157
819.481	27096
819.622	27199
819.762	27488
819.903	27397
820.043	27329
820.184	27260
820.324	27283
820.465	27374
820.605	27317
820.746	27169
820.886	27108
821.026	27146
821.167	27237
821.307	27283
821.447	27093
821.588	27001
821.728	26902
821.868	26804
822.008	26621
822.149	26640
822.289	26522
822.429	26164
822.569	26168
822.709	26282
822.849	26115
822.99	26145
823.13	26100
823.27	26062
823.41	25890
823.55	25833
823.69	25963
823.83	25974
823.97	25765
824.11	25750
824.25	25693
824.389	25639
824.529	25742
824.669	25746
824.809	25761
824.949	25818
825.089	25780
825.228	25761
825.368	25510
825.508	25518
825.648	25506
825.787	25643
825.927	25643
826.067	25674
826.206	25559
826.346	25685
826.485	25761
826.625	25601
826.765	25780
826.904	25734
827.044	25426
827.183	25430
827.323	25365
827.462	25362
827.601	25377
827.741	25285
827.88	25247
828.02	25301
828.159	25350
828.298	25335
828.437	25441
828.577	25240
828.716	25331
828.855	25263
828.994	24977
829.134	25061
829.273	24992
829.412	24996
829.551	24920
829.69	25057
829.829	25072
829.968	25095
830.107	25088
830.246	24882
830.385	24958
830.524	24897
830.663	24916
830.802	24817
830.941	24741
831.08	24475
831.219	24681
831.357	24821
831.496	24916
831.635	24734
831.774	24513
831.913	24464
832.051	24418
832.19	24433
832.329	24490
832.467	24327
832.606	24277
832.744	24285
832.883	24330
833.022	24330
833.16	24281
833.299	24327
833.437	24327
833.576	24471
833.714	24346
833.852	24388
833.991	24308
834.129	24467
834.267	24330
834.406	24357
834.544	24281
834.682	24365
834.821	24292
834.959	24490
835.097	24216
835.235	24384
835.373	24380
835.511	24285
835.65	24197
835.788	24197
835.926	24125
836.064	23980
836.202	24117
836.34	24133
836.478	24350
836.615	24254
836.753	24254
836.891	24232
837.029	24155
837.167	24205
837.305	24049
837.443	23973
837.58	24003
837.718	24152
837.856	24060
837.993	24095
838.131	23996
838.269	23866
838.406	24003
838.544	23935
838.681	23748
838.819	23687
838.956	23668
839.094	23444
839.231	23577
839.369	23634
839.506	23878
839.643	23646
839.781	23459
839.918	23490
840.055	23570
840.193	23512
840.33	23539
840.467	23463
840.604	23490
840.742	23684
840.879	23265
841.016	23402
841.153	23315
841.29	23459
841.427	23425
841.564	23505
841.701	23493
841.838	23322
841.975	23452
842.112	23296
842.249	23322
842.385	23159
842.522	23364
842.659	23280
842.796	23178
842.933	23140
843.069	23147
843.206	23121
843.343	23311
843.479	23204
843.616	23162
843.752	23029
843.889	23018
844.025	23083
844.162	22957
844.298	23067
844.435	22934
844.571	22900
844.708	22805
844.844	23197
844.98	23155
845.117	23143
845.253	22809
845.389	22889
845.525	22721
845.661	22759
845.798	22668
845.934	22763
846.07	22611
846.206	22771
846.342	22809
846.478	22615
846.614	22474
846.75	22299
846.886	22394
847.022	22367
847.158	22535
847.294	22451
847.429	22424
847.565	22390
847.701	22748
847.837	22211
847.972	22120
848.108	22268
848.244	22124
848.379	21998
848.515	22082
848.65	22093
848.786	22017
848.921	21972
849.057	22067
849.192	22090
849.328	22067
849.463	21956
849.598	21968
849.734	21827
849.869	21838
850.004	21770
850.14	21865
850.275	21934
850.41	21682
850.545	21717
850.68	21724
850.815	21846
850.95	21751
851.085	21979
851.22	21823
851.355	21827
851.49	21698
851.625	21755
851.76	21671
851.895	21682
852.03	21709
852.165	21652
852.299	21800
852.434	21884
852.569	21743
852.703	21778
852.838	21892
852.973	21800
853.107	21911
853.242	21682
853.376	21618
853.511	21447
853.645	21542
853.78	21625
853.914	21530
854.048	21572
854.183	21485
854.317	21523
854.451	21618
854.585	21591
854.72	21534
854.854	21652
854.988	21477
855.122	21583
855.256	21424
855.39	21583
855.524	21629
855.658	21625
855.792	21622
855.926	21656
856.06	21682
856.194	21705
856.327	21572
856.461	21523
856.595	21568
856.729	21530
856.862	21724
856.996	21637
857.13	21637
857.263	21720
857.397	21682
857.53	21618
857.664	21557
857.797	21656
857.931	21690
858.064	21534
858.197	21629
858.331	21504
858.464	21561
858.597	21462
858.731	21644
858.864	21568
858.997	21504
859.13	21568
859.263	21549
859.396	21545
859.529	21667
859.662	21538
859.795	21340
859.928	21641
860.061	21587
860.194	21667
860.327	21656
860.46	21587
860.592	21690
860.725	21663
860.858	21576
860.99	21713
861.123	21370
861.256	21454
861.388	21606
861.521	22223
861.653	21416
861.786	21374
861.918	21492
862.05	21534
862.183	21408
862.315	21504
862.447	21435
862.58	21572
862.712	21370
862.844	21192
862.976	21393
863.108	21340
863.24	21656
863.372	21192
863.504	21192
863.636	21222
863.768	21348
863.9	21370
864.032	21268
864.164	21294
864.296	21268
864.428	21359
864.559	21401
864.691	21302
864.823	21294
864.954	21211
865.086	21249
865.217	21226
865.349	21047
865.48	21214
865.612	21047
865.743	21363
865.875	21150
866.006	21100
866.137	21188
866.269	21020
866.4	21104
866.531	21077
866.662	21024
866.793	21104
866.924	21058
867.055	21142
867.186	21169
867.317	21070
867.448	21058
867.579	21131
867.71	20956
867.841	21055
867.972	21112
868.103	20925
868.233	20952
868.364	21150
868.495	21207
868.625	21344
868.756	21545
868.886	21252
869.017	21252
869.147	21473
869.278	21374
869.408	21332
869.539	21287
869.669	21515
869.799	21401
869.929	21447
870.06	21469
870.19	21603
870.32	21564
870.45	21618
870.58	21701
870.71	21747
870.84	21819
870.97	21781
871.1	21709
871.23	21922
871.36	21983
871.489	21838
871.619	21903
871.749	21789
871.879	21949
872.008	22040
872.138	21930
872.267	21846
872.397	21854
872.526	21770
872.656	21873
872.785	21800
872.915	21911
873.044	22139
873.173	21922
873.303	22090
873.432	22051
873.561	22070
873.69	21968
873.819	22032
873.948	21956
874.077	21926
874.206	21850
874.335	21956
874.464	22116
874.593	22192
874.722	22135
874.851	22147
874.979	22238
875.108	22226
875.237	22162
875.365	22063
875.494	22219
875.623	22360
875.751	22150
875.88	22314
876.008	22238
876.136	22314
876.265	22527
876.393	22641
876.521	22554
876.65	22668
876.778	22698
876.906	22390
877.034	22592
877.162	22504
877.29	22497
877.418	22649
877.546	22569
877.674	22531
877.802	22656
877.93	22664
878.058	22500
878.185	22402
878.313	22402
878.441	22519
878.568	22398
878.696	22409
878.824	22538
878.951	22687
879.079	22637
879.206	22717
879.333	22626
879.461	22546
879.588	22630
879.715	22664
879.842	22824
879.97	22645
880.097	22436
880.224	22348
880.351	22546
880.478	22352
880.605	22402
880.732	22363
880.859	22592
880.986	22390
881.112	22409
881.239	22131
881.366	22074
881.493	22025
881.619	21979
881.746	22017
881.872	22029
881.999	21793
882.125	21827
882.252	21922
882.378	21857
882.505	21964
882.631	21812
882.757	21743
882.883	21686
883.01	21641
883.136	21587
883.262	21447
883.388	21397
883.514	21526
883.64	21652
883.766	21523
883.892	21279
884.018	21431
884.143	21580
884.269	21599
884.395	21279
884.52	21165
884.646	21249
884.772	21154
884.897	21207
885.023	21214
885.148	21344
885.274	21454
885.399	21374
885.524	21317
885.65	21291
885.775	21279
885.9	21150
886.025	21340
886.15	21268
886.275	21154
886.4	21165
886.525	21211
886.65	21211
886.775	21074
886.9	21370
887.025	21469
887.149	21249
887.274	21074
887.399	21055
887.523	20979
887.648	21051
887.773	20845
887.897	21127
888.021	21138
888.146	20925
888.27	21058
888.395	21096
888.519	21058
888.643	21051
888.767	20925
888.891	20906
889.015	20838
889.139	20762
889.263	20811
889.387	20910
889.511	21070
889.635	20906
889.759	20887
889.883	20769
890.006	20792
890.13	20883
890.254	20785
890.377	20727
890.501	20602
890.624	20446
890.748	20571
890.871	20457
890.995	20423
891.118	20362
891.241	20533
891.364	20374
891.488	20442
891.611	20514
891.734	20328
891.857	20358
891.98	20457
892.103	20431
892.226	20415
892.349	20351
892.471	20172
892.594	20267
892.717	20404
892.839	20237
892.962	20252
893.085	20385
893.207	20286
893.33	20176
893.452	20210
893.575	20343
893.697	20374
893.819	20492
893.941	20339
894.064	20389
894.186	20191
894.308	20244
894.43	20507
894.552	20564
894.674	20362
894.796	20153
894.918	20286
895.04	20229
895.161	20370
895.283	20225
895.405	20301
895.526	20396
895.648	20187
895.769	20210
895.891	20419
896.012	20423
896.134	20328
896.255	20294
896.376	20237
896.498	20191
896.619	20301
896.74	20328
896.861	20355
896.982	20507
897.103	20587
897.224	20473
897.345	20415
897.466	20305
897.587	20400
897.708	20655
897.828	20541
897.949	20473
898.07	20385
898.19	20427
898.311	20560
898.431	20427
898.552	20511
898.672	20511
898.792	20518
898.913	20434
899.033	20309
899.153	20347
899.273	20058
899.393	20115
899.513	20233
899.633	20278
899.753	20172
899.873	20142
899.993	20267
900.113	20183
900.232	20176
900.352	20176
900.472	20100
900.591	19921
900.711	20062
900.83	19978
900.95	20130
901.069	20001
901.189	19959
901.308	19765
901.427	19639
901.546	19483
901.665	19578
901.784	19696
901.904	19419
902.023	19369
902.141	19133
902.26	19168
902.379	19236
902.498	19179
902.617	19042
902.735	19255
902.854	19129
902.973	19107
903.091	18905
903.21	18707
903.328	18749
903.446	18700
903.565	18654
903.683	18711
903.801	18464
903.919	18445
904.038	18574
904.156	18327
904.274	18410
904.392	18327
904.51	18323
904.627	18346
904.745	18399
904.863	18289
904.981	18148
905.098	18045
905.216	18030
905.334	18076
905.451	18053
905.569	17920
905.686	18030
905.803	17935
905.921	17901
906.038	17942
906.155	17802
906.272	17638
906.389	17634
906.506	17551
906.623	17691
906.74	17490
906.857	17414
906.974	17509
907.091	17589
907.208	17657
907.324	17592
907.441	17334
907.557	17292
907.674	17197
907.79	17250
907.907	17147
908.023	17334
908.139	17250
908.256	17178
908.372	17143
908.488	17121
908.604	17086
908.72	16980
908.836	17083
908.952	17037
909.068	16934
909.184	16976
909.3	17090
909.415	17060
909.531	16862
909.647	16736
909.762	16729
909.878	16653
909.993	16687
910.108	16691
910.224	16580
910.339	16691
910.454	16573
910.57	16535
910.685	16398
910.8	16702
910.915	16611
911.03	16554
911.145	16268
911.259	16299
911.374	16268
911.489	16135
911.604	16112
911.718	15937
911.833	15960
911.947	15949
912.062	15911
912.176	16029
912.291	16002
912.405	16010
912.519	16162
912.633	16192
912.748	16051
912.862	15953
912.976	15884
913.09	15694
913.204	15800
913.318	15880
913.431	15949
913.545	15800
913.659	15926
913.772	15812
913.886	15709
914	15644
914.113	15641
914.226	15774
914.34	15641
914.453	15595
914.566	15739
914.68	15466
914.793	15496
914.906	15424
915.019	15211
915.132	15233
915.245	15268
915.358	15283
915.47	15222
915.583	15188
915.696	15287
915.809	15199
915.921	15249
916.034	15279
916.146	15089
916.259	15180
916.371	15157
916.483	15135
916.595	15104
916.708	15013
916.82	15062
916.932	15043
917.044	15039
917.156	14994
917.268	14925
917.38	14823
917.491	14826
917.603	14826
917.715	15024
917.826	14906
917.938	14902
918.049	14640
918.161	14811
918.272	15001
918.384	14937
918.495	14781
918.606	14678
918.717	14598
918.828	14716
918.939	14708
919.05	14590
919.161	14644
919.272	14495
919.383	14541
919.494	14735
919.604	14807
919.715	14568
919.826	14587
919.936	14514
920.047	14629
920.157	14564
920.267	14754
920.378	14571
920.488	14560
920.598	14777
920.708	14853
920.818	14712
920.928	14667
921.038	14914
921.148	14891
921.258	14533
921.368	14476
921.477	14442
921.587	14309
921.697	14168
921.806	14347
921.916	14218
922.025	13940
922.134	14065
922.244	13947
922.353	13986
922.462	13845
922.571	13723
922.68	13738
922.789	13655
922.898	13643
923.007	13559
923.116	13689
923.224	13601
923.333	13632
923.442	13518
923.55	13510
923.659	13457
923.767	13491
923.876	13354
923.984	13510
924.092	13301
924.201	13324
924.309	13384
924.417	13403
924.525	13270
924.633	13285
924.741	14149
924.849	13099
924.956	13202
925.064	13103
925.172	12981
925.279	12958
925.387	13046
925.494	13008
925.602	13206
925.709	13061
925.816	13015
925.924	13050
926.031	12993
926.138	12962
926.245	13012
926.352	12871
926.459	12996
926.566	13080
926.673	12837
926.779	12791
926.886	12776
926.993	12654
927.099	12585
927.206	12445
927.312	12604
927.419	12658
927.525	12589
927.631	12566
927.737	12506
927.843	12475
927.95	12319
928.056	12399
928.162	12426
928.267	12391
928.373	13053
928.479	12433
928.585	12338
928.69	12350
928.796	12452
928.901	12285
929.007	12106
929.112	12289
929.218	12277
929.323	12095
929.428	12106
929.533	12266
929.638	12064
929.743	12125
929.848	12140
929.953	12091
930.058	12038
930.163	11863
930.267	11912
930.372	11999
930.477	11783
930.581	11996
930.685	11832
930.79	11657
930.894	11676
930.998	11668
931.103	11843
931.207	11387
931.311	11334
931.415	11254
931.519	11121
931.623	11006
