Data from test_V78500241_283.txt Node
Date: Fri Mar 25 15:11:49 CST 2022
User: usil
Spectrometer: V785-0024
Trigger mode: 0
Integration Time (sec): 4.000000E-1
Scans to average: 1
Nonlinearity correction enabled: false
Boxcar width: 0
Storing dark spectrum: false
XAxis mode: Wavelengths
Number of Pixels in Spectrum: 1024
>>>>>Begin Spectral Data<<<<<
801.071	27827
801.214	27899
801.356	27538
801.499	27564
801.641	27481
801.783	27462
801.926	27549
802.068	27469
802.211	27363
802.353	27355
802.496	27104
802.638	27131
802.78	27085
802.923	27165
803.065	27085
803.208	27096
803.35	27062
803.492	27310
803.635	27154
803.777	27249
803.919	27199
804.061	27523
804.204	27252
804.346	27100
804.488	27100
804.63	27203
804.773	27100
804.915	27119
805.057	27332
805.199	27207
805.341	27272
805.483	27344
805.626	27237
805.768	27302
805.91	27268
806.052	27226
806.194	27374
806.336	27412
806.478	27306
806.62	27321
806.762	27386
806.904	27606
807.046	27709
807.188	27641
807.33	27724
807.472	27709
807.614	27690
807.756	27739
807.898	27523
808.04	27519
808.182	27469
808.324	27485
808.465	27572
808.607	27542
808.749	27785
808.891	27972
809.033	28128
809.174	28185
809.316	27850
809.458	27983
809.6	27888
809.741	27934
809.883	28074
810.025	28162
810.166	28166
810.308	28017
810.45	28196
810.591	28196
810.733	27914
810.875	27823
811.016	27846
811.158	27781
811.299	27949
811.441	27983
811.582	27937
811.724	27880
811.865	27781
812.007	27819
812.148	27895
812.29	27797
812.431	28067
812.573	28204
812.714	28280
812.855	28421
812.997	28489
813.138	28493
813.279	28401
813.421	28413
813.562	28295
813.703	28299
813.845	28093
813.986	27793
814.127	27568
814.268	27477
814.41	27599
814.551	27408
814.692	27587
814.833	27416
814.974	27439
815.115	27469
815.256	27329
815.397	27351
815.539	27351
815.68	27260
815.821	27233
815.962	27291
816.103	27268
816.244	27142
816.385	27055
816.526	27017
816.666	26960
816.807	26511
816.948	26746
817.089	26758
817.23	26853
817.371	26689
817.512	26819
817.653	26609
817.793	26655
817.934	26804
818.075	26739
818.216	26663
818.356	26598
818.497	26571
818.638	26545
818.778	26434
818.919	26408
819.06	26400
819.2	26522
819.341	26598
819.481	26621
819.622	26758
819.762	26940
819.903	26804
820.043	26937
820.184	26952
820.324	26659
820.465	26895
820.605	26712
820.746	26712
820.886	26670
821.026	26769
821.167	26636
821.307	26769
821.447	26830
821.588	26503
821.728	26438
821.868	26214
822.008	26218
822.149	26046
822.289	26043
822.429	25845
822.569	25845
822.709	25845
822.849	25712
822.99	25689
823.13	25613
823.27	25521
823.41	25377
823.55	25289
823.69	25453
823.83	25358
823.97	25362
824.11	25228
824.25	25137
824.389	25202
824.529	25362
824.669	25304
824.809	25445
824.949	25343
825.089	25312
825.228	25247
825.368	25095
825.508	25050
825.648	25034
825.787	25088
825.927	25251
826.067	25072
826.206	24996
826.346	25046
826.485	25148
826.625	25065
826.765	25107
826.904	25187
827.044	24840
827.183	24840
827.323	24837
827.462	24848
827.601	24833
827.741	24665
827.88	24859
828.02	24696
828.159	24696
828.298	24764
828.437	24837
828.577	24677
828.716	24878
828.855	24597
828.994	24608
829.134	24502
829.273	24559
829.412	24338
829.551	24448
829.69	24532
829.829	24498
829.968	24559
830.107	24426
830.246	24437
830.385	24281
830.524	24395
830.663	24429
830.802	24163
830.941	24041
831.08	24110
831.219	24178
831.357	24098
831.496	24209
831.635	24057
831.774	24034
831.913	23790
832.051	23786
832.19	23870
832.329	23927
832.467	23783
832.606	23691
832.744	23668
832.883	23737
833.022	23733
833.16	23729
833.299	23805
833.437	23817
833.576	23649
833.714	23748
833.852	23893
833.991	23824
834.129	23802
834.267	23927
834.406	23756
834.544	23737
834.682	23855
834.821	23889
834.959	23897
835.097	23630
835.235	23809
835.373	23687
835.511	23809
835.65	23642
835.788	23783
835.926	23455
836.064	23402
836.202	23482
836.34	23657
836.478	23802
836.615	23585
836.753	23623
836.891	23726
837.029	23554
837.167	23589
837.305	23547
837.443	23497
837.58	23417
837.718	23452
837.856	23478
837.993	23452
838.131	23471
838.269	23387
838.406	23356
838.544	23296
838.681	23220
838.819	23052
838.956	22946
839.094	22915
839.231	22984
839.369	23025
839.506	23208
839.643	23212
839.781	22953
839.918	22889
840.055	22877
840.193	22938
840.33	22862
840.467	22850
840.604	22847
840.742	23174
840.879	22668
841.016	22710
841.153	22755
841.29	22927
841.427	22740
841.564	22847
841.701	22847
841.838	22733
841.975	22717
842.112	22634
842.249	22660
842.385	22573
842.522	22820
842.659	22694
842.796	22493
842.933	22478
843.069	22523
843.206	22436
843.343	22512
843.479	22584
843.616	22500
843.752	22223
843.889	22318
844.025	22447
844.162	22325
844.298	22382
844.435	22280
844.571	22196
844.708	22386
844.844	22516
844.98	22310
845.117	22386
845.253	22253
845.389	22169
845.525	22082
845.661	22147
845.798	22070
845.934	22070
846.07	21857
846.206	22139
846.342	22093
846.478	22032
846.614	21884
846.75	21781
846.886	21766
847.022	21964
847.158	21770
847.294	21789
847.429	21812
847.565	21766
847.701	21956
847.837	21606
847.972	21492
848.108	21576
848.244	21625
848.379	21443
848.515	21310
848.65	21389
848.786	21439
848.921	21428
849.057	21549
849.192	21378
849.328	21313
849.463	21424
849.598	21283
849.734	21272
849.869	21207
850.004	21154
850.14	20986
850.275	21074
850.41	21036
850.545	20948
850.68	21085
850.815	21157
850.95	21028
851.085	21336
851.22	21180
851.355	21058
851.49	21096
851.625	21058
851.76	20960
851.895	20994
852.03	21009
852.165	21093
852.299	21135
852.434	21249
852.569	21055
852.703	21081
852.838	21176
852.973	21241
853.107	21363
853.242	21116
853.376	21013
853.511	20815
853.645	20929
853.78	20979
853.914	20876
854.048	20929
854.183	20807
854.317	21009
854.451	20952
854.585	20883
854.72	20902
854.854	20971
854.988	20815
855.122	20872
855.256	20629
855.39	20960
855.524	21032
855.658	20937
855.792	20902
855.926	20895
856.06	20929
856.194	20998
856.327	20910
856.461	20754
856.595	20864
856.729	20925
856.862	20941
856.996	20952
857.13	20899
857.263	20929
857.397	21013
857.53	20899
857.664	20929
857.797	20944
857.931	21154
858.064	20948
858.197	21165
858.331	20864
858.464	20883
858.597	20743
858.731	20914
858.864	20921
858.997	20781
859.13	20868
859.263	20819
859.396	20960
859.529	20800
859.662	20819
859.795	20849
859.928	20815
860.061	20895
860.194	21081
860.327	20842
860.46	20864
860.592	20982
860.725	20982
860.858	20952
860.99	20925
861.123	20830
861.256	20891
861.388	20887
861.521	21545
861.653	20807
861.786	20606
861.918	20682
862.05	20895
862.183	20823
862.315	20876
862.447	20918
862.58	20899
862.712	20629
862.844	20640
862.976	20648
863.108	20720
863.24	21100
863.372	20579
863.504	20575
863.636	20537
863.768	20636
863.9	20549
864.032	20564
864.164	20492
864.296	20469
864.428	20727
864.559	20564
864.691	20648
864.823	20552
864.954	20663
865.086	20629
865.217	20552
865.349	20507
865.48	20469
865.612	20495
865.743	20727
865.875	20454
866.006	20552
866.137	20511
866.269	20465
866.4	20438
866.531	20503
866.662	20374
866.793	20495
866.924	20396
867.055	20461
867.186	20377
867.317	20427
867.448	20389
867.579	20370
867.71	20328
867.841	20317
867.972	20191
868.103	20415
868.233	20374
868.364	20412
868.495	20518
868.625	20659
868.756	20746
868.886	20549
869.017	20727
869.147	20735
869.278	20842
869.408	20712
869.539	20617
869.669	20739
869.799	20640
869.929	20781
870.06	20765
870.19	21013
870.32	20804
870.45	21085
870.58	20998
870.71	21260
870.84	21138
870.97	21009
871.1	21013
871.23	21188
871.36	21176
871.489	21135
871.619	21119
871.749	21291
871.879	21252
872.008	21310
872.138	21245
872.267	21294
872.397	21085
872.526	20998
872.656	21074
872.785	21074
872.915	21355
873.044	21344
873.173	21245
873.303	21279
873.432	21348
873.561	21363
873.69	21275
873.819	21173
873.948	21298
874.077	21370
874.206	21192
874.335	21332
874.464	21424
874.593	21485
874.722	21439
874.851	21545
874.979	21530
875.108	21557
875.237	21492
875.365	21405
875.494	21614
875.623	21576
875.751	21553
875.88	21389
876.008	21618
876.136	21770
876.265	21991
876.393	22021
876.521	22128
876.65	21918
876.778	21998
876.906	21850
877.034	21835
877.162	21964
877.29	21770
877.418	22025
877.546	21903
877.674	21907
877.802	21926
877.93	21869
878.058	21876
878.185	21610
878.313	21823
878.441	21903
878.568	21698
878.696	21949
878.824	21949
878.951	22002
879.079	22093
879.206	22112
879.333	22025
879.461	21937
879.588	21983
879.715	22101
879.842	22124
879.97	22006
880.097	21682
880.224	21492
880.351	21675
880.478	21793
880.605	21667
880.732	21576
880.859	21975
880.986	21679
881.112	21641
881.239	21564
881.366	21492
881.493	21492
881.619	21416
881.746	21275
881.872	21237
881.999	21313
882.125	21249
882.252	21199
882.378	21249
882.505	21447
882.631	21066
882.757	20982
882.883	21043
883.01	21066
883.136	21074
883.262	20800
883.388	20712
883.514	21039
883.64	21005
883.766	20967
883.892	20739
884.018	20754
884.143	20895
884.269	20960
884.395	20636
884.52	20644
884.646	20731
884.772	20613
884.897	20473
885.023	20594
885.148	20693
885.274	20750
885.399	20693
885.524	20609
885.65	20636
885.775	20560
885.9	20514
886.025	20708
886.15	20625
886.275	20651
886.4	20549
886.525	20625
886.65	20518
886.775	20537
886.9	20655
887.025	20853
887.149	20606
887.274	20343
887.399	20389
887.523	20320
887.648	20347
887.773	20275
887.897	20377
888.021	20503
888.146	20263
888.27	20351
888.395	20526
888.519	20442
888.643	20400
888.767	20389
888.891	20237
889.015	20206
889.139	20202
889.263	20229
889.387	20332
889.511	20275
889.635	20370
889.759	20225
889.883	20077
890.006	20218
890.13	20278
890.254	20077
890.377	20058
890.501	19970
890.624	19883
890.748	20058
890.871	19803
890.995	19757
891.118	19761
891.241	19826
891.364	19776
891.488	19940
891.611	19788
891.734	19727
891.857	19814
891.98	19811
892.103	19731
892.226	19791
892.349	19605
892.471	19506
892.594	19658
892.717	19674
892.839	19674
892.962	19616
893.085	19712
893.207	19556
893.33	19533
893.452	19537
893.575	19734
893.697	19582
893.819	19864
893.941	19765
894.064	19921
894.186	19651
894.308	19529
894.43	19655
894.552	19879
894.674	19780
894.796	19605
894.918	19552
895.04	19662
895.161	19719
895.283	19734
895.405	19677
895.526	19613
895.648	19689
895.769	19715
895.891	19677
896.012	19845
896.134	19738
896.255	19624
896.376	19700
896.498	19723
896.619	19822
896.74	19738
896.861	19765
896.982	19993
897.103	20191
897.224	19898
897.345	19799
897.466	19811
897.587	20001
897.708	19928
897.828	19875
897.949	19822
898.07	19795
898.19	19757
898.311	19818
898.431	19849
898.552	19936
898.672	20005
898.792	19883
898.913	19788
899.033	19715
899.153	19776
899.273	19495
899.393	19601
899.513	19662
899.633	19582
899.753	19685
899.873	19586
899.993	19639
900.113	19674
900.232	19605
900.352	19537
900.472	19434
900.591	19354
900.711	19362
900.83	19400
900.95	19601
901.069	19472
901.189	19354
901.308	19091
901.427	18985
901.546	19000
901.665	19065
901.784	19061
901.904	18848
902.023	18776
902.141	18646
902.26	18517
902.379	18646
902.498	18467
902.617	18506
902.735	18536
902.854	18585
902.973	18319
903.091	18232
903.21	18098
903.328	18213
903.446	18030
903.565	17931
903.683	17958
903.801	17889
903.919	17984
904.038	17950
904.156	17916
904.274	17775
904.392	17851
904.51	17741
904.627	17657
904.745	17817
904.863	17893
904.981	17501
905.098	17448
905.216	17436
905.334	17478
905.451	17490
905.569	17448
905.686	17467
905.803	17512
905.921	17197
906.038	17341
906.155	17231
906.272	17105
906.389	17220
906.506	16957
906.623	17010
906.74	16995
906.857	16896
906.974	16752
907.091	17018
907.208	17064
907.324	17022
907.441	16873
907.557	16721
907.674	16672
907.79	16672
907.907	16653
908.023	16805
908.139	16592
908.256	16656
908.372	16577
908.488	16618
908.604	16500
908.72	16390
908.836	16466
908.952	16386
909.068	16466
909.184	16497
909.3	16318
909.415	16474
909.531	16329
909.647	16150
909.762	16166
909.878	16082
909.993	16112
910.108	16124
910.224	16097
910.339	16013
910.454	15987
910.57	15945
910.685	15941
910.8	16116
910.915	16082
911.03	15797
911.145	15774
911.259	15743
911.374	15789
911.489	15553
911.604	15622
911.718	15526
911.833	15477
911.947	15332
912.062	15256
912.176	15458
912.291	15424
912.405	15424
912.519	15656
912.633	15667
912.748	15473
912.862	15359
912.976	15207
913.09	15062
913.204	15211
913.318	15264
913.431	15386
913.545	15291
913.659	15310
913.772	15214
913.886	15119
914	15058
914.113	15070
914.226	15097
914.34	15142
914.453	14887
914.566	15032
914.68	14906
914.793	14979
914.906	14739
915.019	14731
915.132	14636
915.245	14674
915.358	14697
915.47	14762
915.583	14667
915.696	14693
915.809	14830
915.921	14834
916.034	14708
916.146	14571
916.259	14533
916.371	14674
916.483	14640
916.595	14484
916.708	14575
916.82	14503
916.932	14678
917.044	14537
917.156	14377
917.268	14381
917.38	14336
917.491	14324
917.603	14343
917.715	14408
917.826	14393
917.938	14347
918.049	14252
918.161	14240
918.272	14457
918.384	14438
918.495	14290
918.606	14161
918.717	14145
918.828	14069
918.939	14107
919.05	14149
919.161	14073
919.272	13951
919.383	13917
919.494	14134
919.604	14298
919.715	14111
919.826	14027
919.936	13959
920.047	14168
920.157	14084
920.267	14248
920.378	14081
920.488	14024
920.598	14252
920.708	14305
920.818	14180
920.928	14206
921.038	14396
921.148	14278
921.258	14065
921.368	13997
921.477	13772
921.587	13738
921.697	13780
921.806	13761
921.916	13666
922.025	13476
922.134	13468
922.244	13460
922.353	13502
922.462	13365
922.571	13301
922.68	13133
922.789	13149
922.898	13118
923.007	13069
923.116	13133
923.224	13023
923.333	13065
923.442	13023
923.55	12871
923.659	12943
923.767	13061
923.876	12863
923.984	13050
924.092	12840
924.201	12947
924.309	12886
924.417	12943
924.525	12787
924.633	12821
924.741	13415
924.849	12627
924.956	12700
925.064	12589
925.172	12513
925.279	12521
925.387	12604
925.494	12536
925.602	12681
925.709	12555
925.816	12403
925.924	12471
926.031	12612
926.138	12509
926.245	12574
926.352	12376
926.459	12559
926.566	12551
926.673	12311
926.779	12369
926.886	12285
926.993	12220
927.099	12140
927.206	12083
927.312	12049
927.419	12098
927.525	12114
927.631	12079
927.737	12038
927.843	11954
927.95	11893
928.056	11923
928.162	11939
928.267	12011
928.373	12502
928.479	11988
928.585	11851
928.69	11942
928.796	11988
928.901	11798
929.007	11817
929.112	11901
929.218	11691
929.323	11745
929.428	11661
929.533	11805
929.638	11623
929.743	11592
929.848	11665
929.953	11665
930.058	11516
930.163	11402
930.267	11349
930.372	11532
930.477	11417
930.581	11539
930.685	11505
930.79	11231
930.894	11296
930.998	11284
931.103	11360
931.207	11041
931.311	10946
931.415	10839
931.519	10729
931.623	10694
