Data from test_V78500241_650.txt Node
Date: Fri Mar 25 15:14:23 CST 2022
User: usil
Spectrometer: V785-0024
Trigger mode: 0
Integration Time (sec): 4.000000E-1
Scans to average: 1
Nonlinearity correction enabled: false
Boxcar width: 0
Storing dark spectrum: false
XAxis mode: Wavelengths
Number of Pixels in Spectrum: 1024
>>>>>Begin Spectral Data<<<<<
801.071	27496
801.214	27397
801.356	27287
801.499	27165
801.641	27180
801.783	27032
801.926	27245
802.068	27108
802.211	26910
802.353	26921
802.496	26735
802.638	26880
802.78	26678
802.923	26724
803.065	26743
803.208	26758
803.35	26773
803.492	26849
803.635	26758
803.777	26792
803.919	26876
804.061	27218
804.204	26906
804.346	26788
804.488	26887
804.63	26861
804.773	26705
804.915	26842
805.057	26929
805.199	26705
805.341	26971
805.483	27096
805.626	27093
805.768	26933
805.91	26944
806.052	26940
806.194	26834
806.336	27310
806.478	27028
806.62	26944
806.762	27176
806.904	27367
807.046	27538
807.188	27351
807.33	27500
807.472	27576
807.614	27427
807.756	27450
807.898	27321
808.04	27188
808.182	27199
808.324	27287
808.465	27226
808.607	27523
808.749	27637
808.891	27739
809.033	27800
809.174	27675
809.316	27781
809.458	27553
809.6	27610
809.741	27934
809.883	27793
810.025	27911
810.166	27949
810.308	28044
810.45	28086
810.591	27934
810.733	27724
810.875	27587
811.016	27641
811.158	27545
811.299	27648
811.441	27732
811.582	27728
811.724	27759
811.865	27534
812.007	27690
812.148	27652
812.29	27652
812.431	27679
812.573	27991
812.714	28048
812.855	28219
812.997	28310
813.138	28565
813.279	28295
813.421	28204
813.562	28280
813.703	28029
813.845	27846
813.986	27542
814.127	27443
814.268	27272
814.41	27370
814.551	27382
814.692	27454
814.833	27481
814.974	27279
815.115	27310
815.256	27344
815.397	27214
815.539	27241
815.68	27066
815.821	27093
815.962	27119
816.103	27188
816.244	26956
816.385	26800
816.526	26880
816.666	26815
816.807	26659
816.948	26590
817.089	26708
817.23	26686
817.371	26785
817.512	26560
817.653	26674
817.793	26682
817.934	26651
818.075	26716
818.216	26670
818.356	26564
818.497	26590
818.638	26469
818.778	26229
818.919	26370
819.06	26469
819.2	26556
819.341	26587
819.481	26659
819.622	26765
819.762	26963
819.903	26902
820.043	26792
820.184	26838
820.324	26788
820.465	26773
820.605	26823
820.746	26667
820.886	26720
821.026	26785
821.167	26674
821.307	26857
821.447	26735
821.588	26556
821.728	26415
821.868	26328
822.008	25986
822.149	26149
822.289	26088
822.429	25841
822.569	25761
822.709	25655
822.849	25677
822.99	25685
823.13	25548
823.27	25605
823.41	25476
823.55	25255
823.69	25601
823.83	25472
823.97	25354
824.11	25129
824.25	25217
824.389	25304
824.529	25312
824.669	25320
824.809	25381
824.949	25343
825.089	25251
825.228	25244
825.368	25187
825.508	25046
825.648	25160
825.787	25179
825.927	25240
826.067	25160
826.206	25038
826.346	25190
826.485	25232
826.625	25293
826.765	25274
826.904	25088
827.044	24852
827.183	24802
827.323	24871
827.462	24871
827.601	24848
827.741	24863
827.88	24901
828.02	24490
828.159	24764
828.298	24928
828.437	24901
828.577	24821
828.716	24890
828.855	24833
828.994	24509
829.134	24464
829.273	24601
829.412	24540
829.551	24471
829.69	24544
829.829	24597
829.968	24654
830.107	24635
830.246	24570
830.385	24422
830.524	24319
830.663	24353
830.802	24197
830.941	24163
831.08	24182
831.219	24254
831.357	24129
831.496	24399
831.635	24106
831.774	24087
831.913	24117
832.051	23958
832.19	23927
832.329	23992
832.467	23882
832.606	23752
832.744	23687
832.883	23874
833.022	23920
833.16	23901
833.299	23893
833.437	23866
833.576	23920
833.714	23904
833.852	23935
833.991	23958
834.129	24041
834.267	24057
834.406	23817
834.544	23847
834.682	23885
834.821	23733
834.959	23954
835.097	23760
835.235	23893
835.373	23885
835.511	23882
835.65	23707
835.788	23832
835.926	23691
836.064	23566
836.202	23619
836.34	23870
836.478	23828
836.615	23741
836.753	23760
836.891	23863
837.029	23737
837.167	23668
837.305	23608
837.443	23604
837.58	23551
837.718	23691
837.856	23611
837.993	23589
838.131	23512
838.269	23516
838.406	23421
838.544	23334
838.681	23261
838.819	23185
838.956	23064
839.094	23052
839.231	23208
839.369	23075
839.506	23490
839.643	23349
839.781	22991
839.918	22961
840.055	23010
840.193	22984
840.33	23090
840.467	22968
840.604	22934
840.742	23315
840.879	22736
841.016	22904
841.153	22831
841.29	23079
841.427	22908
841.564	22953
841.701	22885
841.838	22946
841.975	22961
842.112	22740
842.249	22812
842.385	22759
842.522	22824
842.659	22782
842.796	22740
842.933	22653
843.069	22630
843.206	22691
843.343	22793
843.479	22767
843.616	22698
843.752	22577
843.889	22519
844.025	22694
844.162	22493
844.298	22512
844.435	22455
844.571	22344
844.708	22402
844.844	22706
844.98	22607
845.117	22634
845.253	22325
845.389	22348
845.525	22333
845.661	22341
845.798	22234
845.934	22265
846.07	22265
846.206	22352
846.342	22295
846.478	22116
846.614	22036
846.75	21941
846.886	22017
847.022	21960
847.158	21983
847.294	22025
847.429	21911
847.565	21956
847.701	22147
847.837	21724
847.972	21572
848.108	21739
848.244	21797
848.379	21614
848.515	21629
848.65	21610
848.786	21587
848.921	21507
849.057	21576
849.192	21488
849.328	21660
849.463	21633
849.598	21526
849.734	21466
849.869	21298
850.004	21481
850.14	21412
850.275	21313
850.41	21211
850.545	21329
850.68	21173
850.815	21378
850.95	21245
851.085	21526
851.22	21450
851.355	21477
851.49	21207
851.625	21317
851.76	21283
851.895	21199
852.03	21241
852.165	21268
852.299	21272
852.434	21351
852.569	21351
852.703	21272
852.838	21538
852.973	21500
853.107	21389
853.242	21260
853.376	20986
853.511	20990
853.645	21131
853.78	21291
853.914	21096
854.048	21119
854.183	21043
854.317	21256
854.451	21412
854.585	21108
854.72	21192
854.854	21066
854.988	21074
855.122	21127
855.256	21154
855.39	21074
855.524	21321
855.658	21074
855.792	21108
855.926	21359
856.06	21233
856.194	21195
856.327	21157
856.461	21119
856.595	21100
856.729	21020
856.862	21367
856.996	21100
857.13	21237
857.263	21199
857.397	21161
857.53	21252
857.664	21165
857.797	21150
857.931	21348
858.064	21161
858.197	21249
858.331	21237
858.464	21058
858.597	21009
858.731	21116
858.864	21055
858.997	21188
859.13	21207
859.263	21173
859.396	21291
859.529	21131
859.662	21100
859.795	21047
859.928	21142
860.061	21313
860.194	21359
860.327	21146
860.46	21161
860.592	21287
860.725	21325
860.858	21218
860.99	21123
861.123	20994
861.256	21017
861.388	21058
861.521	21797
861.653	20967
861.786	20998
861.918	20963
862.05	20883
862.183	20990
862.315	21085
862.447	21020
862.58	21066
862.712	20925
862.844	20868
862.976	20876
863.108	20948
863.24	21321
863.372	20853
863.504	20750
863.636	20872
863.768	20883
863.9	20724
864.032	20773
864.164	20944
864.296	20914
864.428	21089
864.559	20925
864.691	20910
864.823	20804
864.954	20811
865.086	20929
865.217	20735
865.349	20693
865.48	20659
865.612	20788
865.743	20914
865.875	20845
866.006	20587
866.137	20651
866.269	20823
866.4	20769
866.531	20697
866.662	20731
866.793	20602
866.924	20609
867.055	20701
867.186	20667
867.317	20777
867.448	20602
867.579	20667
867.71	20613
867.841	20571
867.972	20746
868.103	20644
868.233	20655
868.364	20613
868.495	20762
868.625	20857
868.756	21032
868.886	20891
869.017	20902
869.147	21005
869.278	21028
869.408	20937
869.539	20845
869.669	20971
869.799	20967
869.929	21093
870.06	20963
870.19	21199
870.32	21207
870.45	21260
870.58	21294
870.71	21405
870.84	21428
870.97	21370
871.1	21420
871.23	21466
871.36	21336
871.489	21466
871.619	21549
871.749	21542
871.879	21538
872.008	21656
872.138	21500
872.267	21458
872.397	21340
872.526	21351
872.656	21458
872.785	21439
872.915	21629
873.044	21568
873.173	21523
873.303	21622
873.432	21534
873.561	21701
873.69	21633
873.819	21530
873.948	21682
874.077	21542
874.206	21466
874.335	21488
874.464	21656
874.593	21759
874.722	21759
874.851	21808
874.979	21964
875.108	21880
875.237	21743
875.365	21534
875.494	21637
875.623	21861
875.751	21656
875.88	21835
876.008	21979
876.136	21964
876.265	22101
876.393	22325
876.521	22268
876.65	22192
876.778	22249
876.906	22025
877.034	22147
877.162	22188
877.29	22048
877.418	22162
877.546	22090
877.674	22188
877.802	22116
877.93	22074
878.058	22097
878.185	21979
878.313	22006
878.441	22017
878.568	21911
878.696	22036
878.824	22067
878.951	22188
879.079	22356
879.206	22325
879.333	22223
879.461	22291
879.588	22226
879.715	22211
879.842	22272
879.97	22017
880.097	21956
880.224	21915
880.351	22025
880.478	21888
880.605	21960
880.732	21968
880.859	22112
880.986	21949
881.112	21857
881.239	21778
881.366	21720
881.493	21637
881.619	21519
881.746	21553
881.872	21488
881.999	21424
882.125	21477
882.252	21652
882.378	21477
882.505	21599
882.631	21252
882.757	21241
882.883	21325
883.01	21310
883.136	21154
883.262	21051
883.388	21116
883.514	21275
883.64	21123
883.766	21100
883.892	20906
884.018	20986
884.143	21138
884.269	21336
884.395	20960
884.52	20819
884.646	20944
884.772	20819
884.897	20670
885.023	20872
885.148	21036
885.274	21058
885.399	20952
885.524	20921
885.65	20823
885.775	20842
885.9	20842
886.025	20948
886.15	20857
886.275	20876
886.4	20838
886.525	20800
886.65	20796
886.775	20754
886.9	20933
887.025	21062
887.149	20834
887.274	20606
887.399	20621
887.523	20632
887.648	20659
887.773	20514
887.897	20686
888.021	20686
888.146	20518
888.27	20708
888.395	20655
888.519	20705
888.643	20625
888.767	20606
888.891	20526
889.015	20396
889.139	20571
889.263	20450
889.387	20530
889.511	20575
889.635	20552
889.759	20278
889.883	20423
890.006	20332
890.13	20571
890.254	20282
890.377	20381
890.501	20130
890.624	20016
890.748	20237
890.871	20103
890.995	19978
891.118	19970
891.241	19955
891.364	20016
891.488	20107
891.611	19982
891.734	20008
891.857	20050
891.98	20058
892.103	20111
892.226	20081
892.349	19864
892.471	19742
892.594	19986
892.717	19970
892.839	19963
892.962	19909
893.085	19955
893.207	19845
893.33	19784
893.452	19845
893.575	20008
893.697	19894
893.819	20062
893.941	20031
894.064	20161
894.186	19871
894.308	19715
894.43	20008
894.552	19978
894.674	19967
894.796	19875
894.918	19913
895.04	19986
895.161	20008
895.283	19860
895.405	19803
895.526	19978
895.648	19871
895.769	19989
895.891	19894
896.012	19902
896.134	20024
896.255	19967
896.376	19868
896.498	19917
896.619	19967
896.74	20027
896.861	20043
896.982	20183
897.103	20301
897.224	20157
897.345	20134
897.466	20035
897.587	20149
897.708	20256
897.828	20195
897.949	20096
898.07	20005
898.19	20187
898.311	20145
898.431	20035
898.552	20084
898.672	20130
898.792	20271
898.913	20058
899.033	20005
899.153	19951
899.273	19811
899.393	19898
899.513	19936
899.633	19814
899.753	19974
899.873	19928
899.993	19791
900.113	19708
900.232	19833
900.352	19807
900.472	19750
900.591	19605
900.711	19643
900.83	19685
900.95	19772
901.069	19715
901.189	19533
901.308	19377
901.427	19225
901.546	19255
901.665	19255
901.784	19213
901.904	19061
902.023	19114
902.141	18840
902.26	18890
902.379	18848
902.498	18726
902.617	18787
902.735	18890
902.854	18623
902.973	18791
903.091	18464
903.21	18395
903.328	18528
903.446	18399
903.565	18251
903.683	18159
903.801	18254
903.919	18292
904.038	18213
904.156	18155
904.274	18190
904.392	17996
904.51	18030
904.627	18003
904.745	18125
904.863	18106
904.981	17832
905.098	17756
905.216	17699
905.334	17718
905.451	17649
905.569	17627
905.686	17718
905.803	17699
905.921	17497
906.038	17611
906.155	17554
906.272	17459
906.389	17463
906.506	17239
906.623	17265
906.74	17261
906.857	17155
906.974	17041
907.091	17311
907.208	17379
907.324	17242
907.441	17128
907.557	16965
907.674	16927
907.79	16938
907.907	16866
908.023	16923
908.139	17006
908.256	16858
908.372	16839
908.488	16900
908.604	16702
908.72	16675
908.836	16736
908.952	16660
909.068	16668
909.184	16809
909.3	16630
909.415	16641
909.531	16744
909.647	16436
909.762	16413
909.878	16367
909.993	16424
910.108	16367
910.224	16329
910.339	16318
910.454	16128
910.57	16261
910.685	16109
910.8	16413
910.915	16276
911.03	16169
911.145	16025
911.259	15991
911.374	15876
911.489	15922
911.604	15873
911.718	15713
911.833	15785
911.947	15713
912.062	15515
912.176	15736
912.291	15762
912.405	15675
912.519	15842
912.633	15869
912.748	15797
912.862	15625
912.976	15542
913.09	15568
913.204	15412
913.318	15557
913.431	15694
913.545	15736
913.659	15610
913.772	15511
913.886	15378
914	15367
914.113	15462
914.226	15603
914.34	15367
914.453	15275
914.566	15428
914.68	15199
914.793	15188
914.906	15081
915.019	14891
915.132	14937
915.245	15005
915.358	14956
915.47	14937
915.583	14933
915.696	14998
915.809	15104
915.921	15116
916.034	14902
916.146	14868
916.259	14811
916.371	14902
916.483	14781
916.595	14857
916.708	14750
916.82	14800
916.932	14849
917.044	14705
917.156	14678
917.268	14587
917.38	14682
917.491	14610
917.603	14632
917.715	14648
917.826	14746
917.938	14575
918.049	14530
918.161	14503
918.272	14678
918.384	14781
918.495	14556
918.606	14389
918.717	14332
918.828	14419
918.939	14374
919.05	14294
919.161	14415
919.272	14183
919.383	14278
919.494	14427
919.604	14606
919.715	14336
919.826	14320
919.936	14355
920.047	14423
920.157	14408
920.267	14484
920.378	14343
920.488	14275
920.598	14514
920.708	14583
920.818	14457
920.928	14541
921.038	14636
921.148	14556
921.258	14351
921.368	14130
921.477	14077
921.587	14103
921.697	13982
921.806	14119
921.916	13936
922.025	13776
922.134	13712
922.244	13700
922.353	13776
922.462	13571
922.571	13594
922.68	13468
922.789	13388
922.898	13441
923.007	13343
923.116	13422
923.224	13354
923.333	13354
923.442	13225
923.55	13141
923.659	13156
923.767	13274
923.876	13244
923.984	13232
924.092	13149
924.201	13122
924.309	13061
924.417	13050
924.525	13004
924.633	13038
924.741	13883
924.849	12867
924.956	12981
925.064	12856
925.172	12779
925.279	12825
925.387	12852
925.494	12806
925.602	12867
925.709	12859
925.816	12719
925.924	12730
926.031	12802
926.138	12738
926.245	12692
926.352	12616
926.459	12791
926.566	12795
926.673	12700
926.779	12585
926.886	12593
926.993	12384
927.099	12361
927.206	12319
927.312	12300
927.419	12456
927.525	12323
927.631	12346
927.737	12243
927.843	12266
927.95	12125
928.056	12194
928.162	12232
928.267	12235
928.373	12844
928.479	12296
928.585	12034
928.69	12102
928.796	12167
928.901	12079
929.007	11954
929.112	12034
929.218	12041
929.323	11996
929.428	11946
929.533	12064
929.638	11824
929.743	11832
929.848	11977
929.953	11912
930.058	11821
930.163	11528
930.267	11665
930.372	11783
930.477	11589
930.581	11847
930.685	11665
930.79	11532
930.894	11604
930.998	11524
931.103	11585
931.207	11254
931.311	11181
931.415	11155
931.519	10889
931.623	10930
