Data from test_V78500241_2271.txt Node
Date: Fri Mar 25 15:25:40 CST 2022
User: usil
Spectrometer: V785-0024
Trigger mode: 0
Integration Time (sec): 4.000000E-1
Scans to average: 1
Nonlinearity correction enabled: false
Boxcar width: 0
Storing dark spectrum: false
XAxis mode: Wavelengths
Number of Pixels in Spectrum: 1024
>>>>>Begin Spectral Data<<<<<
801.071	27599
801.214	27488
801.356	27310
801.499	27272
801.641	27207
801.783	27096
801.926	27245
802.068	27154
802.211	27157
802.353	27055
802.496	26906
802.638	26880
802.78	26693
802.923	26678
803.065	26571
803.208	26625
803.35	26689
803.492	26906
803.635	26868
803.777	26804
803.919	26982
804.061	27241
804.204	26937
804.346	26880
804.488	26834
804.63	27001
804.773	26914
804.915	26990
805.057	27055
805.199	26887
805.341	27070
805.483	27123
805.626	26967
805.768	27036
805.91	27081
806.052	26994
806.194	27077
806.336	27119
806.478	26998
806.62	27036
806.762	27142
806.904	27291
807.046	27622
807.188	27420
807.33	27447
807.472	27447
807.614	27488
807.756	27435
807.898	27256
808.04	27283
808.182	27252
808.324	27416
808.465	27207
808.607	27583
808.749	27709
808.891	27766
809.033	27739
809.174	27720
809.316	27648
809.458	27591
809.6	27595
809.741	27850
809.883	27739
810.025	28013
810.166	28051
810.308	27835
810.45	27823
810.591	27892
810.733	27728
810.875	27625
811.016	27580
811.158	27561
811.299	27641
811.441	27831
811.582	27888
811.724	27564
811.865	27644
812.007	27583
812.148	27667
812.29	27720
812.431	27709
812.573	27880
812.714	28032
812.855	28177
812.997	28299
813.138	28466
813.279	28341
813.421	28135
813.562	28166
813.703	27987
813.845	27880
813.986	27553
814.127	27439
814.268	27310
814.41	27389
814.551	27359
814.692	27447
814.833	27313
814.974	27313
815.115	27378
815.256	27249
815.397	27272
815.539	27264
815.68	27112
815.821	27135
815.962	27195
816.103	27154
816.244	26918
816.385	26887
816.526	26956
816.666	26648
816.807	26568
816.948	26758
817.089	26629
817.23	26731
817.371	26609
817.512	26598
817.653	26606
817.793	26526
817.934	26682
818.075	26686
818.216	26720
818.356	26617
818.497	26450
818.638	26358
818.778	26404
818.919	26313
819.06	26434
819.2	26473
819.341	26564
819.481	26651
819.622	26727
819.762	27066
819.903	26838
820.043	26724
820.184	26762
820.324	26640
820.465	26830
820.605	26663
820.746	26663
820.886	26533
821.026	26632
821.167	26636
821.307	26716
821.447	26579
821.588	26629
821.728	26393
821.868	26092
822.008	26176
822.149	26115
822.289	25974
822.429	25776
822.569	25788
822.709	25674
822.849	25567
822.99	25655
823.13	25575
823.27	25578
823.41	25358
823.55	25384
823.69	25430
823.83	25384
823.97	25426
824.11	25183
824.25	25091
824.389	25194
824.529	25316
824.669	25148
824.809	25384
824.949	25259
825.089	25244
825.228	25255
825.368	25069
825.508	25080
825.648	25088
825.787	25206
825.927	25228
826.067	24985
826.206	25061
826.346	25114
826.485	25110
826.625	25133
826.765	25187
826.904	25137
827.044	24719
827.183	24776
827.323	24707
827.462	24962
827.601	24886
827.741	24779
827.88	24867
828.02	24692
828.159	24764
828.298	24764
828.437	24844
828.577	24776
828.716	24730
828.855	24703
828.994	24509
829.134	24429
829.273	24471
829.412	24380
829.551	24445
829.69	24414
829.829	24582
829.968	24498
830.107	24521
830.246	24426
830.385	24365
830.524	24361
830.663	24300
830.802	24171
830.941	23988
831.08	24011
831.219	24110
831.357	24159
831.496	24357
831.635	24114
831.774	23927
831.913	23950
832.051	23980
832.19	23824
832.329	23920
832.467	23840
832.606	23684
832.744	23661
832.883	23828
833.022	23817
833.16	23756
833.299	23832
833.437	23786
833.576	23828
833.714	23935
833.852	23878
833.991	23805
834.129	23969
834.267	23859
834.406	23699
834.544	23767
834.682	23866
834.821	23885
834.959	24034
835.097	23748
835.235	23912
835.373	23904
835.511	23741
835.65	23745
835.788	23653
835.926	23581
836.064	23417
836.202	23524
836.34	23760
836.478	23680
836.615	23703
836.753	23703
836.891	23665
837.029	23619
837.167	23627
837.305	23649
837.443	23467
837.58	23444
837.718	23505
837.856	23684
837.993	23501
838.131	23482
838.269	23261
838.406	23505
838.544	23235
838.681	23090
838.819	23079
838.956	22991
839.094	23090
839.231	23006
839.369	23162
839.506	23368
839.643	23200
839.781	23067
839.918	22869
840.055	22946
840.193	23022
840.33	22930
840.467	22828
840.604	22995
840.742	23105
840.879	22778
841.016	22778
841.153	22664
841.29	23090
841.427	22892
841.564	23018
841.701	22915
841.838	22934
841.975	22839
842.112	22797
842.249	22550
842.385	22512
842.522	22949
842.659	22706
842.796	22592
842.933	22759
843.069	22634
843.206	22577
843.343	22706
843.479	22694
843.616	22710
843.752	22352
843.889	22512
844.025	22550
844.162	22402
844.298	22512
844.435	22398
844.571	22402
844.708	22436
844.844	22557
844.98	22592
845.117	22390
845.253	22322
845.389	22325
845.525	22192
845.661	22253
845.798	22135
845.934	22246
846.07	22044
846.206	22173
846.342	22268
846.478	22158
846.614	22002
846.75	21789
846.886	21888
847.022	21960
847.158	22029
847.294	21873
847.429	21968
847.565	21884
847.701	22074
847.837	21652
847.972	21542
848.108	21686
848.244	21755
848.379	21576
848.515	21561
848.65	21412
848.786	21526
848.921	21530
849.057	21606
849.192	21504
849.328	21591
849.463	21545
849.598	21469
849.734	21389
849.869	21340
850.004	21272
850.14	21264
850.275	21321
850.41	21184
850.545	21161
850.68	21070
850.815	21302
850.95	21222
851.085	21420
851.22	21458
851.355	21173
851.49	21195
851.625	21222
851.76	21230
851.895	21138
852.03	21116
852.165	21230
852.299	21146
852.434	21443
852.569	21302
852.703	21252
852.838	21344
852.973	21367
853.107	21348
853.242	21245
853.376	21123
853.511	20937
853.645	21047
853.78	21173
853.914	21108
854.048	21123
854.183	20979
854.317	21116
854.451	21306
854.585	21154
854.72	20952
854.854	21127
854.988	21028
855.122	20960
855.256	20971
855.39	21077
855.524	21036
855.658	21028
855.792	21028
855.926	21116
856.06	21096
856.194	21138
856.327	21058
856.461	21055
856.595	21077
856.729	21051
856.862	21237
856.996	21093
857.13	21146
857.263	21192
857.397	21226
857.53	21001
857.664	21024
857.797	21154
857.931	21138
858.064	21127
858.197	21184
858.331	21032
858.464	21039
858.597	20975
858.731	21112
858.864	21119
858.997	20933
859.13	21001
859.263	21127
859.396	21203
859.529	21089
859.662	21043
859.795	21001
859.928	21112
860.061	21226
860.194	21291
860.327	21096
860.46	21074
860.592	21169
860.725	21378
860.858	21195
860.99	21039
861.123	21047
861.256	20986
861.388	20982
861.521	21774
861.653	20933
861.786	20864
861.918	20910
862.05	21028
862.183	20994
862.315	20960
862.447	21013
862.58	20853
862.712	20842
862.844	20895
862.976	20876
863.108	20826
863.24	21009
863.372	20541
863.504	20876
863.636	20621
863.768	20781
863.9	20796
864.032	20792
864.164	20773
864.296	20739
864.428	20792
864.559	20811
864.691	20743
864.823	20807
864.954	20838
865.086	20727
865.217	20765
865.349	20621
865.48	20739
865.612	20724
865.743	20952
865.875	20701
866.006	20609
866.137	20716
866.269	20655
866.4	20583
866.531	20625
866.662	20568
866.793	20587
866.924	20609
867.055	20617
867.186	20644
867.317	20552
867.448	20526
867.579	20769
867.71	20495
867.841	20568
867.972	20617
868.103	20556
868.233	20697
868.364	20648
868.495	20781
868.625	20796
868.756	20914
868.886	20815
869.017	20777
869.147	20986
869.278	21074
869.408	20979
869.539	20929
869.669	21047
869.799	20861
869.929	21005
870.06	21020
870.19	21047
870.32	21131
870.45	21260
870.58	21192
870.71	21203
870.84	21397
870.97	21287
871.1	21279
871.23	21401
871.36	21492
871.489	21408
871.619	21275
871.749	21481
871.879	21466
872.008	21603
872.138	21557
872.267	21435
872.397	21214
872.526	21325
872.656	21188
872.785	21469
872.915	21374
873.044	21549
873.173	21564
873.303	21526
873.432	21458
873.561	21595
873.69	21420
873.819	21416
873.948	21466
874.077	21500
874.206	21424
874.335	21389
874.464	21583
874.593	21690
874.722	21603
874.851	21759
874.979	21793
875.108	21797
875.237	21679
875.365	21625
875.494	21698
875.623	21728
875.751	21572
875.88	21720
876.008	21838
876.136	21934
876.265	22051
876.393	22207
876.521	22105
876.65	22105
876.778	22139
876.906	21937
877.034	22063
877.162	22086
877.29	22036
877.418	22112
877.546	22074
877.674	21915
877.802	22101
877.93	22090
878.058	21987
878.185	21918
878.313	22032
878.441	21968
878.568	21816
878.696	21983
878.824	22090
878.951	22097
879.079	22223
879.206	22188
879.333	22150
879.461	22070
879.588	22280
879.715	22272
879.842	22291
879.97	22063
880.097	21949
880.224	21873
880.351	21968
880.478	21915
880.605	21766
880.732	21876
880.859	22196
880.986	21880
881.112	21861
881.239	21827
881.366	21667
881.493	21591
881.619	21378
881.746	21523
881.872	21466
881.999	21450
882.125	21325
882.252	21587
882.378	21294
882.505	21557
882.631	21359
882.757	21169
882.883	21165
883.01	21180
883.136	21112
883.262	21013
883.388	21009
883.514	21108
883.64	21157
883.766	21146
883.892	21024
884.018	20952
884.143	21135
884.269	21195
884.395	20918
884.52	20834
884.646	20800
884.772	20823
884.897	20705
885.023	20883
885.148	20899
885.274	20864
885.399	20933
885.524	20632
885.65	20720
885.775	20819
885.9	20876
886.025	20990
886.15	20975
886.275	20727
886.4	20667
886.525	20754
886.65	20842
886.775	20716
886.9	20948
887.025	20918
887.149	20845
887.274	20552
887.399	20495
887.523	20632
887.648	20514
887.773	20381
887.897	20682
888.021	20583
888.146	20484
888.27	20651
888.395	20689
888.519	20625
888.643	20606
888.767	20648
888.891	20537
889.015	20381
889.139	20522
889.263	20389
889.387	20446
889.511	20625
889.635	20484
889.759	20301
889.883	20389
890.006	20408
890.13	20454
890.254	20256
890.377	20252
890.501	20119
890.624	20138
890.748	20210
890.871	20115
890.995	19970
891.118	19936
891.241	19944
891.364	19833
891.488	20046
891.611	19879
891.734	19974
891.857	20012
891.98	20122
892.103	20005
892.226	20008
892.349	19947
892.471	19772
892.594	19894
892.717	19940
892.839	19765
892.962	19913
893.085	19970
893.207	19852
893.33	19696
893.452	19753
893.575	19811
893.697	19784
893.819	20065
893.941	20050
894.064	20043
894.186	19761
894.308	19719
894.43	19894
894.552	19928
894.674	19963
894.796	19818
894.918	19776
895.04	19681
895.161	19849
895.283	19856
895.405	19765
895.526	19902
895.648	19784
895.769	19791
895.891	19917
896.012	19944
896.134	19986
896.255	19921
896.376	19826
896.498	19814
896.619	19921
896.74	19871
896.861	19967
896.982	20119
897.103	20286
897.224	20126
897.345	20130
897.466	19993
897.587	20046
897.708	20221
897.828	20058
897.949	20107
898.07	20111
898.19	19913
898.311	20134
898.431	20016
898.552	20103
898.672	20138
898.792	20107
898.913	20088
899.033	20092
899.153	19970
899.273	19803
899.393	19864
899.513	19906
899.633	19868
899.753	19875
899.873	19753
899.993	19928
900.113	19788
900.232	19719
900.352	19772
900.472	19734
900.591	19556
900.711	19620
900.83	19537
900.95	19704
901.069	19700
901.189	19537
901.308	19301
901.427	19171
901.546	19247
901.665	19171
901.784	19293
901.904	19122
902.023	18973
902.141	18753
902.26	18620
902.379	18905
902.498	18776
902.617	18684
902.735	18661
902.854	18745
902.973	18578
903.091	18304
903.21	18471
903.328	18384
903.446	18365
903.565	18144
903.683	18213
903.801	18015
903.919	18125
904.038	18083
904.156	17996
904.274	18007
904.392	17889
904.51	18015
904.627	18015
904.745	17973
904.863	18030
904.981	17676
905.098	17665
905.216	17646
905.334	17687
905.451	17707
905.569	17665
905.686	17608
905.803	17722
905.921	17490
906.038	17512
906.155	17486
906.272	17269
906.389	17417
906.506	17239
906.623	17151
906.74	17143
906.857	17113
906.974	17064
907.091	17094
907.208	17322
907.324	17197
907.441	17124
907.557	16946
907.674	16862
907.79	16805
907.907	16828
908.023	16957
908.139	16873
908.256	16873
908.372	16767
908.488	16717
908.604	16599
908.72	16577
908.836	16584
908.952	16618
909.068	16580
909.184	16672
909.3	16664
909.415	16637
909.531	16596
909.647	16318
909.762	16344
909.878	16356
909.993	16371
910.108	16325
910.224	16246
910.339	16253
910.454	16211
910.57	16135
910.685	16074
910.8	16291
910.915	16253
911.03	16181
911.145	15918
911.259	15838
911.374	15922
911.489	15922
911.604	15724
911.718	15587
911.833	15671
911.947	15584
912.062	15542
912.176	15606
912.291	15652
912.405	15641
912.519	15781
912.633	15880
912.748	15713
912.862	15671
912.976	15485
913.09	15447
913.204	15545
913.318	15492
913.431	15557
913.545	15507
913.659	15488
913.772	15435
913.886	15332
914	15264
914.113	15450
914.226	15401
914.34	15329
914.453	15097
914.566	15393
914.68	15294
914.793	15123
914.906	14918
915.019	14857
915.132	14883
915.245	14872
915.358	14880
915.47	14956
915.583	14872
915.696	14929
915.809	15036
915.921	15013
916.034	14876
916.146	14819
916.259	14781
916.371	14895
916.483	14739
916.595	14720
916.708	14667
916.82	14720
916.932	14693
917.044	14610
917.156	14640
917.268	14450
917.38	14590
917.491	14537
917.603	14564
917.715	14541
917.826	14720
917.938	14552
918.049	14412
918.161	14552
918.272	14655
918.384	14785
918.495	14533
918.606	14362
918.717	14351
918.828	14309
918.939	14374
919.05	14202
919.161	14275
919.272	14172
919.383	14168
919.494	14286
919.604	14473
919.715	14225
919.826	14282
919.936	14267
920.047	14347
920.157	14347
920.267	14465
920.378	14400
920.488	14244
920.598	14438
920.708	14598
920.818	14457
920.928	14419
921.038	14541
921.148	14488
921.258	14244
921.368	14145
921.477	14062
921.587	13955
921.697	13860
921.806	14062
921.916	13997
922.025	13677
922.134	13776
922.244	13639
922.353	13681
922.462	13670
922.571	13445
922.68	13320
922.789	13331
922.898	13316
923.007	13263
923.116	13365
923.224	13373
923.333	13251
923.442	13122
923.55	13145
923.659	13225
923.767	13274
923.876	13103
923.984	13202
924.092	12985
924.201	13110
924.309	13110
924.417	12966
924.525	13095
924.633	13008
924.741	13727
924.849	12772
924.956	12943
925.064	12795
925.172	12627
925.279	12734
925.387	12829
925.494	12696
925.602	12810
925.709	12764
925.816	12696
925.924	12669
926.031	12791
926.138	12608
926.245	12821
926.352	12608
926.459	12593
926.566	12757
926.673	12684
926.779	12574
926.886	12502
926.993	12426
927.099	12334
927.206	12262
927.312	12228
927.419	12372
927.525	12209
927.631	12361
927.737	12277
927.843	12140
927.95	12076
928.056	12015
928.162	12205
928.267	12178
928.373	12814
928.479	12197
928.585	11965
928.69	12152
928.796	12152
928.901	12034
929.007	11912
929.112	12068
929.218	11965
929.323	11916
929.428	11813
929.533	12007
929.638	11752
929.743	11821
929.848	11851
929.953	11851
930.058	11741
930.163	11608
930.267	11615
930.372	11676
930.477	11524
930.581	11771
930.685	11562
930.79	11452
930.894	11543
930.998	11414
931.103	11566
931.207	11170
931.311	11143
931.415	10991
931.519	10904
931.623	10854
