Data from test_V78500241_1591.txt Node
Date: Fri Mar 25 15:20:56 CST 2022
User: usil
Spectrometer: V785-0024
Trigger mode: 0
Integration Time (sec): 4.000000E-1
Scans to average: 1
Nonlinearity correction enabled: false
Boxcar width: 0
Storing dark spectrum: false
XAxis mode: Wavelengths
Number of Pixels in Spectrum: 1024
>>>>>Begin Spectral Data<<<<<
801.071	28036
801.214	28067
801.356	27538
801.499	27720
801.641	27485
801.783	27542
801.926	27504
802.068	27450
802.211	27431
802.353	27351
802.496	27226
802.638	27112
802.78	27165
802.923	27203
803.065	26990
803.208	27131
803.35	27287
803.492	27272
803.635	27401
803.777	27283
803.919	27344
804.061	27743
804.204	27450
804.346	27393
804.488	27302
804.63	27408
804.773	27169
804.915	27576
805.057	27526
805.199	27359
805.341	27424
805.483	27568
805.626	27591
805.768	27511
805.91	27492
806.052	27454
806.194	27477
806.336	27614
806.478	27561
806.62	27568
806.762	27644
806.904	27724
807.046	27975
807.188	27953
807.33	28021
807.472	27911
807.614	27808
807.756	27930
807.898	27819
808.04	27739
808.182	27873
808.324	27880
808.465	27774
808.607	28013
808.749	28272
808.891	28177
809.033	28158
809.174	28166
809.316	28086
809.458	28215
809.6	28188
809.741	28257
809.883	28177
810.025	28440
810.166	28352
810.308	28447
810.45	28375
810.591	28341
810.733	28284
810.875	28143
811.016	27972
811.158	28002
811.299	28188
811.441	28215
811.582	28162
811.724	28215
811.865	27960
812.007	28131
812.148	28147
812.29	28192
812.431	28341
812.573	28622
812.714	28523
812.855	28672
812.997	28641
813.138	28999
813.279	28713
813.421	28698
813.562	28790
813.703	28401
813.845	28337
813.986	28177
814.127	27888
814.268	27884
814.41	27846
814.551	27823
814.692	27937
814.833	27888
814.974	27717
815.115	27831
815.256	27652
815.397	27816
815.539	27914
815.68	27652
815.821	27622
815.962	27797
816.103	27561
816.244	27568
816.385	27485
816.526	27416
816.666	27256
816.807	27142
816.948	27245
817.089	27226
817.23	27348
817.371	27096
817.512	27157
817.653	27169
817.793	27131
817.934	27131
818.075	27321
818.216	27146
818.356	27116
818.497	27127
818.638	26876
818.778	26918
818.919	26918
819.06	27070
819.2	26990
819.341	27154
819.481	27325
819.622	27264
819.762	27542
819.903	27458
820.043	27458
820.184	27180
820.324	27188
820.465	27374
820.605	27252
820.746	27218
820.886	27104
821.026	27260
821.167	27192
821.307	27218
821.447	27150
821.588	27154
821.728	26948
821.868	26667
822.008	26613
822.149	26724
822.289	26556
822.429	26324
822.569	26180
822.709	26229
822.849	26142
822.99	26100
823.13	26100
823.27	26130
823.41	25940
823.55	25913
823.69	25970
823.83	25986
823.97	25818
824.11	25715
824.25	25761
824.389	25738
824.529	25856
824.669	25803
824.809	25845
824.949	26027
825.089	25734
825.228	25830
825.368	25635
825.508	25788
825.648	25655
825.787	25715
825.927	25666
826.067	25719
826.206	25510
826.346	25620
826.485	25761
826.625	25769
826.765	25818
826.904	25632
827.044	25464
827.183	25438
827.323	25324
827.462	25365
827.601	25415
827.741	25247
827.88	25434
828.02	25316
828.159	25358
828.298	25282
828.437	25308
828.577	25419
828.716	25529
828.855	25270
828.994	25080
829.134	25110
829.273	25148
829.412	25050
829.551	25114
829.69	25004
829.829	25122
829.968	25251
830.107	25133
830.246	25156
830.385	24996
830.524	24958
830.663	24886
830.802	24806
830.941	24703
831.08	24688
831.219	24677
831.357	24703
831.496	24924
831.635	24608
831.774	24559
831.913	24513
832.051	24494
832.19	24407
832.329	24502
832.467	24448
832.606	24395
832.744	24228
832.883	24315
833.022	24311
833.16	24289
833.299	24380
833.437	24315
833.576	24395
833.714	24315
833.852	24536
833.991	24426
834.129	24403
834.267	24532
834.406	24452
834.544	24513
834.682	24353
834.821	24479
834.959	24623
835.097	24365
835.235	24372
835.373	24323
835.511	24346
835.65	24182
835.788	24273
835.926	24064
836.064	24030
836.202	24117
836.34	24254
836.478	24315
836.615	24190
836.753	24213
836.891	24319
837.029	24167
837.167	24239
837.305	24060
837.443	24087
837.58	23847
837.718	24038
837.856	24095
837.993	23756
838.131	24041
838.269	23775
838.406	24083
838.544	23908
838.681	23680
838.819	23737
838.956	23646
839.094	23490
839.231	23535
839.369	23668
839.506	23870
839.643	23733
839.781	23562
839.918	23482
840.055	23547
840.193	23471
840.33	23425
840.467	23459
840.604	23440
840.742	23676
840.879	23330
841.016	23334
841.153	23269
841.29	23425
841.427	23493
841.564	23448
841.701	23478
841.838	23398
841.975	23269
842.112	23376
842.249	23258
842.385	23178
842.522	23459
842.659	23235
842.796	23105
842.933	23258
843.069	23109
843.206	23185
843.343	23273
843.479	23124
843.616	23254
843.752	23052
843.889	23022
844.025	23212
844.162	22995
844.298	23022
844.435	22847
844.571	22847
844.708	23022
844.844	22980
844.98	23132
845.117	23136
845.253	22938
845.389	22873
845.525	22866
845.661	22767
845.798	22653
845.934	22847
846.07	22687
846.206	22748
846.342	22793
846.478	22687
846.614	22436
846.75	22504
846.886	22443
847.022	22451
847.158	22402
847.294	22375
847.429	22371
847.565	22398
847.701	22752
847.837	22188
847.972	22185
848.108	22291
848.244	22207
848.379	22112
848.515	22051
848.65	21998
848.786	22067
848.921	22048
849.057	22154
849.192	22029
849.328	22051
849.463	22090
849.598	22044
849.734	21956
849.869	21854
850.004	21770
850.14	21755
850.275	21835
850.41	21686
850.545	21732
850.68	21739
850.815	21800
850.95	21819
851.085	21922
851.22	21797
851.355	21789
851.49	21808
851.625	21739
851.76	21755
851.895	21698
852.03	21682
852.165	21797
852.299	21850
852.434	21812
852.569	21926
852.703	21751
852.838	21880
852.973	22006
853.107	21857
853.242	21549
853.376	21701
853.511	21443
853.645	21545
853.78	21690
853.914	21595
854.048	21591
854.183	21599
854.317	21553
854.451	21854
854.585	21557
854.72	21709
854.854	21663
854.988	21614
855.122	21667
855.256	21511
855.39	21481
855.524	21667
855.658	21549
855.792	21576
855.926	21717
856.06	21629
856.194	21671
856.327	21580
856.461	21583
856.595	21568
856.729	21618
856.862	21694
856.996	21671
857.13	21648
857.263	21675
857.397	21789
857.53	21568
857.664	21663
857.797	21694
857.931	21660
858.064	21591
858.197	21694
858.331	21599
858.464	21488
858.597	21523
858.731	21694
858.864	21557
858.997	21549
859.13	21549
859.263	21698
859.396	21652
859.529	21553
859.662	21564
859.795	21572
859.928	21618
860.061	21781
860.194	21907
860.327	21671
860.46	21587
860.592	21656
860.725	21682
860.858	21732
860.99	21599
861.123	21591
861.256	21542
861.388	21637
861.521	22314
861.653	21534
861.786	21336
861.918	21428
862.05	21462
862.183	21553
862.315	21450
862.447	21709
862.58	21401
862.712	21469
862.844	21249
862.976	21374
863.108	21412
863.24	21648
863.372	21344
863.504	21325
863.636	21367
863.768	21469
863.9	21321
864.032	21268
864.164	21230
864.296	21412
864.428	21458
864.559	21412
864.691	21272
864.823	21363
864.954	21260
865.086	21302
865.217	21336
865.349	21173
865.48	21249
865.612	21370
865.743	21325
865.875	21176
866.006	21207
866.137	21306
866.269	21154
866.4	21294
866.531	21173
866.662	21116
866.793	21176
866.924	21104
867.055	21085
867.186	21108
867.317	21058
867.448	21112
867.579	21058
867.71	20994
867.841	21032
867.972	21173
868.103	21108
868.233	21055
868.364	21154
868.495	21230
868.625	21310
868.756	21587
868.886	21283
869.017	21321
869.147	21370
869.278	21477
869.408	21329
869.539	21370
869.669	21348
869.799	21606
869.929	21454
870.06	21450
870.19	21660
870.32	21610
870.45	21785
870.58	21641
870.71	21812
870.84	21747
870.97	21892
871.1	21751
871.23	21941
871.36	21941
871.489	21907
871.619	21918
871.749	21926
871.879	21983
872.008	22055
872.138	22010
872.267	21884
872.397	21888
872.526	21705
872.656	21827
872.785	21785
872.915	22021
873.044	22090
873.173	21994
873.303	22105
873.432	22090
873.561	22097
873.69	21991
873.819	22082
873.948	22070
874.077	22105
874.206	21861
874.335	22105
874.464	22147
874.593	22196
874.722	22162
874.851	22204
874.979	22150
875.108	22284
875.237	22249
875.365	22131
875.494	22207
875.623	22318
875.751	22158
875.88	22333
876.008	22234
876.136	22432
876.265	22687
876.393	22672
876.521	22607
876.65	22752
876.778	22607
876.906	22573
877.034	22546
877.162	22626
877.29	22550
877.418	22565
877.546	22561
877.674	22504
877.802	22664
877.93	22599
878.058	22485
878.185	22398
878.313	22561
878.441	22546
878.568	22295
878.696	22424
878.824	22436
878.951	22679
879.079	22634
879.206	22831
879.333	22691
879.461	22637
879.588	22691
879.715	22744
879.842	22824
879.97	22584
880.097	22466
880.224	22295
880.351	22481
880.478	22386
880.605	22360
880.732	22318
880.859	22592
880.986	22398
881.112	22455
881.239	22177
881.366	22128
881.493	22059
881.619	21873
881.746	22067
881.872	22090
881.999	21846
882.125	21842
882.252	22021
882.378	21915
882.505	22002
882.631	21698
882.757	21743
882.883	21770
883.01	21682
883.136	21614
883.262	21367
883.388	21450
883.514	21606
883.64	21732
883.766	21618
883.892	21469
884.018	21393
884.143	21667
884.269	21618
884.395	21291
884.52	21389
884.646	21313
884.772	21188
884.897	21055
885.023	21245
885.148	21313
885.274	21488
885.399	21389
885.524	21207
885.65	21374
885.775	21287
885.9	21245
886.025	21408
886.15	21447
886.275	21176
886.4	21142
886.525	21222
886.65	21283
886.775	21249
886.9	21355
887.025	21386
887.149	21268
887.274	21028
887.399	21047
887.523	21043
887.648	20921
887.773	20986
887.897	21176
888.021	21028
888.146	21043
888.27	21138
888.395	21081
888.519	21081
888.643	21131
888.767	21001
888.891	20986
889.015	20834
889.139	20937
889.263	20811
889.387	20876
889.511	20975
889.635	20861
889.759	20739
889.883	20823
890.006	20849
890.13	20944
890.254	20826
890.377	20746
890.501	20568
890.624	20568
890.748	20549
890.871	20480
890.995	20514
891.118	20434
891.241	20385
891.364	20537
891.488	20545
891.611	20381
891.734	20393
891.857	20419
891.98	20317
892.103	20457
892.226	20351
892.349	20404
892.471	20199
892.594	20332
892.717	20370
892.839	20278
892.962	20313
893.085	20400
893.207	20374
893.33	20142
893.452	20324
893.575	20275
893.697	20290
893.819	20438
893.941	20446
894.064	20396
894.186	20244
894.308	20157
894.43	20473
894.552	20374
894.674	20438
894.796	20290
894.918	20183
895.04	20195
895.161	20336
895.283	20377
895.405	20180
895.526	20233
895.648	20244
895.769	20290
895.891	20317
896.012	20457
896.134	20256
896.255	20248
896.376	20290
896.498	20294
896.619	20355
896.74	20233
896.861	20450
896.982	20583
897.103	20754
897.224	20579
897.345	20560
897.466	20457
897.587	20442
897.708	20571
897.828	20587
897.949	20594
898.07	20267
898.19	20560
898.311	20560
898.431	20419
898.552	20530
898.672	20419
898.792	20613
898.913	20568
899.033	20461
899.153	20347
899.273	20199
899.393	20233
899.513	20248
899.633	20221
899.753	20225
899.873	20256
899.993	20221
900.113	20134
900.232	20164
900.352	20199
900.472	20069
900.591	20050
900.711	20119
900.83	19997
900.95	20142
901.069	20164
901.189	19833
901.308	19677
901.427	19632
901.546	19613
901.665	19605
901.784	19624
901.904	19590
902.023	19400
902.141	19221
902.26	19114
902.379	19190
902.498	19129
902.617	19042
902.735	19129
902.854	19057
902.973	19069
903.091	18859
903.21	18779
903.328	18814
903.446	18673
903.565	18578
903.683	18627
903.801	18490
903.919	18604
904.038	18566
904.156	18323
904.274	18471
904.392	18479
904.51	18410
904.627	18357
904.745	18433
904.863	18403
904.981	18224
905.098	18174
905.216	17980
905.334	18095
905.451	18095
905.569	18087
905.686	18125
905.803	18053
905.921	17699
906.038	17931
906.155	17882
906.272	17665
906.389	17756
906.506	17589
906.623	17554
906.74	17627
906.857	17395
906.974	17474
907.091	17585
907.208	17657
907.324	17581
907.441	17421
907.557	17315
907.674	17280
907.79	17299
907.907	17349
908.023	17391
908.139	17227
908.256	17117
908.372	17162
908.488	17200
908.604	17083
908.72	16946
908.836	16972
908.952	16946
909.068	16987
909.184	17098
909.3	17003
909.415	17037
909.531	16915
909.647	16839
909.762	16725
909.878	16641
909.993	16710
910.108	16774
910.224	16683
910.339	16755
910.454	16637
910.57	16584
910.685	16409
910.8	16752
910.915	16611
911.03	16607
911.145	16424
911.259	16329
911.374	16367
911.489	16230
911.604	16223
911.718	16029
911.833	16086
911.947	15960
912.062	15827
912.176	15926
912.291	15979
912.405	16029
912.519	16105
912.633	16143
912.748	15991
912.862	15979
912.976	15915
913.09	15724
913.204	15793
913.318	15857
913.431	15987
913.545	15964
913.659	15972
913.772	15888
913.886	15660
914	15564
914.113	15720
914.226	15766
914.34	15637
914.453	15618
914.566	15705
914.68	15447
914.793	15633
914.906	15382
915.019	15245
915.132	15161
915.245	15321
915.358	15336
915.47	15287
915.583	15211
915.696	15233
915.809	15310
915.921	15481
916.034	15207
916.146	15135
916.259	15093
916.371	15199
916.483	15146
916.595	15100
916.708	15070
916.82	15173
916.932	15001
917.044	15028
917.156	15028
917.268	14830
917.38	14891
917.491	14883
917.603	14910
917.715	14967
917.826	15047
917.938	14887
918.049	14727
918.161	14815
918.272	15024
918.384	14921
918.495	14796
918.606	14686
918.717	14682
918.828	14727
918.939	14739
919.05	14530
919.161	14625
919.272	14419
919.383	14530
919.494	14625
919.604	14861
919.715	14655
919.826	14648
919.936	14632
920.047	14648
920.157	14636
920.267	14918
920.378	14640
920.488	14533
920.598	14705
920.708	14956
920.818	14686
920.928	14743
921.038	14834
921.148	14830
921.258	14590
921.368	14480
921.477	14336
921.587	14324
921.697	14187
921.806	14355
921.916	14172
922.025	13963
922.134	14008
922.244	13959
922.353	13970
922.462	13932
922.571	13807
922.68	13639
922.789	13578
922.898	13655
923.007	13525
923.116	13620
923.224	13655
923.333	13636
923.442	13403
923.55	13464
923.659	13521
923.767	13487
923.876	13373
923.984	13419
924.092	13403
924.201	13426
924.309	13343
924.417	13358
924.525	13240
924.633	13308
924.741	14214
924.849	13107
924.956	13209
925.064	13057
925.172	13107
925.279	13027
925.387	13061
925.494	13061
925.602	13209
925.709	13008
925.816	12913
925.924	13000
926.031	13164
926.138	13004
926.245	13042
926.352	12859
926.459	13000
926.566	13065
926.673	12981
926.779	12802
926.886	12806
926.993	12692
927.099	12681
927.206	12642
927.312	12608
927.419	12623
927.525	12654
927.631	12582
927.737	12555
927.843	12464
927.95	12426
928.056	12380
928.162	12399
928.267	12395
928.373	13053
928.479	12536
928.585	12289
928.69	12391
928.796	12372
928.901	12258
929.007	12239
929.112	12323
929.218	12186
929.323	12098
929.428	11999
929.533	12330
929.638	12053
929.743	12045
929.848	12114
929.953	12079
930.058	11958
930.163	11847
930.267	11813
930.372	11961
930.477	11752
930.581	12038
930.685	11851
930.79	11733
930.894	11821
930.998	11741
931.103	11790
931.207	11459
931.311	11463
931.415	11280
931.519	11102
931.623	11136
