Data from test_V78500241_976.txt Node
Date: Fri Mar 25 15:16:39 CST 2022
User: usil
Spectrometer: V785-0024
Trigger mode: 0
Integration Time (sec): 4.000000E-1
Scans to average: 1
Nonlinearity correction enabled: false
Boxcar width: 0
Storing dark spectrum: false
XAxis mode: Wavelengths
Number of Pixels in Spectrum: 1024
>>>>>Begin Spectral Data<<<<<
801.071	28337
801.214	28287
801.356	27972
801.499	27819
801.641	27739
801.783	27998
801.926	27812
802.068	27895
802.211	27637
802.353	27724
802.496	27538
802.638	27439
802.78	27564
802.923	27526
803.065	27485
803.208	27363
803.35	27397
803.492	27496
803.635	27473
803.777	27625
803.919	27675
804.061	27926
804.204	27679
804.346	27701
804.488	27739
804.63	27599
804.773	27667
804.915	27766
805.057	27759
805.199	27671
805.341	27785
805.483	27975
805.626	27903
805.768	27762
805.91	27736
806.052	27819
806.194	27800
806.336	27956
806.478	28010
806.62	27850
806.762	27953
806.904	27922
807.046	28333
807.188	28295
807.33	28314
807.472	28348
807.614	28230
807.756	28249
807.898	28188
808.04	28101
808.182	28070
808.324	28177
808.465	28196
808.607	28310
808.749	28474
808.891	28462
809.033	28694
809.174	28554
809.316	28413
809.458	28409
809.6	28485
809.741	28713
809.883	28729
810.025	28786
810.166	28862
810.308	28805
810.45	28588
810.591	28664
810.733	28588
810.875	28550
811.016	28440
811.158	28424
811.299	28664
811.441	28596
811.582	28778
811.724	28596
811.865	28561
812.007	28489
812.148	28466
812.29	28626
812.431	28660
812.573	28896
812.714	28968
812.855	28972
812.997	29052
813.138	29322
813.279	29193
813.421	29105
813.562	28896
813.703	28927
813.845	28843
813.986	28440
814.127	28310
814.268	28253
814.41	28356
814.551	28322
814.692	28265
814.833	28166
814.974	28185
815.115	28246
815.256	28147
815.397	28211
815.539	28063
815.68	27899
815.821	27930
815.962	28078
816.103	28097
816.244	27892
816.385	27793
816.526	27781
816.666	27641
816.807	27637
816.948	27610
817.089	27751
817.23	27660
817.371	27572
817.512	27751
817.653	27469
817.793	27526
817.934	27545
818.075	27511
818.216	27572
818.356	27576
818.497	27427
818.638	27275
818.778	27298
818.919	27336
819.06	27313
819.2	27526
819.341	27485
819.481	27519
819.622	27553
819.762	27949
819.903	27770
820.043	27747
820.184	27622
820.324	27519
820.465	27770
820.605	27660
820.746	27732
820.886	27614
821.026	27644
821.167	27633
821.307	27644
821.447	27515
821.588	27435
821.728	27317
821.868	27192
822.008	26960
822.149	26998
822.289	27001
822.429	26796
822.569	26689
822.709	26754
822.849	26617
822.99	26560
823.13	26476
823.27	26389
823.41	26438
823.55	26248
823.69	26389
823.83	26393
823.97	26385
824.11	26176
824.25	26191
824.389	26221
824.529	26336
824.669	26328
824.809	26377
824.949	26336
825.089	26370
825.228	26225
825.368	26103
825.508	25997
825.648	26031
825.787	26043
825.927	26164
826.067	26115
826.206	26039
826.346	26149
826.485	26096
826.625	26027
826.765	26138
826.904	26077
827.044	25875
827.183	25799
827.323	25864
827.462	25807
827.601	25795
827.741	25807
827.88	25769
828.02	25525
828.159	25906
828.298	25818
828.437	25887
828.577	25784
828.716	25833
828.855	25700
828.994	25548
829.134	25499
829.273	25506
829.412	25594
829.551	25392
829.69	25453
829.829	25514
829.968	25525
830.107	25479
830.246	25479
830.385	25491
830.524	25403
830.663	25339
830.802	25240
830.941	25034
831.08	25110
831.219	25152
831.357	25133
831.496	25362
831.635	25232
831.774	25160
831.913	25053
832.051	24973
832.19	24852
832.329	24924
832.467	24791
832.606	24730
832.744	24669
832.883	24890
833.022	24776
833.16	24814
833.299	24833
833.437	24791
833.576	24901
833.714	24833
833.852	24867
833.991	25023
834.129	24951
834.267	24992
834.406	24833
834.544	24943
834.682	24867
834.821	24829
834.959	25019
835.097	24741
835.235	24791
835.373	24776
835.511	24916
835.65	24757
835.788	24646
835.926	24559
836.064	24494
836.202	24536
836.34	24696
836.478	24875
836.615	24700
836.753	24650
836.891	24795
837.029	24684
837.167	24635
837.305	24639
837.443	24452
837.58	24410
837.718	24608
837.856	24570
837.993	24380
838.131	24597
838.269	24426
838.406	24456
838.544	24273
838.681	24190
838.819	24144
838.956	23977
839.094	23950
839.231	23946
839.369	24083
839.506	24426
839.643	24254
839.781	23939
839.918	24030
840.055	24083
840.193	24060
840.33	23904
840.467	23946
840.604	23912
840.742	24140
840.879	23726
841.016	23775
841.153	23794
841.29	24079
841.427	23939
841.564	23874
841.701	23954
841.838	23897
841.975	23558
842.112	23752
842.249	23623
842.385	23707
842.522	23805
842.659	23642
842.796	23764
842.933	23630
843.069	23608
843.206	23718
843.343	23630
843.479	23615
843.616	23649
843.752	23516
843.889	23497
844.025	23573
844.162	23501
844.298	23539
844.435	23414
844.571	23417
844.708	23505
844.844	23543
844.98	23619
845.117	23558
845.253	23402
845.389	23364
845.525	23356
845.661	23387
845.798	23246
845.934	23124
846.07	23079
846.206	23170
846.342	23273
846.478	23166
846.614	23006
846.75	22828
846.886	22930
847.022	22904
847.158	22934
847.294	22904
847.429	22854
847.565	22809
847.701	23128
847.837	22691
847.972	22554
848.108	22755
848.244	22611
848.379	22615
848.515	22314
848.65	22390
848.786	22455
848.921	22466
849.057	22622
849.192	22523
849.328	22485
849.463	22451
849.598	22322
849.734	22413
849.869	22238
850.004	22287
850.14	22295
850.275	22188
850.41	22162
850.545	22154
850.68	22188
850.815	22398
850.95	22242
851.085	22447
851.22	22382
851.355	22356
851.49	22211
851.625	22173
851.76	22287
851.895	22181
852.03	22139
852.165	22272
852.299	22272
852.434	22417
852.569	22303
852.703	22329
852.838	22348
852.973	22424
853.107	22360
853.242	22128
853.376	22158
853.511	21941
853.645	22032
853.78	22230
853.914	22143
854.048	21930
854.183	22097
854.317	22192
854.451	22299
854.585	22032
854.72	22055
854.854	22173
854.988	21915
855.122	22120
855.256	21934
855.39	22032
855.524	22051
855.658	22067
855.792	22097
855.926	22116
856.06	22154
856.194	22097
856.327	21987
856.461	21937
856.595	22002
856.729	22090
856.862	22109
856.996	22063
857.13	22044
857.263	22238
857.397	22143
857.53	21941
857.664	22124
857.797	22082
857.931	22101
858.064	22067
858.197	22109
858.331	22010
858.464	21861
858.597	21968
858.731	22036
858.864	22032
858.997	21930
859.13	21991
859.263	22025
859.396	22154
859.529	21994
859.662	22131
859.795	21994
859.928	22135
860.061	22223
860.194	22211
860.327	21949
860.46	22105
860.592	22177
860.725	22211
860.858	22238
860.99	22124
861.123	21892
861.256	21998
861.388	22162
861.521	22793
861.653	21972
861.786	21850
861.918	21926
862.05	21983
862.183	22025
862.315	22002
862.447	22029
862.58	22048
862.712	21838
862.844	21808
862.976	21865
863.108	21812
863.24	22109
863.372	21675
863.504	21804
863.636	21785
863.768	21869
863.9	21774
864.032	21751
864.164	21778
864.296	21717
864.428	21945
864.559	21793
864.691	21736
864.823	21800
864.954	21747
865.086	21720
865.217	21663
865.349	21622
865.48	21682
865.612	21739
865.743	21846
865.875	21686
866.006	21591
866.137	21633
866.269	21660
866.4	21663
866.531	21564
866.662	21526
866.793	21633
866.924	21561
867.055	21519
867.186	21576
867.317	21629
867.448	21485
867.579	21576
867.71	21542
867.841	21481
867.972	21580
868.103	21538
868.233	21561
868.364	21637
868.495	21682
868.625	21846
868.756	21823
868.886	21762
869.017	21899
869.147	21979
869.278	21911
869.408	21880
869.539	21785
869.669	21869
869.799	21842
869.929	21934
870.06	21884
870.19	22139
870.32	22044
870.45	22124
870.58	22143
870.71	22310
870.84	22249
870.97	22154
871.1	22196
871.23	22375
871.36	22523
871.489	22375
871.619	22424
871.749	22303
871.879	22462
872.008	22481
872.138	22542
872.267	22417
872.397	22223
872.526	22124
872.656	22333
872.785	22367
872.915	22428
873.044	22550
873.173	22394
873.303	22497
873.432	22413
873.561	22436
873.69	22459
873.819	22470
873.948	22474
874.077	22497
874.206	22371
874.335	22447
874.464	22577
874.593	22626
874.722	22679
874.851	22630
874.979	22702
875.108	22687
875.237	22717
875.365	22569
875.494	22679
875.623	22607
875.751	22550
875.88	22626
876.008	22694
876.136	22771
876.265	23056
876.393	23067
876.521	23121
876.65	23098
876.778	23025
876.906	22961
877.034	22957
877.162	22984
877.29	22873
877.418	23075
877.546	23018
877.674	23006
877.802	23086
877.93	22915
878.058	23003
878.185	22733
878.313	22949
878.441	22847
878.568	22774
878.696	22976
878.824	23067
878.951	23044
879.079	23280
879.206	23174
879.333	23223
879.461	23102
879.588	23143
879.715	23124
879.842	23292
879.97	23025
880.097	22744
880.224	22850
880.351	22809
880.478	22831
880.605	22801
880.732	22790
880.859	23048
880.986	22782
881.112	22797
881.239	22729
881.366	22409
881.493	22485
881.619	22356
881.746	22238
881.872	22367
881.999	22162
882.125	22265
882.252	22440
882.378	22440
882.505	22413
882.631	22207
882.757	22112
882.883	22101
883.01	22055
883.136	22124
883.262	21930
883.388	21884
883.514	22067
883.64	22097
883.766	22048
883.892	21873
884.018	21888
884.143	21899
884.269	22169
884.395	21873
884.52	21694
884.646	21747
884.772	21736
884.897	21698
885.023	21671
885.148	21865
885.274	21713
885.399	21876
885.524	21564
885.65	21732
885.775	21564
885.9	21583
886.025	21732
886.15	21728
886.275	21682
886.4	21652
886.525	21568
886.65	21595
886.775	21576
886.9	21694
887.025	21842
887.149	21698
887.274	21576
887.399	21469
887.523	21507
887.648	21496
887.773	21363
887.897	21553
888.021	21500
888.146	21370
888.27	21549
888.395	21492
888.519	21587
888.643	21466
888.767	21401
888.891	21405
889.015	21302
889.139	21344
889.263	21348
889.387	21233
889.511	21359
889.635	21424
889.759	21237
889.883	21218
890.006	21150
890.13	21370
890.254	21237
890.377	21096
890.501	21062
890.624	20838
890.748	20990
890.871	21047
890.995	20743
891.118	20697
891.241	20872
891.364	20807
891.488	20876
891.611	20853
891.734	20876
891.857	20845
891.98	20724
892.103	20819
892.226	20773
892.349	20823
892.471	20583
892.594	20765
892.717	20731
892.839	20739
892.962	20689
893.085	20750
893.207	20811
893.33	20720
893.452	20644
893.575	20678
893.697	20667
893.819	20872
893.941	20937
894.064	20785
894.186	20602
894.308	20613
894.43	20830
894.552	20724
894.674	20823
894.796	20575
894.918	20769
895.04	20594
895.161	20743
895.283	20602
895.405	20773
895.526	20583
895.648	20499
895.769	20659
895.891	20541
896.012	20716
896.134	20834
896.255	20754
896.376	20735
896.498	20674
896.619	20678
896.74	20667
896.861	20765
896.982	21051
897.103	21043
897.224	20982
897.345	20857
897.466	20868
897.587	20830
897.708	21081
897.828	20834
897.949	20906
898.07	20663
898.19	20811
898.311	20948
898.431	20746
898.552	20804
898.672	20887
898.792	21032
898.913	20769
899.033	20659
899.153	20670
899.273	20484
899.393	20686
899.513	20705
899.633	20587
899.753	20640
899.873	20556
899.993	20667
900.113	20484
900.232	20488
900.352	20514
900.472	20423
900.591	20370
900.711	20317
900.83	20423
900.95	20488
901.069	20530
901.189	20271
901.308	20046
901.427	19902
901.546	19974
901.665	19947
901.784	19925
901.904	19864
902.023	19761
902.141	19548
902.26	19502
902.379	19544
902.498	19460
902.617	19422
902.735	19514
902.854	19358
902.973	19422
903.091	19175
903.21	19160
903.328	19168
903.446	19080
903.565	19034
903.683	18977
903.801	18833
903.919	18882
904.038	18958
904.156	18669
904.274	18772
904.392	18738
904.51	18639
904.627	18646
904.745	18703
904.863	18722
904.981	18502
905.098	18330
905.216	18399
905.334	18540
905.451	18353
905.569	18426
905.686	18422
905.803	18369
905.921	18057
906.038	18235
906.155	18220
906.272	18155
906.389	18076
906.506	17855
906.623	17977
906.74	17889
906.857	17828
906.974	17687
907.091	17980
907.208	17977
907.324	17939
907.441	17817
907.557	17707
907.674	17615
907.79	17642
907.907	17566
908.023	17630
908.139	17516
908.256	17551
908.372	17440
908.488	17478
908.604	17391
908.72	17334
908.836	17402
908.952	17189
909.068	17391
909.184	17505
909.3	17353
909.415	17368
909.531	17341
909.647	17121
909.762	17037
909.878	17083
909.993	17071
910.108	17056
910.224	16923
910.339	17090
910.454	16797
910.57	16782
910.685	16744
910.8	17048
910.915	17018
911.03	16858
911.145	16630
911.259	16630
911.374	16603
911.489	16519
911.604	16455
911.718	16360
911.833	16432
911.947	16196
912.062	16166
912.176	16363
912.291	16455
912.405	16352
912.519	16451
912.633	16470
912.748	16356
912.862	16310
912.976	16215
913.09	16074
913.204	16044
913.318	16242
913.431	16226
913.545	16291
913.659	16215
913.772	16048
913.886	16032
914	15884
914.113	16074
914.226	16017
914.34	15994
914.453	15880
914.566	15998
914.68	15968
914.793	15869
914.906	15549
915.019	15477
915.132	15511
915.245	15614
915.358	15557
915.47	15469
915.583	15587
915.696	15568
915.809	15652
915.921	15728
916.034	15599
916.146	15473
916.259	15420
916.371	15511
916.483	15587
916.595	15439
916.708	15374
916.82	15378
916.932	15313
917.044	15340
917.156	15245
917.268	15173
917.38	15264
917.491	15116
917.603	15161
917.715	15321
917.826	15340
917.938	15218
918.049	15070
918.161	15287
918.272	15268
918.384	15268
918.495	15161
918.606	14998
918.717	14872
918.828	14902
918.939	14994
919.05	14849
919.161	14914
919.272	14746
919.383	14857
919.494	14990
919.604	15161
919.715	14956
919.826	14868
919.936	14933
920.047	15001
920.157	14849
920.267	15074
920.378	14823
920.488	14887
920.598	15062
920.708	15142
920.818	15089
920.928	14956
921.038	15184
921.148	15097
921.258	14826
921.368	14769
921.477	14670
921.587	14537
921.697	14499
921.806	14602
921.916	14480
922.025	14313
922.134	14275
922.244	14286
922.353	14240
922.462	14138
922.571	14058
922.68	13936
922.789	13902
922.898	13833
923.007	13917
923.116	13887
923.224	13868
923.333	13902
923.442	13788
923.55	13761
923.659	13780
923.767	13742
923.876	13674
923.984	13727
924.092	13575
924.201	13655
924.309	13647
924.417	13609
924.525	13533
924.633	13559
924.741	14571
924.849	13335
924.956	13499
925.064	13308
925.172	13236
925.279	13320
925.387	13350
925.494	13373
925.602	13434
925.709	13381
925.816	13327
925.924	13285
926.031	13324
926.138	13194
926.245	13285
926.352	13122
926.459	13236
926.566	13251
926.673	13240
926.779	13053
926.886	13000
926.993	12985
927.099	12875
927.206	12806
927.312	12802
927.419	12913
927.525	12825
927.631	12852
927.737	12776
927.843	12684
927.95	12559
928.056	12578
928.162	12639
928.267	12764
928.373	13365
928.479	12722
928.585	12475
928.69	12639
928.796	12639
928.901	12525
929.007	12388
929.112	12536
929.218	12475
929.323	12292
929.428	12403
929.533	12376
929.638	12342
929.743	12361
929.848	12273
929.953	12327
930.058	12197
930.163	11980
930.267	12007
930.372	12125
930.477	11950
930.581	12209
930.685	12076
930.79	11965
930.894	11916
930.998	11863
931.103	12167
931.207	11649
931.311	11619
931.415	11539
931.519	11292
931.623	11353
