Data from test_V78500241_2139.txt Node
Date: Fri Mar 25 15:24:45 CST 2022
User: usil
Spectrometer: V785-0024
Trigger mode: 0
Integration Time (sec): 4.000000E-1
Scans to average: 1
Nonlinearity correction enabled: false
Boxcar width: 0
Storing dark spectrum: false
XAxis mode: Wavelengths
Number of Pixels in Spectrum: 1024
>>>>>Begin Spectral Data<<<<<
801.071	27599
801.214	27511
801.356	27321
801.499	27386
801.641	27119
801.783	26975
801.926	27058
802.068	27256
802.211	27039
802.353	27013
802.496	26777
802.638	26804
802.78	26807
802.923	26724
803.065	26667
803.208	26754
803.35	26830
803.492	26868
803.635	27047
803.777	26876
803.919	26902
804.061	27382
804.204	27165
804.346	26849
804.488	26842
804.63	26986
804.773	26910
804.915	27043
805.057	27013
805.199	27051
805.341	27077
805.483	27154
805.626	27116
805.768	26982
805.91	27077
806.052	27119
806.194	27066
806.336	27298
806.478	27146
806.62	27043
806.762	27184
806.904	27363
807.046	27633
807.188	27557
807.33	27614
807.472	27660
807.614	27412
807.756	27507
807.898	27355
808.04	27408
808.182	27264
808.324	27412
808.465	27568
808.607	27641
808.749	27808
808.891	27857
809.033	27854
809.174	27850
809.316	27660
809.458	27660
809.6	27576
809.741	27865
809.883	27793
810.025	28021
810.166	28010
810.308	27991
810.45	27926
810.591	27880
810.733	27785
810.875	27633
811.016	27663
811.158	27542
811.299	27865
811.441	27835
811.582	27804
811.724	27717
811.865	27610
812.007	27679
812.148	27747
812.29	27743
812.431	27857
812.573	28032
812.714	28204
812.855	28299
812.997	28341
813.138	28512
813.279	28207
813.421	28265
813.562	28044
813.703	28025
813.845	27968
813.986	27713
814.127	27439
814.268	27348
814.41	27310
814.551	27344
814.692	27595
814.833	27332
814.974	27279
815.115	27496
815.256	27249
815.397	27260
815.539	27329
815.68	27116
815.821	27211
815.962	27237
816.103	27199
816.244	26944
816.385	27039
816.526	26849
816.666	26857
816.807	26743
816.948	26750
817.089	26880
817.23	26792
817.371	26648
817.512	26602
817.653	26678
817.793	26537
817.934	26629
818.075	26648
818.216	26659
818.356	26571
818.497	26514
818.638	26366
818.778	26431
818.919	26427
819.06	26480
819.2	26549
819.341	26579
819.481	26587
819.622	26853
819.762	26982
819.903	26940
820.043	26762
820.184	26674
820.324	26750
820.465	26739
820.605	26883
820.746	26720
820.886	26621
821.026	26655
821.167	26644
821.307	26838
821.447	26594
821.588	26560
821.728	26457
821.868	26244
822.008	26126
822.149	26142
822.289	26062
822.429	25883
822.569	25902
822.709	25788
822.849	25734
822.99	25674
823.13	25537
823.27	25483
823.41	25472
823.55	25354
823.69	25422
823.83	25510
823.97	25369
824.11	25183
824.25	25156
824.389	25255
824.529	25278
824.669	25278
824.809	25339
824.949	25358
825.089	25362
825.228	25430
825.368	25217
825.508	25034
825.648	25141
825.787	25129
825.927	25240
826.067	25019
826.206	25114
826.346	25278
826.485	25076
826.625	25031
826.765	25236
826.904	25244
827.044	24829
827.183	24875
827.323	24859
827.462	24875
827.601	24844
827.741	24844
827.88	24867
828.02	24764
828.159	24837
828.298	24768
828.437	24935
828.577	24802
828.716	24875
828.855	24779
828.994	24555
829.134	24456
829.273	24471
829.412	24517
829.551	24445
829.69	24566
829.829	24475
829.968	24578
830.107	24505
830.246	24578
830.385	24429
830.524	24521
830.663	24308
830.802	24277
830.941	24152
831.08	24194
831.219	24190
831.357	24190
831.496	24448
831.635	24053
831.774	24015
831.913	24038
832.051	23916
832.19	23817
832.329	23866
832.467	23828
832.606	23630
832.744	23703
832.883	23870
833.022	23775
833.16	23775
833.299	23828
833.437	23863
833.576	23687
833.714	23939
833.852	23824
833.991	23916
834.129	23992
834.267	23885
834.406	23828
834.544	23946
834.682	23901
834.821	23824
834.959	24038
835.097	23752
835.235	23760
835.373	23836
835.511	23878
835.65	23843
835.788	23695
835.926	23581
836.064	23490
836.202	23520
836.34	23840
836.478	23741
836.615	23672
836.753	23783
836.891	23824
837.029	23836
837.167	23657
837.305	23581
837.443	23505
837.58	23520
837.718	23649
837.856	23531
837.993	23463
838.131	23425
838.269	23429
838.406	23417
838.544	23387
838.681	23223
838.819	23143
838.956	23056
839.094	22942
839.231	23102
839.369	23117
839.506	23417
839.643	23353
839.781	23052
839.918	23014
840.055	23022
840.193	23006
840.33	23022
840.467	22949
840.604	23044
840.742	23197
840.879	22831
841.016	22908
841.153	22786
841.29	23033
841.427	22923
841.564	22972
841.701	23025
841.838	22824
841.975	22698
842.112	22854
842.249	22778
842.385	22622
842.522	22900
842.659	22645
842.796	22675
842.933	22615
843.069	22675
843.206	22645
843.343	22672
843.479	22698
843.616	22729
843.752	22424
843.889	22474
844.025	22516
844.162	22455
844.298	22546
844.435	22459
844.571	22405
844.708	22500
844.844	22443
844.98	22577
845.117	22546
845.253	22360
845.389	22287
845.525	22462
845.661	22272
845.798	22242
845.934	22246
846.07	22234
846.206	22173
846.342	22272
846.478	22242
846.614	21941
846.75	22040
846.886	21873
847.022	21975
847.158	22017
847.294	21907
847.429	22006
847.565	21918
847.701	22162
847.837	21641
847.972	21606
848.108	21854
848.244	21781
848.379	21603
848.515	21618
848.65	21466
848.786	21382
848.921	21542
849.057	21633
849.192	21496
849.328	21530
849.463	21488
849.598	21466
849.734	21488
849.869	21458
850.004	21214
850.14	21329
850.275	21462
850.41	21249
850.545	21230
850.68	21207
850.815	21283
850.95	21203
851.085	21382
851.22	21283
851.355	21367
851.49	21272
851.625	21241
851.76	21256
851.895	21222
852.03	21169
852.165	21279
852.299	21211
852.434	21230
852.569	21332
852.703	21325
852.838	21386
852.973	21351
853.107	21336
853.242	21176
853.376	21070
853.511	20948
853.645	21085
853.78	21165
853.914	21089
854.048	21070
854.183	21096
854.317	21146
854.451	21283
854.585	21112
854.72	21165
854.854	21214
854.988	20941
855.122	21123
855.256	20963
855.39	21165
855.524	21150
855.658	21127
855.792	21093
855.926	21066
856.06	21173
856.194	21214
856.327	20941
856.461	21077
856.595	21096
856.729	21081
856.862	21222
856.996	21154
857.13	21093
857.263	21184
857.397	21306
857.53	21093
857.664	21142
857.797	21055
857.931	21252
858.064	21043
858.197	21237
858.331	21039
858.464	21051
858.597	20960
858.731	21055
858.864	21112
858.997	20925
859.13	21173
859.263	21074
859.396	21252
859.529	21058
859.662	21074
859.795	21085
859.928	21077
860.061	21332
860.194	21294
860.327	21138
860.46	21127
860.592	21226
860.725	21291
860.858	21142
860.99	21070
861.123	20971
861.256	20883
861.388	20982
861.521	21667
861.653	21043
861.786	20982
861.918	20963
862.05	20933
862.183	21009
862.315	20998
862.447	21089
862.58	20853
862.712	20853
862.844	20777
862.976	20887
863.108	20826
863.24	21279
863.372	20716
863.504	20811
863.636	20678
863.768	20823
863.9	20815
864.032	20705
864.164	20731
864.296	20777
864.428	21013
864.559	20899
864.691	20902
864.823	20895
864.954	20811
865.086	20769
865.217	20777
865.349	20594
865.48	20720
865.612	20739
865.743	20918
865.875	20754
866.006	20731
866.137	20735
866.269	20648
866.4	20640
866.531	20724
866.662	20674
866.793	20769
866.924	20705
867.055	20735
867.186	20549
867.317	20621
867.448	20617
867.579	20636
867.71	20537
867.841	20587
867.972	20579
868.103	20621
868.233	20609
868.364	20693
868.495	20644
868.625	20845
868.756	21036
868.886	20902
869.017	20800
869.147	21039
869.278	20933
869.408	20883
869.539	20811
869.669	20925
869.799	20941
869.929	20853
870.06	20952
870.19	21135
870.32	21096
870.45	21252
870.58	21374
870.71	21351
870.84	21268
870.97	21241
871.1	21287
871.23	21435
871.36	21469
871.489	21306
871.619	21515
871.749	21545
871.879	21576
872.008	21481
872.138	21504
872.267	21492
872.397	21272
872.526	21275
872.656	21348
872.785	21256
872.915	21595
873.044	21507
873.173	21515
873.303	21481
873.432	21515
873.561	21595
873.69	21428
873.819	21591
873.948	21538
874.077	21534
874.206	21439
874.335	21469
874.464	21519
874.593	21641
874.722	21686
874.851	21713
874.979	21713
875.108	21797
875.237	21637
875.365	21667
875.494	21720
875.623	21797
875.751	21618
875.88	21823
876.008	21778
876.136	21861
876.265	22078
876.393	22230
876.521	22135
876.65	22211
876.778	22059
876.906	22101
877.034	22051
877.162	21994
877.29	21953
877.418	22120
877.546	22090
877.674	22090
877.802	22147
877.93	22021
878.058	21941
878.185	21876
878.313	22070
878.441	22059
878.568	21854
878.696	22048
878.824	22086
878.951	22067
879.079	22265
879.206	22386
879.333	22246
879.461	22257
879.588	22139
879.715	22246
879.842	22329
879.97	22147
880.097	21960
880.224	21937
880.351	21892
880.478	21755
880.605	21922
880.732	21915
880.859	22135
880.986	21895
881.112	21956
881.239	21747
881.366	21739
881.493	21603
881.619	21500
881.746	21481
881.872	21416
881.999	21435
882.125	21416
882.252	21469
882.378	21397
882.505	21606
882.631	21336
882.757	21252
882.883	21241
883.01	21093
883.136	21230
883.262	21058
883.388	21100
883.514	21192
883.64	21180
883.766	21127
883.892	20982
884.018	21009
884.143	21093
884.269	21154
884.395	20921
884.52	20769
884.646	20838
884.772	20849
884.897	20708
885.023	20796
885.148	20864
885.274	20952
885.399	20994
885.524	20781
885.65	20845
885.775	20921
885.9	20762
886.025	20944
886.15	20929
886.275	20785
886.4	20785
886.525	20659
886.65	20861
886.775	20689
886.9	20830
887.025	20971
887.149	20788
887.274	20636
887.399	20476
887.523	20701
887.648	20514
887.773	20404
887.897	20632
888.021	20552
888.146	20587
888.27	20651
888.395	20686
888.519	20575
888.643	20617
888.767	20606
888.891	20579
889.015	20366
889.139	20389
889.263	20465
889.387	20503
889.511	20579
889.635	20446
889.759	20309
889.883	20336
890.006	20400
890.13	20389
890.254	20317
890.377	20278
890.501	20081
890.624	20092
890.748	20187
890.871	19993
890.995	20016
891.118	20016
891.241	20046
891.364	19925
891.488	20122
891.611	19986
891.734	19967
891.857	19997
891.98	19970
892.103	19944
892.226	19963
892.349	19902
892.471	19814
892.594	19833
892.717	19898
892.839	19909
892.962	19864
893.085	19936
893.207	19852
893.33	19753
893.452	19875
893.575	19856
893.697	19974
893.819	20001
893.941	20031
894.064	20012
894.186	19860
894.308	19849
894.43	20020
894.552	20035
894.674	19940
894.796	19936
894.918	19913
895.04	19868
895.161	19944
895.283	19894
895.405	19731
895.526	19944
895.648	19864
895.769	19921
895.891	19868
896.012	20039
896.134	20016
896.255	19860
896.376	19883
896.498	19921
896.619	19856
896.74	19852
896.861	19955
896.982	20191
897.103	20252
897.224	20149
897.345	19982
897.466	20046
897.587	20008
897.708	20271
897.828	20248
897.949	20054
898.07	19982
898.19	20001
898.311	20115
898.431	19974
898.552	20111
898.672	20065
898.792	20130
898.913	20027
899.033	19947
899.153	19902
899.273	19887
899.393	19894
899.513	19776
899.633	19913
899.753	19830
899.873	19719
899.993	19947
900.113	19772
900.232	19928
900.352	19655
900.472	19780
900.591	19624
900.711	19620
900.83	19556
900.95	19693
901.069	19715
901.189	19518
901.308	19198
901.427	19240
901.546	19156
901.665	19183
901.784	19168
901.904	19141
902.023	18993
902.141	18684
902.26	18757
902.379	18844
902.498	18802
902.617	18802
902.735	19008
902.854	18711
902.973	18741
903.091	18441
903.21	18369
903.328	18460
903.446	18266
903.565	18228
903.683	18224
903.801	18083
903.919	18178
904.038	18315
904.156	17961
904.274	18060
904.392	18041
904.51	17950
904.627	17942
904.745	17920
904.863	18007
904.981	17882
905.098	17661
905.216	17695
905.334	17703
905.451	17722
905.569	17600
905.686	17691
905.803	17710
905.921	17474
906.038	17425
906.155	17486
906.272	17292
906.389	17368
906.506	17239
906.623	17261
906.74	17162
906.857	17181
906.974	17132
907.091	17265
907.208	17326
907.324	17136
907.441	17056
907.557	16885
907.674	16927
907.79	16816
907.907	16877
908.023	16881
908.139	16900
908.256	16824
908.372	16847
908.488	16694
908.604	16660
908.72	16550
908.836	16782
908.952	16516
909.068	16672
909.184	16717
909.3	16626
909.415	16694
909.531	16588
909.647	16318
909.762	16402
909.878	16325
909.993	16390
910.108	16211
910.224	16226
910.339	16306
910.454	16173
910.57	16177
910.685	16082
910.8	16398
910.915	16344
911.03	16128
911.145	16082
911.259	15907
911.374	16002
911.489	15774
911.604	15724
911.718	15671
911.833	15656
911.947	15534
912.062	15614
912.176	15686
912.291	15679
912.405	15660
912.519	15793
912.633	15857
912.748	15785
912.862	15580
912.976	15469
913.09	15424
913.204	15469
913.318	15496
913.431	15530
913.545	15629
913.659	15614
913.772	15447
913.886	15325
914	15313
914.113	15351
914.226	15428
914.34	15306
914.453	15142
914.566	15340
914.68	15100
914.793	15222
914.906	14921
915.019	14971
915.132	14861
915.245	14868
915.358	14845
915.47	14921
915.583	14876
915.696	14933
915.809	15028
915.921	14998
916.034	14773
916.146	14750
916.259	14842
916.371	14929
916.483	14906
916.595	14602
916.708	14800
916.82	14678
916.932	14720
917.044	14674
917.156	14613
917.268	14530
917.38	14568
917.491	14625
917.603	14587
917.715	14697
917.826	14632
917.938	14541
918.049	14457
918.161	14499
918.272	14598
918.384	14712
918.495	14522
918.606	14400
918.717	14229
918.828	14324
918.939	14385
919.05	14271
919.161	14374
919.272	14084
919.383	14191
919.494	14347
919.604	14427
919.715	14275
919.826	14180
919.936	14313
920.047	14431
920.157	14259
920.267	14484
920.378	14313
920.488	14317
920.598	14514
920.708	14598
920.818	14412
920.928	14412
921.038	14686
921.148	14503
921.258	14324
921.368	14229
921.477	14043
921.587	14020
921.697	13871
921.806	14024
921.916	13947
922.025	13757
922.134	13696
922.244	13624
922.353	13674
922.462	13597
922.571	13647
922.68	13324
922.789	13426
922.898	13400
923.007	13304
923.116	13324
923.224	13308
923.333	13335
923.442	13194
923.55	13213
923.659	13145
923.767	13244
923.876	13053
923.984	13152
924.092	13072
924.201	13156
924.309	12985
924.417	13221
924.525	12958
924.633	13008
924.741	13818
924.849	12837
924.956	13042
925.064	12817
925.172	12688
925.279	12734
925.387	12749
925.494	12802
925.602	12913
925.709	12867
925.816	12662
925.924	12700
926.031	12776
926.138	12703
926.245	12730
926.352	12608
926.459	12681
926.566	12795
926.673	12597
926.779	12525
926.886	12486
926.993	12315
927.099	12365
927.206	12258
927.312	12304
927.419	12433
927.525	12334
927.631	12342
927.737	12228
927.843	12106
927.95	12064
928.056	12190
928.162	12152
928.267	12148
928.373	12821
928.479	12273
928.585	11912
928.69	12087
928.796	12083
928.901	11999
929.007	11802
929.112	12087
929.218	11980
929.323	11912
929.428	11836
929.533	11920
929.638	11840
929.743	11847
929.848	11885
929.953	11726
930.058	11718
930.163	11649
930.267	11592
930.372	11684
930.477	11535
930.581	11828
930.685	11596
930.79	11528
930.894	11520
930.998	11395
931.103	11558
931.207	11307
931.311	11132
931.415	11056
931.519	10923
931.623	10934
