Data from test_V78500241_1267.txt Node
Date: Fri Mar 25 15:18:40 CST 2022
User: usil
Spectrometer: V785-0024
Trigger mode: 0
Integration Time (sec): 4.000000E-1
Scans to average: 1
Nonlinearity correction enabled: false
Boxcar width: 0
Storing dark spectrum: false
XAxis mode: Wavelengths
Number of Pixels in Spectrum: 1024
>>>>>Begin Spectral Data<<<<<
801.071	28093
801.214	27994
801.356	27641
801.499	27698
801.641	27542
801.783	27736
801.926	27690
802.068	27542
802.211	27561
802.353	27447
802.496	27283
802.638	27188
802.78	27184
802.923	27116
803.065	27028
803.208	27058
803.35	27283
803.492	27279
803.635	27355
803.777	27329
803.919	27545
804.061	27766
804.204	27542
804.346	27397
804.488	27374
804.63	27408
804.773	27344
804.915	27492
805.057	27656
805.199	27477
805.341	27564
805.483	27641
805.626	27610
805.768	27348
805.91	27348
806.052	27530
806.194	27519
806.336	27682
806.478	27473
806.62	27580
806.762	27743
806.904	27770
807.046	28006
807.188	27873
807.33	27918
807.472	28078
807.614	27983
807.756	27895
807.898	27823
808.04	27812
808.182	27694
808.324	27812
808.465	27884
808.607	28070
808.749	28116
808.891	28261
809.033	28352
809.174	28185
809.316	28086
809.458	28177
809.6	28143
809.741	28310
809.883	28394
810.025	28455
810.166	28573
810.308	28455
810.45	28409
810.591	28356
810.733	28234
810.875	28116
811.016	28044
811.158	28013
811.299	28204
811.441	28314
811.582	28341
811.724	28154
811.865	28219
812.007	28291
812.148	28131
812.29	28344
812.431	28451
812.573	28573
812.714	28634
812.855	28733
812.997	28736
813.138	28976
813.279	28866
813.421	28801
813.562	28698
813.703	28679
813.845	28401
813.986	28147
814.127	28101
814.268	27941
814.41	27914
814.551	27846
814.692	27914
814.833	27861
814.974	27850
815.115	27846
815.256	27797
815.397	27835
815.539	27812
815.68	27542
815.821	27656
815.962	27751
816.103	27641
816.244	27519
816.385	27599
816.526	27515
816.666	27340
816.807	27268
816.948	27355
817.089	27294
817.23	27310
817.371	27252
817.512	27321
817.653	27195
817.793	27264
817.934	27127
818.075	27203
818.216	27237
818.356	27180
818.497	27070
818.638	26963
818.778	26921
818.919	26971
819.06	26960
819.2	27150
819.341	27317
819.481	27123
819.622	27268
819.762	27538
819.903	27473
820.043	27416
820.184	27218
820.324	27241
820.465	27386
820.605	27340
820.746	27408
820.886	27089
821.026	27249
821.167	27367
821.307	27344
821.447	27272
821.588	27195
821.728	27013
821.868	26853
822.008	26720
822.149	26705
822.289	26686
822.429	26511
822.569	26446
822.709	26328
822.849	26195
822.99	26248
823.13	26164
823.27	26252
823.41	26058
823.55	25818
823.69	26039
823.83	26081
823.97	25879
824.11	25822
824.25	25784
824.389	25989
824.529	25970
824.669	25811
824.809	26024
824.949	26073
825.089	26046
825.228	25875
825.368	25639
825.508	25746
825.648	25780
825.787	25601
825.927	25837
826.067	25753
826.206	25811
826.346	25772
826.485	25833
826.625	25776
826.765	25807
826.904	25799
827.044	25510
827.183	25578
827.323	25460
827.462	25499
827.601	25559
827.741	25472
827.88	25400
828.02	25324
828.159	25510
828.298	25434
828.437	25563
828.577	25358
828.716	25540
828.855	25346
828.994	25057
829.134	25091
829.273	25164
829.412	25198
829.551	25061
829.69	25171
829.829	25217
829.968	25236
830.107	25289
830.246	25221
830.385	25069
830.524	25103
830.663	24935
830.802	24977
830.941	24833
831.08	24741
831.219	24970
831.357	24962
831.496	24909
831.635	24844
831.774	24764
831.913	24719
832.051	24521
832.19	24578
832.329	24635
832.467	24593
832.606	24422
832.744	24452
832.883	24532
833.022	24490
833.16	24631
833.299	24445
833.437	24475
833.576	24536
833.714	24574
833.852	24528
833.991	24551
834.129	24620
834.267	24642
834.406	24418
834.544	24608
834.682	24525
834.821	24616
834.959	24639
835.097	24483
835.235	24517
835.373	24505
835.511	24505
835.65	24403
835.788	24467
835.926	24304
836.064	24129
836.202	24258
836.34	24266
836.478	24448
836.615	24232
836.753	24285
836.891	24403
837.029	24361
837.167	24281
837.305	24254
837.443	24163
837.58	24285
837.718	24216
837.856	24224
837.993	24121
838.131	24136
838.269	24076
838.406	24095
838.544	23992
838.681	23904
838.819	23946
838.956	23748
839.094	23703
839.231	23714
839.369	23942
839.506	24045
839.643	23969
839.781	23592
839.918	23653
840.055	23554
840.193	23577
840.33	23570
840.467	23592
840.604	23482
840.742	23901
840.879	23482
841.016	23512
841.153	23524
841.29	23699
841.427	23471
841.564	23657
841.701	23486
841.838	23589
841.975	23455
842.112	23417
842.249	23356
842.385	23372
842.522	23551
842.659	23296
842.796	23395
842.933	23398
843.069	23436
843.206	23261
843.343	23387
843.479	23402
843.616	23284
843.752	23060
843.889	23132
844.025	23303
844.162	23250
844.298	23200
844.435	23014
844.571	23003
844.708	23170
844.844	23307
844.98	23292
845.117	23273
845.253	23117
845.389	22904
845.525	22968
845.661	23010
845.798	22729
845.934	22881
846.07	22778
846.206	22850
846.342	23029
846.478	22782
846.614	22637
846.75	22512
846.886	22717
847.022	22641
847.158	22573
847.294	22618
847.429	22615
847.565	22504
847.701	22873
847.837	22333
847.972	22204
848.108	22413
848.244	22356
848.379	22181
848.515	22181
848.65	22219
848.786	22188
848.921	22284
849.057	22204
849.192	22356
849.328	22143
849.463	22128
849.598	22162
849.734	22048
849.869	22166
850.004	21846
850.14	21941
850.275	21987
850.41	21827
850.545	21861
850.68	21751
850.815	21972
850.95	21892
851.085	22139
851.22	22090
851.355	21934
851.49	21930
851.625	21903
851.76	21922
851.895	21907
852.03	21762
852.165	21998
852.299	21899
852.434	21998
852.569	21941
852.703	21934
852.838	21895
852.973	22120
853.107	22010
853.242	21854
853.376	21762
853.511	21641
853.645	21709
853.78	21876
853.914	21831
854.048	21774
854.183	21682
854.317	21774
854.451	22048
854.585	21682
854.72	21785
854.854	21709
854.988	21663
855.122	21766
855.256	21656
855.39	21720
855.524	21709
855.658	21846
855.792	21682
855.926	21895
856.06	21873
856.194	21846
856.327	21736
856.461	21694
856.595	21751
856.729	21633
856.862	21816
856.996	21724
857.13	21732
857.263	21968
857.397	21888
857.53	21694
857.664	21789
857.797	21755
857.931	21823
858.064	21713
858.197	21949
858.331	21785
858.464	21789
858.597	21717
858.731	21747
858.864	21587
858.997	21797
859.13	21667
859.263	21770
859.396	21804
859.529	21656
859.662	21648
859.795	21644
859.928	21720
860.061	21903
860.194	21918
860.327	21812
860.46	21705
860.592	21785
860.725	21922
860.858	21793
860.99	21770
861.123	21663
861.256	21720
861.388	21622
861.521	22508
861.653	21488
861.786	21572
861.918	21644
862.05	21644
862.183	21656
862.315	21728
862.447	21766
862.58	21778
862.712	21458
862.844	21435
862.976	21610
863.108	21439
863.24	21709
863.372	21405
863.504	21469
863.636	21397
863.768	21488
863.9	21473
864.032	21351
864.164	21443
864.296	21481
864.428	21454
864.559	21450
864.691	21462
864.823	21485
864.954	21325
865.086	21355
865.217	21439
865.349	21313
865.48	21264
865.612	21310
865.743	21496
865.875	21370
866.006	21344
866.137	21351
866.269	21321
866.4	21408
866.531	21359
866.662	21131
866.793	21230
866.924	21279
867.055	21283
867.186	21359
867.317	21256
867.448	21351
867.579	21161
867.71	21039
867.841	21074
867.972	21344
868.103	21142
868.233	21294
868.364	21336
868.495	21469
868.625	21454
868.756	21625
868.886	21291
869.017	21405
869.147	21583
869.278	21698
869.408	21504
869.539	21492
869.669	21542
869.799	21663
869.929	21587
870.06	21720
870.19	21850
870.32	21888
870.45	21823
870.58	21922
870.71	22029
870.84	22082
870.97	21911
871.1	21846
871.23	21975
871.36	22086
871.489	22017
871.619	22036
871.749	22040
871.879	22147
872.008	22135
872.138	21987
872.267	22166
872.397	21930
872.526	22025
872.656	21934
872.785	21918
872.915	22090
873.044	22200
873.173	22010
873.303	22162
873.432	22078
873.561	22204
873.69	22116
873.819	22173
873.948	22051
874.077	22150
874.206	21979
874.335	22109
874.464	22249
874.593	22226
874.722	22246
874.851	22421
874.979	22443
875.108	22375
875.237	22226
875.365	22219
875.494	22253
875.623	22394
875.751	22306
875.88	22405
876.008	22451
876.136	22668
876.265	22637
876.393	22805
876.521	22778
876.65	22774
876.778	22790
876.906	22588
877.034	22542
877.162	22607
877.29	22577
877.418	22740
877.546	22778
877.674	22615
877.802	22588
877.93	22660
878.058	22618
878.185	22504
878.313	22721
878.441	22702
878.568	22527
878.696	22599
878.824	22733
878.951	22759
879.079	22889
879.206	23010
879.333	22881
879.461	22694
879.588	22816
879.715	22831
879.842	22908
879.97	22763
880.097	22531
880.224	22531
880.351	22603
880.478	22500
880.605	22497
880.732	22470
880.859	22706
880.986	22485
881.112	22531
881.239	22398
881.366	22257
881.493	22067
881.619	22120
881.746	22025
881.872	22010
881.999	22143
882.125	22013
882.252	22017
882.378	22185
882.505	22131
882.631	21998
882.757	21759
882.883	21842
883.01	21835
883.136	21614
883.262	21663
883.388	21583
883.514	21774
883.64	21816
883.766	21671
883.892	21481
884.018	21580
884.143	21606
884.269	21663
884.395	21511
884.52	21378
884.646	21336
884.772	21424
884.897	21291
885.023	21458
885.148	21462
885.274	21511
885.399	21606
885.524	21370
885.65	21435
885.775	21469
885.9	21226
886.025	21462
886.15	21488
886.275	21351
886.4	21351
886.525	21340
886.65	21367
886.775	21355
886.9	21431
887.025	21622
887.149	21317
887.274	21294
887.399	21135
887.523	21192
887.648	21207
887.773	21070
887.897	21310
888.021	21252
888.146	21169
888.27	21207
888.395	21226
888.519	21184
888.643	21176
888.767	21169
888.891	21093
889.015	20960
889.139	21058
889.263	20914
889.387	21093
889.511	21096
889.635	21028
889.759	21009
889.883	20994
890.006	20929
890.13	20986
890.254	20872
890.377	20853
890.501	20735
890.624	20648
890.748	20758
890.871	20602
890.995	20518
891.118	20473
891.241	20613
891.364	20640
891.488	20629
891.611	20522
891.734	20514
891.857	20526
891.98	20499
892.103	20583
892.226	20556
892.349	20507
892.471	20336
892.594	20221
892.717	20564
892.839	20465
892.962	20469
893.085	20438
893.207	20438
893.33	20290
893.452	20469
893.575	20507
893.697	20374
893.819	20579
893.941	20571
894.064	20552
894.186	20301
894.308	20298
894.43	20537
894.552	20617
894.674	20393
894.796	20404
894.918	20469
895.04	20328
895.161	20454
895.283	20575
895.405	20328
895.526	20454
895.648	20336
895.769	20423
895.891	20526
896.012	20476
896.134	20461
896.255	20488
896.376	20313
896.498	20400
896.619	20381
896.74	20457
896.861	20446
896.982	20762
897.103	20800
897.224	20670
897.345	20644
897.466	20541
897.587	20602
897.708	20701
897.828	20541
897.949	20587
898.07	20499
898.19	20480
898.311	20682
898.431	20492
898.552	20606
898.672	20636
898.792	20613
898.913	20693
899.033	20419
899.153	20454
899.273	20412
899.393	20427
899.513	20339
899.633	20408
899.753	20381
899.873	20210
899.993	20271
900.113	20305
900.232	20355
900.352	20267
900.472	20111
900.591	20172
900.711	20065
900.83	20058
900.95	20278
901.069	20100
901.189	20058
901.308	19784
901.427	19647
901.546	19795
901.665	19651
901.784	19750
901.904	19594
902.023	19476
902.141	19320
902.26	19293
902.379	19445
902.498	19171
902.617	19221
902.735	19289
902.854	19095
902.973	19129
903.091	18935
903.21	18833
903.328	18901
903.446	18806
903.565	18570
903.683	18715
903.801	18593
903.919	18604
904.038	18593
904.156	18513
904.274	18582
904.392	18403
904.51	18414
904.627	18361
904.745	18467
904.863	18555
904.981	18205
905.098	18174
905.216	18026
905.334	18174
905.451	18228
905.569	18182
905.686	18068
905.803	18095
905.921	17874
906.038	18026
906.155	18007
906.272	17855
906.389	17840
906.506	17646
906.623	17649
906.74	17573
906.857	17585
906.974	17581
907.091	17680
907.208	17733
907.324	17585
907.441	17630
907.557	17414
907.674	17467
907.79	17356
907.907	17372
908.023	17493
908.139	17330
908.256	17356
908.372	17212
908.488	17322
908.604	17128
908.72	17037
908.836	17067
908.952	17014
909.068	17067
909.184	17185
909.3	17060
909.415	17200
909.531	16999
909.647	16972
909.762	16816
909.878	16820
909.993	16790
910.108	16816
910.224	16713
910.339	16774
910.454	16710
910.57	16573
910.685	16451
910.8	16850
910.915	16675
911.03	16637
911.145	16455
911.259	16371
911.374	16417
911.489	16382
911.604	16242
911.718	16173
911.833	16154
911.947	16017
912.062	15941
912.176	16162
912.291	16074
912.405	16147
912.519	16242
912.633	16287
912.748	16109
912.862	16074
912.976	15869
913.09	15899
913.204	15846
913.318	15994
913.431	16044
913.545	16017
913.659	16002
913.772	15899
913.886	15709
914	15724
914.113	15789
914.226	15766
914.34	15781
914.453	15652
914.566	15785
914.68	15739
914.793	15595
914.906	15382
915.019	15336
915.132	15321
915.245	15294
915.358	15329
915.47	15287
915.583	15393
915.696	15313
915.809	15416
915.921	15466
916.034	15321
916.146	15275
916.259	15279
916.371	15279
916.483	15298
916.595	15142
916.708	15180
916.82	15074
916.932	15173
917.044	15150
917.156	15097
917.268	14986
917.38	14956
917.491	14975
917.603	15032
917.715	15036
917.826	14956
917.938	14937
918.049	14765
918.161	14872
918.272	15062
918.384	15020
918.495	14921
918.606	14754
918.717	14705
918.828	14727
918.939	14739
919.05	14545
919.161	14644
919.272	14587
919.383	14659
919.494	14777
919.604	14891
919.715	14678
919.826	14606
919.936	14610
920.047	14804
920.157	14678
920.267	14887
920.378	14712
920.488	14629
920.598	14872
920.708	15020
920.818	14849
920.928	14842
921.038	15028
921.148	14963
921.258	14625
921.368	14522
921.477	14389
921.587	14442
921.697	14244
921.806	14454
921.916	14210
922.025	14119
922.134	14126
922.244	13913
922.353	14062
922.462	13883
922.571	13963
922.68	13723
922.789	13708
922.898	13746
923.007	13723
923.116	13731
923.224	13670
923.333	13639
923.442	13502
923.55	13487
923.659	13540
923.767	13575
923.876	13495
923.984	13510
924.092	13407
924.201	13445
924.309	13525
924.417	13468
924.525	13324
924.633	13400
924.741	14073
924.849	13152
924.956	13327
925.064	13244
925.172	13095
925.279	13095
925.387	13175
925.494	13129
925.602	13225
925.709	13126
925.816	12996
925.924	13126
926.031	13084
926.138	13149
926.245	13213
926.352	12996
926.459	13084
926.566	13171
926.673	12966
926.779	12894
926.886	12833
926.993	12684
927.099	12650
927.206	12627
927.312	12574
927.419	12772
927.525	12722
927.631	12696
927.737	12525
927.843	12521
927.95	12353
928.056	12460
928.162	12574
928.267	12544
928.373	13114
928.479	12582
928.585	12334
928.69	12418
928.796	12372
928.901	12445
929.007	12220
929.112	12270
929.218	12296
929.323	12224
929.428	12239
929.533	12330
929.638	12148
929.743	12098
929.848	12258
929.953	12273
930.058	12041
930.163	11893
930.267	11969
930.372	12030
930.477	11863
930.581	12060
930.685	11878
930.79	11722
930.894	11805
930.998	11760
931.103	11836
931.207	11573
931.311	11524
931.415	11330
931.519	11147
931.623	11265
