Data from test_V78500241_1229.txt Node
Date: Fri Mar 25 15:18:24 CST 2022
User: usil
Spectrometer: V785-0024
Trigger mode: 0
Integration Time (sec): 4.000000E-1
Scans to average: 1
Nonlinearity correction enabled: false
Boxcar width: 0
Storing dark spectrum: false
XAxis mode: Wavelengths
Number of Pixels in Spectrum: 1024
>>>>>Begin Spectral Data<<<<<
801.071	28109
801.214	28097
801.356	27800
801.499	27797
801.641	27728
801.783	27705
801.926	27701
802.068	27675
802.211	27561
802.353	27686
802.496	27549
802.638	27332
802.78	27218
802.923	27336
803.065	27211
803.208	27317
803.35	27447
803.492	27416
803.635	27435
803.777	27583
803.919	27587
804.061	27934
804.204	27656
804.346	27507
804.488	27374
804.63	27618
804.773	27629
804.915	27542
805.057	27641
805.199	27667
805.341	27618
805.483	27865
805.626	27743
805.768	27595
805.91	27644
806.052	27808
806.194	27648
806.336	27827
806.478	27747
806.62	27671
806.762	27812
806.904	27926
807.046	28109
807.188	28128
807.33	28078
807.472	28131
807.614	28025
807.756	28059
807.898	28002
808.04	27918
808.182	27956
808.324	27956
808.465	28074
808.607	28207
808.749	28382
808.891	28409
809.033	28577
809.174	28356
809.316	28508
809.458	28466
809.6	28291
809.741	28599
809.883	28580
810.025	28694
810.166	28683
810.308	28668
810.45	28569
810.591	28584
810.733	28417
810.875	28226
811.016	28143
811.158	28219
811.299	28466
811.441	28615
811.582	28413
811.724	28455
811.865	28466
812.007	28329
812.148	28424
812.29	28390
812.431	28440
812.573	28687
812.714	28828
812.855	28835
812.997	28999
813.138	29102
813.279	29037
813.421	29006
813.562	28866
813.703	28713
813.845	28656
813.986	28314
814.127	28154
814.268	28048
814.41	28006
814.551	28082
814.692	28112
814.833	28128
814.974	27953
815.115	28044
815.256	28055
815.397	27850
815.539	27846
815.68	27873
815.821	27736
815.962	27778
816.103	27816
816.244	27682
816.385	27591
816.526	27660
816.666	27496
816.807	27157
816.948	27298
817.089	27504
817.23	27370
817.371	27401
817.512	27405
817.653	27294
817.793	27420
817.934	27363
818.075	27389
818.216	27435
818.356	27313
818.497	27279
818.638	27051
818.778	27157
818.919	27077
819.06	27017
819.2	27214
819.341	27332
819.481	27325
819.622	27530
819.762	27724
819.903	27747
820.043	27603
820.184	27523
820.324	27545
820.465	27568
820.605	27523
820.746	27393
820.886	27294
821.026	27515
821.167	27450
821.307	27397
821.447	27458
821.588	27268
821.728	27161
821.868	26872
822.008	26800
822.149	26781
822.289	26792
822.429	26617
822.569	26484
822.709	26549
822.849	26381
822.99	26362
823.13	26385
823.27	26191
823.41	26164
823.55	26001
823.69	26149
823.83	26092
823.97	26164
824.11	25868
824.25	25993
824.389	26077
824.529	26039
824.669	25944
824.809	26126
824.949	26081
825.089	25970
825.228	26050
825.368	25925
825.508	25826
825.648	25974
825.787	25868
825.927	25849
826.067	25738
826.206	25784
826.346	25898
826.485	25871
826.625	25750
826.765	26001
826.904	25875
827.044	25601
827.183	25594
827.323	25670
827.462	25689
827.601	25601
827.741	25655
827.88	25670
828.02	25476
828.159	25597
828.298	25674
828.437	25563
828.577	25434
828.716	25597
828.855	25575
828.994	25362
829.134	25308
829.273	25384
829.412	25381
829.551	25084
829.69	25304
829.829	25521
829.968	25320
830.107	25392
830.246	25259
830.385	25266
830.524	25217
830.663	25057
830.802	24943
830.941	24973
831.08	24844
831.219	24894
831.357	24863
831.496	25148
831.635	24886
831.774	24772
831.913	24875
832.051	24817
832.19	24700
832.329	24665
832.467	24597
832.606	24620
832.744	24536
832.883	24471
833.022	24532
833.16	24688
833.299	24555
833.437	24601
833.576	24688
833.714	24658
833.852	24844
833.991	24722
834.129	24772
834.267	24970
834.406	24673
834.544	24635
834.682	24719
834.821	24570
834.959	24646
835.097	24547
835.235	24700
835.373	24783
835.511	24608
835.65	24460
835.788	24494
835.926	24414
836.064	24239
836.202	24380
836.34	24566
836.478	24494
836.615	24502
836.753	24418
836.891	24517
837.029	24502
837.167	24441
837.305	24277
837.443	24292
837.58	24384
837.718	24464
837.856	24338
837.993	24262
838.131	24311
838.269	24072
838.406	24220
838.544	24060
838.681	24022
838.819	23916
838.956	23931
839.094	23710
839.231	23745
839.369	24038
839.506	24155
839.643	24091
839.781	23870
839.918	23809
840.055	23813
840.193	23737
840.33	23767
840.467	23798
840.604	23737
840.742	23916
840.879	23577
841.016	23608
841.153	23600
841.29	23855
841.427	23680
841.564	23672
841.701	23554
841.838	23623
841.975	23551
842.112	23577
842.249	23539
842.385	23554
842.522	23592
842.659	23478
842.796	23368
842.933	23448
843.069	23474
843.206	23444
843.343	23592
843.479	23543
843.616	23395
843.752	23216
843.889	23181
844.025	23425
844.162	23216
844.298	23448
844.435	23220
844.571	23208
844.708	23174
844.844	23429
844.98	23296
845.117	23288
845.253	23181
845.389	23090
845.525	23075
845.661	23147
845.798	22976
845.934	23018
846.07	23041
846.206	23037
846.342	23086
846.478	22965
846.614	22725
846.75	22687
846.886	22675
847.022	22812
847.158	22721
847.294	22740
847.429	22786
847.565	22668
847.701	23048
847.837	22443
847.972	22379
848.108	22451
848.244	22424
848.379	22436
848.515	22268
848.65	22318
848.786	22318
848.921	22413
849.057	22402
849.192	22318
849.328	22329
849.463	22276
849.598	22348
849.734	22257
849.869	22097
850.004	22173
850.14	22093
850.275	22082
850.41	21964
850.545	21945
850.68	22017
850.815	22097
850.95	22063
851.085	22265
851.22	22067
851.355	22032
851.49	22074
851.625	22029
851.76	22017
851.895	21949
852.03	21991
852.165	22082
852.299	22173
852.434	22109
852.569	22036
852.703	22101
852.838	22074
852.973	22112
853.107	22036
853.242	22109
853.376	21911
853.511	21778
853.645	21743
853.78	21972
853.914	22025
854.048	21793
854.183	21781
854.317	21899
854.451	21979
854.585	21888
854.72	21816
854.854	21945
854.988	21873
855.122	21797
855.256	21648
855.39	21778
855.524	21888
855.658	21819
855.792	21930
855.926	21842
856.06	21854
856.194	21991
856.327	21911
856.461	21892
856.595	21911
856.729	21911
856.862	21869
856.996	21895
857.13	21895
857.263	22029
857.397	21892
857.53	21751
857.664	21941
857.797	21903
857.931	21949
858.064	21823
858.197	21899
858.331	21884
858.464	21861
858.597	21671
858.731	21907
858.864	21778
858.997	21656
859.13	22006
859.263	21899
859.396	21797
859.529	21797
859.662	21781
859.795	21800
859.928	21873
860.061	22017
860.194	22070
860.327	21895
860.46	21827
860.592	22010
860.725	21945
860.858	22036
860.99	21812
861.123	21785
861.256	21698
861.388	21903
861.521	22508
861.653	21831
861.786	21561
861.918	21663
862.05	21762
862.183	21781
862.315	21842
862.447	21812
862.58	21793
862.712	21606
862.844	21694
862.976	21542
863.108	21637
863.24	21937
863.372	21599
863.504	21603
863.636	21580
863.768	21595
863.9	21667
864.032	21458
864.164	21515
864.296	21587
864.428	21622
864.559	21477
864.691	21603
864.823	21519
864.954	21595
865.086	21458
865.217	21496
865.349	21450
865.48	21389
865.612	21504
865.743	21431
865.875	21485
866.006	21458
866.137	21534
866.269	21473
866.4	21530
866.531	21435
866.662	21214
866.793	21439
866.924	21504
867.055	21363
867.186	21363
867.317	21367
867.448	21351
867.579	21378
867.71	21321
867.841	21256
867.972	21260
868.103	21256
868.233	21359
868.364	21469
868.495	21568
868.625	21618
868.756	21861
868.886	21545
869.017	21667
869.147	21728
869.278	21751
869.408	21515
869.539	21614
869.669	21717
869.799	21667
869.929	21694
870.06	21755
870.19	21941
870.32	21968
870.45	21857
870.58	21895
870.71	22169
870.84	22086
870.97	22059
871.1	22002
871.23	22219
871.36	22246
871.489	22029
871.619	22261
871.749	22078
871.879	22211
872.008	22375
872.138	22139
872.267	22185
872.397	21964
872.526	22105
872.656	22082
872.785	22010
872.915	22249
873.044	22375
873.173	22128
873.303	22291
873.432	22223
873.561	22352
873.69	22166
873.819	22303
873.948	22344
874.077	22253
874.206	22246
874.335	22291
874.464	22470
874.593	22394
874.722	22424
874.851	22493
874.979	22508
875.108	22432
875.237	22382
875.365	22405
875.494	22379
875.623	22592
875.751	22360
875.88	22626
876.008	22565
876.136	22653
876.265	22774
876.393	22972
876.521	22930
876.65	22961
876.778	22991
876.906	22793
877.034	22687
877.162	22866
877.29	22702
877.418	22866
877.546	22831
877.674	22801
877.802	22816
877.93	22873
878.058	22740
878.185	22615
878.313	22793
878.441	22771
878.568	22672
878.696	22748
878.824	22984
878.951	22824
879.079	23003
879.206	23037
879.333	23025
879.461	22862
879.588	22923
879.715	23128
879.842	23067
879.97	22889
880.097	22733
880.224	22557
880.351	22577
880.478	22592
880.605	22557
880.732	22607
880.859	22812
880.986	22599
881.112	22603
881.239	22409
881.366	22344
881.493	22265
881.619	22219
881.746	22192
881.872	22223
881.999	22169
882.125	22131
882.252	22082
882.378	22006
882.505	22291
882.631	22017
882.757	21892
882.883	21915
883.01	21876
883.136	21816
883.262	21739
883.388	21717
883.514	21918
883.64	21895
883.766	21785
883.892	21637
884.018	21610
884.143	21747
884.269	22040
884.395	21519
884.52	21549
884.646	21386
884.772	21447
884.897	21545
885.023	21553
885.148	21564
885.274	21572
885.399	21549
885.524	21530
885.65	21545
885.775	21397
885.9	21507
886.025	21603
886.15	21679
886.275	21511
886.4	21405
886.525	21382
886.65	21481
886.775	21435
886.9	21698
887.025	21743
887.149	21378
887.274	21412
887.399	21302
887.523	21291
887.648	21268
887.773	21245
887.897	21203
888.021	21348
888.146	21188
888.27	21222
888.395	21302
888.519	21230
888.643	21370
888.767	21367
888.891	21176
889.015	20891
889.139	21036
889.263	21146
889.387	21249
889.511	21264
889.635	21150
889.759	21043
889.883	20994
890.006	21188
890.13	21173
890.254	20998
890.377	20975
890.501	20868
890.624	20853
890.748	20948
890.871	20663
890.995	20613
891.118	20670
891.241	20621
891.364	20648
891.488	20594
891.611	20587
891.734	20636
891.857	20632
891.98	20571
892.103	20693
892.226	20678
892.349	20602
892.471	20450
892.594	20609
892.717	20488
892.839	20579
892.962	20503
893.085	20655
893.207	20400
893.33	20412
893.452	20434
893.575	20575
893.697	20537
893.819	20644
893.941	20632
894.064	20697
894.186	20461
894.308	20484
894.43	20693
894.552	20644
894.674	20670
894.796	20480
894.918	20507
895.04	20442
895.161	20549
895.283	20640
895.405	20518
895.526	20537
895.648	20545
895.769	20461
895.891	20537
896.012	20613
896.134	20617
896.255	20583
896.376	20594
896.498	20469
896.619	20598
896.74	20503
896.861	20560
896.982	20826
897.103	20918
897.224	20758
897.345	20765
897.466	20708
897.587	20644
897.708	20773
897.828	20693
897.949	20655
898.07	20518
898.19	20727
898.311	20857
898.431	20716
898.552	20640
898.672	20727
898.792	20845
898.913	20758
899.033	20697
899.153	20549
899.273	20275
899.393	20526
899.513	20465
899.633	20473
899.753	20457
899.873	20530
899.993	20587
900.113	20427
900.232	20427
900.352	20309
900.472	20214
900.591	20237
900.711	20275
900.83	20210
900.95	20393
901.069	20214
901.189	20122
901.308	19898
901.427	19818
901.546	19833
901.665	19795
901.784	19925
901.904	19662
902.023	19506
902.141	19331
902.26	19304
902.379	19453
902.498	19320
902.617	19225
902.735	19327
902.854	19274
902.973	19202
903.091	18954
903.21	19012
903.328	18916
903.446	18829
903.565	18753
903.683	18795
903.801	18608
903.919	18734
904.038	18593
904.156	18696
904.274	18745
904.392	18407
904.51	18544
904.627	18551
904.745	18673
904.863	18620
904.981	18334
905.098	18273
905.216	18254
905.334	18296
905.451	18243
905.569	18163
905.686	18197
905.803	18216
905.921	18121
906.038	18133
906.155	18045
906.272	17885
906.389	17977
906.506	17847
906.623	17809
906.74	17790
906.857	17573
906.974	17745
907.091	17752
907.208	17920
907.324	17726
907.441	17676
907.557	17395
907.674	17486
907.79	17395
907.907	17467
908.023	17463
908.139	17467
908.256	17311
908.372	17303
908.488	17341
908.604	17246
908.72	17220
908.836	17220
908.952	17239
909.068	17185
909.184	17269
909.3	17178
909.415	17246
909.531	17147
909.647	16847
909.762	17006
909.878	16866
909.993	16847
910.108	16801
910.224	16801
910.339	16843
910.454	16805
910.57	16698
910.685	16637
910.8	16873
910.915	16873
911.03	16649
911.145	16569
911.259	16432
911.374	16497
911.489	16497
911.604	16356
911.718	16207
911.833	16249
911.947	16074
912.062	16010
912.176	16257
912.291	16154
912.405	16150
912.519	16405
912.633	16356
912.748	16234
912.862	16131
912.976	16063
913.09	15865
913.204	15888
913.318	16044
913.431	16109
913.545	16166
913.659	15987
913.772	16025
913.886	15930
914	15846
914.113	15884
914.226	15899
914.34	15930
914.453	15778
914.566	15915
914.68	15755
914.793	15698
914.906	15549
915.019	15416
915.132	15397
915.245	15504
915.358	15530
915.47	15355
915.583	15393
915.696	15477
915.809	15610
915.921	15428
916.034	15351
916.146	15317
916.259	15359
916.371	15340
916.483	15325
916.595	15272
916.708	15146
916.82	15195
916.932	15218
917.044	15207
917.156	15207
917.268	14998
917.38	15119
917.491	15100
917.603	15081
917.715	15135
917.826	15097
917.938	14971
918.049	14914
918.161	15028
918.272	15123
918.384	15089
918.495	14994
918.606	14944
918.717	14800
918.828	14861
918.939	14880
919.05	14629
919.161	14788
919.272	14602
919.383	14670
919.494	14891
919.604	15047
919.715	14830
919.826	14617
919.936	14727
920.047	14872
920.157	14693
920.267	14975
920.378	14788
920.488	14796
920.598	14902
920.708	15074
920.818	14811
920.928	14880
921.038	15001
921.148	14952
921.258	14731
921.368	14667
921.477	14518
921.587	14526
921.697	14317
921.806	14446
921.916	14404
922.025	14187
922.134	14176
922.244	14058
922.353	14199
922.462	13959
922.571	14008
922.68	13822
922.789	13700
922.898	13696
923.007	13712
923.116	13788
923.224	13784
923.333	13742
923.442	13594
923.55	13529
923.659	13544
923.767	13594
923.876	13556
923.984	13616
924.092	13453
924.201	13586
924.309	13495
924.417	13533
924.525	13514
924.633	13445
924.741	14187
924.849	13251
924.956	13396
925.064	13164
925.172	13164
925.279	13206
925.387	13198
925.494	13228
925.602	13282
925.709	13240
925.816	13076
925.924	13129
926.031	13209
926.138	13152
926.245	13175
926.352	13038
926.459	13114
926.566	13152
926.673	13027
926.779	12996
926.886	12932
926.993	12802
927.099	12791
927.206	12730
927.312	12719
927.419	12719
927.525	12650
927.631	12734
927.737	12654
927.843	12563
927.95	12494
928.056	12555
928.162	12563
928.267	12646
928.373	13126
928.479	12658
928.585	12422
928.69	12467
928.796	12528
928.901	12414
929.007	12262
929.112	12433
929.218	12372
929.323	12353
929.428	12285
929.533	12448
929.638	12235
929.743	12270
929.848	12357
929.953	12182
930.058	12121
930.163	11977
930.267	12060
930.372	12114
930.477	11954
930.581	12076
930.685	11961
930.79	11927
930.894	11817
930.998	11775
931.103	11889
931.207	11668
931.311	11562
931.415	11395
931.519	11242
931.623	11197
