Data from test_V78500241_2925.txt Node
Date: Fri Mar 25 15:30:13 CST 2022
User: usil
Spectrometer: V785-0024
Trigger mode: 0
Integration Time (sec): 4.000000E-1
Scans to average: 1
Nonlinearity correction enabled: false
Boxcar width: 0
Storing dark spectrum: false
XAxis mode: Wavelengths
Number of Pixels in Spectrum: 1024
>>>>>Begin Spectral Data<<<<<
801.071	27264
801.214	27237
801.356	26986
801.499	26804
801.641	26785
801.783	26621
801.926	26902
802.068	26750
802.211	26811
802.353	26693
802.496	26461
802.638	26484
802.78	26537
802.923	26351
803.065	26301
803.208	26313
803.35	26488
803.492	26564
803.635	26613
803.777	26526
803.919	26571
804.061	26834
804.204	26712
804.346	26469
804.488	26499
804.63	26571
804.773	26438
804.915	26602
805.057	26731
805.199	26552
805.341	26621
805.483	26670
805.626	26724
805.768	26602
805.91	26511
806.052	26708
806.194	26556
806.336	26906
806.478	26804
806.62	26708
806.762	26838
806.904	26944
807.046	27329
807.188	27214
807.33	27119
807.472	27150
807.614	27062
807.756	27047
807.898	26819
808.04	26845
808.182	26876
808.324	26952
808.465	27081
808.607	27199
808.749	27363
808.891	27424
809.033	27401
809.174	27306
809.316	27135
809.458	27317
809.6	27207
809.741	27431
809.883	27545
810.025	27542
810.166	27564
810.308	27515
810.45	27622
810.591	27431
810.733	27355
810.875	27272
811.016	27233
811.158	27298
811.299	27332
811.441	27549
811.582	27344
811.724	27359
811.865	27135
812.007	27211
812.148	27412
812.29	27348
812.431	27310
812.573	27667
812.714	27633
812.855	27785
812.997	27865
813.138	28109
813.279	27899
813.421	27869
813.562	27701
813.703	27466
813.845	27401
813.986	27135
814.127	27192
814.268	27116
814.41	26956
814.551	27051
814.692	27039
814.833	26948
814.974	26902
815.115	27001
815.256	26754
815.397	26815
815.539	26887
815.68	26674
815.821	26712
815.962	26659
816.103	26644
816.244	26636
816.385	26480
816.526	26427
816.666	26355
816.807	26168
816.948	26309
817.089	26286
817.23	26218
817.371	26183
817.512	26206
817.653	26119
817.793	26206
817.934	26248
818.075	26286
818.216	26157
818.356	26183
818.497	26145
818.638	26046
818.778	25936
818.919	25959
819.06	26054
819.2	26103
819.341	26263
819.481	26225
819.622	26412
819.762	26526
819.903	26408
820.043	26541
820.184	26377
820.324	26282
820.465	26358
820.605	26347
820.746	26149
820.886	26100
821.026	26259
821.167	26248
821.307	26294
821.447	26126
821.588	26111
821.728	25917
821.868	25868
822.008	25556
822.149	25761
822.289	25677
822.429	25377
822.569	25362
822.709	25354
822.849	25278
822.99	25183
823.13	25137
823.27	25126
823.41	24977
823.55	24962
823.69	24905
823.83	25069
823.97	24916
824.11	24920
824.25	24692
824.389	24833
824.529	24802
824.669	24829
824.809	24787
824.949	24909
825.089	24821
825.228	24726
825.368	24696
825.508	24654
825.648	24665
825.787	24677
825.927	24772
826.067	24620
826.206	24791
826.346	24730
826.485	24673
826.625	24719
826.765	24760
826.904	24757
827.044	24399
827.183	24426
827.323	24258
827.462	24388
827.601	24486
827.741	24388
827.88	24395
828.02	24251
828.159	24270
828.298	24243
828.437	24414
828.577	24273
828.716	24418
828.855	24346
828.994	24136
829.134	24045
829.273	24163
829.412	23999
829.551	23923
829.69	24091
829.829	24152
829.968	24098
830.107	24159
830.246	24064
830.385	24038
830.524	24072
830.663	23901
830.802	23851
830.941	23642
831.08	23608
831.219	23718
831.357	23767
831.496	23942
831.635	23691
831.774	23653
831.913	23471
832.051	23539
832.19	23444
832.329	23467
832.467	23349
832.606	23307
832.744	23376
832.883	23246
833.022	23360
833.16	23474
833.299	23372
833.437	23337
833.576	23406
833.714	23497
833.852	23482
833.991	23516
834.129	23493
834.267	23509
834.406	23330
834.544	23406
834.682	23452
834.821	23410
834.959	23589
835.097	23200
835.235	23440
835.373	23364
835.511	23334
835.65	23132
835.788	23334
835.926	23258
836.064	23060
836.202	23098
836.34	23216
836.478	23242
836.615	23189
836.753	23223
836.891	23269
837.029	23151
837.167	23284
837.305	23189
837.443	23170
837.58	23014
837.718	23208
837.856	23094
837.993	23003
838.131	23086
838.269	22919
838.406	23006
838.544	22843
838.681	22710
838.819	22752
838.956	22557
839.094	22554
839.231	22577
839.369	22645
839.506	22987
839.643	22915
839.781	22485
839.918	22580
840.055	22580
840.193	22538
840.33	22474
840.467	22500
840.604	22436
840.742	22782
840.879	22421
841.016	22440
841.153	22405
841.29	22622
841.427	22459
841.564	22592
841.701	22516
841.838	22413
841.975	22432
842.112	22455
842.249	22276
842.385	22341
842.522	22523
842.659	22325
842.796	22234
842.933	22261
843.069	22207
843.206	22177
843.343	22280
843.479	22265
843.616	22341
843.752	21972
843.889	22070
844.025	22177
844.162	22051
844.298	22112
844.435	22040
844.571	21998
844.708	22109
844.844	22215
844.98	22196
845.117	22044
845.253	21964
845.389	21918
845.525	21918
845.661	21884
845.798	21778
845.934	21789
846.07	21644
846.206	21648
846.342	21778
846.478	21717
846.614	21534
846.75	21447
846.886	21564
847.022	21553
847.158	21454
847.294	21526
847.429	21561
847.565	21500
847.701	21774
847.837	21230
847.972	21211
848.108	21313
848.244	21184
848.379	21093
848.515	21119
848.65	21062
848.786	21047
848.921	21123
849.057	21184
849.192	21089
849.328	21222
849.463	21058
849.598	21020
849.734	20979
849.869	20918
850.004	20849
850.14	20868
850.275	20765
850.41	20830
850.545	20876
850.68	20823
850.815	20952
850.95	20811
851.085	20921
851.22	21096
851.355	20800
851.49	20804
851.625	20849
851.76	20906
851.895	20640
852.03	20777
852.165	20937
852.299	20872
852.434	20891
852.569	20914
852.703	20686
852.838	20777
852.973	20948
853.107	20925
853.242	20804
853.376	20701
853.511	20587
853.645	20606
853.78	20864
853.914	20693
854.048	20651
854.183	20651
854.317	20731
854.451	20929
854.585	20663
854.72	20731
854.854	20739
854.988	20720
855.122	20758
855.256	20541
855.39	20701
855.524	20823
855.658	20754
855.792	20632
855.926	20758
856.06	20731
856.194	20773
856.327	20686
856.461	20530
856.595	20659
856.729	20617
856.862	20849
856.996	20720
857.13	20724
857.263	20785
857.397	20667
857.53	20636
857.664	20644
857.797	20670
857.931	20727
858.064	20716
858.197	20773
858.331	20568
858.464	20621
858.597	20613
858.731	20613
858.864	20636
858.997	20609
859.13	20735
859.263	20659
859.396	20693
859.529	20716
859.662	20606
859.795	20590
859.928	20724
860.061	20781
860.194	20853
860.327	20689
860.46	20746
860.592	20788
860.725	20925
860.858	20849
860.99	20613
861.123	20693
861.256	20659
861.388	20556
861.521	21310
861.653	20617
861.786	20446
861.918	20488
862.05	20609
862.183	20697
862.315	20636
862.447	20724
862.58	20632
862.712	20427
862.844	20370
862.976	20374
863.108	20518
863.24	20876
863.372	20396
863.504	20442
863.636	20431
863.768	20469
863.9	20385
864.032	20389
864.164	20381
864.296	20381
864.428	20423
864.559	20522
864.691	20556
864.823	20381
864.954	20393
865.086	20339
865.217	20389
865.349	20240
865.48	20301
865.612	20229
865.743	20492
865.875	20434
866.006	20240
866.137	20294
866.269	20214
866.4	20282
866.531	20168
866.662	20157
866.793	20282
866.924	20161
867.055	20290
867.186	20294
867.317	20183
867.448	20240
867.579	20225
867.71	20050
867.841	20252
867.972	20282
868.103	20278
868.233	20271
868.364	20259
868.495	20389
868.625	20381
868.756	20636
868.886	20499
869.017	20465
869.147	20393
869.278	20511
869.408	20609
869.539	20495
869.669	20587
869.799	20465
869.929	20640
870.06	20693
870.19	20838
870.32	20785
870.45	20880
870.58	20861
870.71	21017
870.84	21001
870.97	20933
871.1	20849
871.23	20971
871.36	21043
871.489	21093
871.619	21058
871.749	21032
871.879	21157
872.008	21344
872.138	21020
872.267	21036
872.397	20914
872.526	20952
872.656	20899
872.785	20792
872.915	21093
873.044	21066
873.173	20975
873.303	21028
873.432	21116
873.561	21218
873.69	21093
873.819	21127
873.948	21051
874.077	21096
874.206	21066
874.335	21096
874.464	21192
874.593	21348
874.722	21207
874.851	21336
874.979	21283
875.108	21408
875.237	21416
875.365	21279
875.494	21382
875.623	21504
875.751	21230
875.88	21363
876.008	21629
876.136	21519
876.265	21709
876.393	21819
876.521	21857
876.65	21797
876.778	21800
876.906	21690
877.034	21663
877.162	21736
877.29	21606
877.418	21717
877.546	21622
877.674	21778
877.802	21720
877.93	21705
878.058	21656
878.185	21538
878.313	21671
878.441	21686
878.568	21511
878.696	21629
878.824	21656
878.951	21701
879.079	21880
879.206	21865
879.333	21899
879.461	21660
879.588	21682
879.715	21865
879.842	22086
879.97	21671
880.097	21561
880.224	21454
880.351	21625
880.478	21397
880.605	21496
880.732	21534
880.859	21785
880.986	21557
881.112	21568
881.239	21336
881.366	21199
881.493	21211
881.619	21085
881.746	21146
881.872	21100
881.999	21085
882.125	20990
882.252	21218
882.378	21066
882.505	21188
882.631	21058
882.757	20727
882.883	20800
883.01	20891
883.136	20804
883.262	20609
883.388	20598
883.514	20777
883.64	20796
883.766	20678
883.892	20697
884.018	20670
884.143	20750
884.269	20762
884.395	20423
884.52	20457
884.646	20587
884.772	20366
884.897	20358
885.023	20568
885.148	20587
885.274	20583
885.399	20526
885.524	20351
885.65	20518
885.775	20408
885.9	20465
886.025	20590
886.15	20438
886.275	20499
886.4	20351
886.525	20324
886.65	20415
886.775	20328
886.9	20594
887.025	20579
887.149	20423
887.274	20229
887.399	20267
887.523	20073
887.648	20202
887.773	20126
887.897	20225
888.021	20237
888.146	20088
888.27	20381
888.395	20275
888.519	20313
888.643	20240
888.767	20339
888.891	20142
889.015	19928
889.139	19940
889.263	20046
889.387	19951
889.511	20244
889.635	20145
889.759	20092
889.883	20012
890.006	19967
890.13	20046
890.254	19932
890.377	20012
890.501	19769
890.624	19837
890.748	19826
890.871	19715
890.995	19605
891.118	19559
891.241	19704
891.364	19605
891.488	19769
891.611	19601
891.734	19624
891.857	19582
891.98	19658
892.103	19674
892.226	19605
892.349	19533
892.471	19377
892.594	19567
892.717	19601
892.839	19506
892.962	19540
893.085	19635
893.207	19468
893.33	19350
893.452	19468
893.575	19548
893.697	19468
893.819	19696
893.941	19742
894.064	19723
894.186	19426
894.308	19422
894.43	19597
894.552	19719
894.674	19776
894.796	19320
894.918	19419
895.04	19472
895.161	19567
895.283	19613
895.405	19460
895.526	19518
895.648	19441
895.769	19578
895.891	19529
896.012	19533
896.134	19616
896.255	19476
896.376	19506
896.498	19521
896.619	19506
896.74	19575
896.861	19552
896.982	19932
897.103	20008
897.224	19852
897.345	19780
897.466	19624
897.587	19738
897.708	19902
897.828	19780
897.949	19674
898.07	19689
898.19	19681
898.311	19879
898.431	19780
898.552	19655
898.672	19913
898.792	19868
898.913	19814
899.033	19731
899.153	19609
899.273	19426
899.393	19449
899.513	19594
899.633	19521
899.753	19544
899.873	19502
899.993	19533
900.113	19476
900.232	19506
900.352	19495
900.472	19350
900.591	19388
900.711	19278
900.83	19187
900.95	19354
901.069	19411
901.189	19187
901.308	19091
901.427	18875
901.546	18821
901.665	18973
901.784	18840
901.904	18779
902.023	18658
902.141	18521
902.26	18494
902.379	18441
902.498	18369
902.617	18410
902.735	18486
902.854	18338
902.973	18342
903.091	18125
903.21	18098
903.328	18091
903.446	17992
903.565	17912
903.683	17935
903.801	17851
903.919	17931
904.038	17821
904.156	17695
904.274	17756
904.392	17699
904.51	17646
904.627	17657
904.745	17745
904.863	17710
904.981	17425
905.098	17326
905.216	17395
905.334	17341
905.451	17376
905.569	17242
905.686	17493
905.803	17337
905.921	17235
906.038	17273
906.155	17212
906.272	17003
906.389	17067
906.506	16892
906.623	16843
906.74	16824
906.857	16752
906.974	16816
907.091	16850
907.208	16957
907.324	16900
907.441	16786
907.557	16630
907.674	16577
907.79	16478
907.907	16615
908.023	16565
908.139	16645
908.256	16519
908.372	16519
908.488	16550
908.604	16402
908.72	16394
908.836	16314
908.952	16257
909.068	16325
909.184	16398
909.3	16462
909.415	16360
909.531	16367
909.647	16128
909.762	16055
909.878	16017
909.993	16086
910.108	15937
910.224	16059
910.339	16010
910.454	15926
910.57	15964
910.685	15785
910.8	16158
910.915	15983
911.03	15888
911.145	15679
911.259	15614
911.374	15739
911.489	15660
911.604	15595
911.718	15428
911.833	15439
911.947	15252
912.062	15302
912.176	15454
912.291	15485
912.405	15443
912.519	15614
912.633	15660
912.748	15351
912.862	15424
912.976	15279
913.09	15173
913.204	15169
913.318	15173
913.431	15283
913.545	15203
913.659	15408
913.772	15173
913.886	14986
914	15119
914.113	15032
914.226	15020
914.34	15005
914.453	14929
914.566	15085
914.68	14902
914.793	14876
914.906	14788
915.019	14590
915.132	14629
915.245	14655
915.358	14655
915.47	14674
915.583	14735
915.696	14651
915.809	14773
915.921	14754
916.034	14571
916.146	14537
916.259	14587
916.371	14613
916.483	14697
916.595	14473
916.708	14564
916.82	14488
916.932	14454
917.044	14488
917.156	14374
917.268	14351
917.38	14355
917.491	14259
917.603	14351
917.715	14423
917.826	14374
917.938	14256
918.049	14214
918.161	14244
918.272	14442
918.384	14408
918.495	14221
918.606	14161
918.717	14024
918.828	14130
918.939	14229
919.05	13951
919.161	14020
919.272	13875
919.383	13932
919.494	14092
919.604	14298
919.715	14050
919.826	13932
919.936	14024
920.047	14123
920.157	14043
920.267	14229
920.378	14073
920.488	14035
920.598	14180
920.708	14271
920.818	14115
920.928	14176
921.038	14320
921.148	14332
921.258	14081
921.368	13917
921.477	13826
921.587	13826
921.697	13647
921.806	13879
921.916	13605
922.025	13476
922.134	13472
922.244	13381
922.353	13453
922.462	13403
922.571	13221
922.68	13099
922.789	13118
922.898	13061
923.007	13133
923.116	13091
923.224	13133
923.333	13099
923.442	12962
923.55	12878
923.659	12943
923.767	13008
923.876	12802
923.984	13069
924.092	12924
924.201	12913
924.309	12886
924.417	12829
924.525	12703
924.633	12768
924.741	13750
924.849	12578
924.956	12692
925.064	12521
925.172	12502
925.279	12623
925.387	12559
925.494	12544
925.602	12589
925.709	12563
925.816	12395
925.924	12460
926.031	12574
926.138	12483
926.245	12517
926.352	12410
926.459	12456
926.566	12448
926.673	12452
926.779	12319
926.886	12304
926.993	12171
927.099	12125
927.206	12041
927.312	12045
927.419	12129
927.525	12091
927.631	12148
927.737	11996
927.843	11992
927.95	11969
928.056	11931
928.162	11984
928.267	11961
928.373	12646
928.479	12064
928.585	11828
928.69	11942
928.796	12049
928.901	11832
929.007	11748
929.112	11824
929.218	11790
929.323	11741
929.428	11710
929.533	11809
929.638	11566
929.743	11623
929.848	11726
929.953	11661
930.058	11532
930.163	11391
930.267	11356
930.372	11570
930.477	11379
930.581	11600
930.685	11379
930.79	11303
930.894	11364
930.998	11250
931.103	11448
931.207	11006
931.311	10900
931.415	10881
931.519	10683
931.623	10664
