Data from test_V78500241_709.txt Node
Date: Fri Mar 25 15:14:47 CST 2022
User: usil
Spectrometer: V785-0024
Trigger mode: 0
Integration Time (sec): 4.000000E-1
Scans to average: 1
Nonlinearity correction enabled: false
Boxcar width: 0
Storing dark spectrum: false
XAxis mode: Wavelengths
Number of Pixels in Spectrum: 1024
>>>>>Begin Spectral Data<<<<<
801.071	27926
801.214	27926
801.356	27804
801.499	27667
801.641	27561
801.783	27610
801.926	27622
802.068	27523
802.211	27378
802.353	27340
802.496	27203
802.638	27203
802.78	27218
802.923	27336
803.065	27199
803.208	27108
803.35	27188
803.492	27298
803.635	27275
803.777	27192
803.919	27370
804.061	27705
804.204	27336
804.346	27230
804.488	27260
804.63	27332
804.773	27252
804.915	27363
805.057	27443
805.199	27397
805.341	27549
805.483	27435
805.626	27416
805.768	27294
805.91	27500
806.052	27557
806.194	27427
806.336	27599
806.478	27557
806.62	27606
806.762	27690
806.904	27694
807.046	27926
807.188	27884
807.33	27869
807.472	27827
807.614	27785
807.756	27869
807.898	27816
808.04	27713
808.182	27660
808.324	27789
808.465	27667
808.607	27911
808.749	28147
808.891	28188
809.033	28333
809.174	28185
809.316	28124
809.458	28257
809.6	28272
809.741	28371
809.883	28318
810.025	28485
810.166	28398
810.308	28497
810.45	28360
810.591	28375
810.733	28162
810.875	28181
811.016	28051
811.158	27941
811.299	28109
811.441	28303
811.582	28295
811.724	28135
811.865	27964
812.007	28059
812.148	28211
812.29	28238
812.431	28219
812.573	28481
812.714	28565
812.855	28645
812.997	28683
813.138	28938
813.279	28843
813.421	28546
813.562	28797
813.703	28531
813.845	28523
813.986	28013
814.127	27968
814.268	27903
814.41	27972
814.551	27831
814.692	27926
814.833	27675
814.974	27854
815.115	27766
815.256	27648
815.397	27713
815.539	27857
815.68	27595
815.821	27618
815.962	27625
816.103	27633
816.244	27473
816.385	27496
816.526	27355
816.666	27310
816.807	27180
816.948	27233
817.089	27306
817.23	27222
817.371	27173
817.512	27241
817.653	27237
817.793	27123
817.934	27214
818.075	27154
818.216	27268
818.356	27081
818.497	27039
818.638	26975
818.778	26960
818.919	26944
819.06	26994
819.2	27024
819.341	27241
819.481	27089
819.622	27283
819.762	27450
819.903	27412
820.043	27454
820.184	27268
820.324	27226
820.465	27321
820.605	27325
820.746	27260
820.886	27096
821.026	27272
821.167	27222
821.307	27313
821.447	27108
821.588	27058
821.728	27020
821.868	26769
822.008	26590
822.149	26659
822.289	26613
822.429	26336
822.569	26309
822.709	26381
822.849	26122
822.99	26138
823.13	26054
823.27	26145
823.41	25947
823.55	25807
823.69	26050
823.83	26031
823.97	25966
824.11	25772
824.25	25776
824.389	25753
824.529	25791
824.669	25681
824.809	26012
824.949	25833
825.089	25784
825.228	25898
825.368	25666
825.508	25674
825.648	25712
825.787	25765
825.927	25765
826.067	25677
826.206	25624
826.346	25628
826.485	25677
826.625	25681
826.765	25693
826.904	25651
827.044	25449
827.183	25400
827.323	25422
827.462	25396
827.601	25400
827.741	25403
827.88	25415
828.02	25270
828.159	25301
828.298	25377
828.437	25411
828.577	25308
828.716	25548
828.855	25232
828.994	25091
829.134	25118
829.273	25175
829.412	25202
829.551	25012
829.69	25088
829.829	25110
829.968	25072
830.107	25202
830.246	25221
830.385	25069
830.524	24977
830.663	24924
830.802	24783
830.941	24776
831.08	24623
831.219	24719
831.357	24574
831.496	24962
831.635	24688
831.774	24570
831.913	24673
832.051	24380
832.19	24422
832.329	24334
832.467	24388
832.606	24384
832.744	24190
832.883	24247
833.022	24308
833.16	24266
833.299	24441
833.437	24369
833.576	24323
833.714	24452
833.852	24532
833.991	24540
834.129	24448
834.267	24570
834.406	24391
834.544	24437
834.682	24235
834.821	24410
834.959	24563
835.097	24334
835.235	24505
835.373	24296
835.511	24372
835.65	24357
835.788	24167
835.926	24117
836.064	24209
836.202	23988
836.34	24323
836.478	24292
836.615	24213
836.753	24330
836.891	24251
837.029	24361
837.167	24277
837.305	24239
837.443	24003
837.58	23939
837.718	24155
837.856	23980
837.993	23942
838.131	24057
838.269	24076
838.406	23969
838.544	23847
838.681	23752
838.819	23722
838.956	23490
839.094	23615
839.231	23665
839.369	23764
839.506	24022
839.643	23760
839.781	23505
839.918	23596
840.055	23596
840.193	23646
840.33	23505
840.467	23566
840.604	23490
840.742	23699
840.879	23277
841.016	23372
841.153	23436
841.29	23554
841.427	23535
841.564	23551
841.701	23349
841.838	23368
841.975	23345
842.112	23170
842.249	23288
842.385	23292
842.522	23379
842.659	23216
842.796	23212
842.933	23212
843.069	23193
843.206	23048
843.343	23242
843.479	23170
843.616	23132
843.752	22934
843.889	23102
844.025	23273
844.162	22987
844.298	23064
844.435	22968
844.571	22987
844.708	23071
844.844	23239
844.98	23159
845.117	23136
845.253	22984
845.389	22824
845.525	22934
845.661	22774
845.798	22664
845.934	22740
846.07	22694
846.206	22717
846.342	22831
846.478	22550
846.614	22569
846.75	22466
846.886	22542
847.022	22546
847.158	22531
847.294	22596
847.429	22519
847.565	22440
847.701	22672
847.837	22177
847.972	22154
848.108	22230
848.244	22173
848.379	22090
848.515	22109
848.65	21945
848.786	21972
848.921	22124
849.057	22124
849.192	22158
849.328	22139
849.463	22021
849.598	22032
849.734	21926
849.869	21945
850.004	21865
850.14	21713
850.275	21804
850.41	21732
850.545	21812
850.68	21778
850.815	21739
850.95	21785
851.085	21930
851.22	21998
851.355	21937
851.49	21903
851.625	21759
851.76	21709
851.895	21652
852.03	21736
852.165	21743
852.299	21850
852.434	21884
852.569	21869
852.703	21770
852.838	21720
852.973	21762
853.107	22090
853.242	21717
853.376	21720
853.511	21644
853.645	21568
853.78	21739
853.914	21511
854.048	21690
854.183	21511
854.317	21622
854.451	21934
854.585	21549
854.72	21583
854.854	21587
854.988	21538
855.122	21469
855.256	21542
855.39	21477
855.524	21663
855.658	21667
855.792	21660
855.926	21629
856.06	21698
856.194	21682
856.327	21587
856.461	21603
856.595	21572
856.729	21667
856.862	21736
856.996	21618
857.13	21648
857.263	21804
857.397	21648
857.53	21747
857.664	21720
857.797	21675
857.931	21705
858.064	21686
858.197	21724
858.331	21622
858.464	21557
858.597	21542
858.731	21545
858.864	21564
858.997	21629
859.13	21732
859.263	21690
859.396	21747
859.529	21534
859.662	21610
859.795	21728
859.928	21564
860.061	21880
860.194	21850
860.327	21622
860.46	21667
860.592	21770
860.725	21812
860.858	21728
860.99	21610
861.123	21564
861.256	21568
861.388	21701
861.521	22466
861.653	21519
861.786	21549
861.918	21507
862.05	21466
862.183	21519
862.315	21439
862.447	21641
862.58	21530
862.712	21378
862.844	21408
862.976	21473
863.108	21393
863.24	21751
863.372	21393
863.504	21211
863.636	21260
863.768	21389
863.9	21382
864.032	21272
864.164	21370
864.296	21412
864.428	21397
864.559	21447
864.691	21405
864.823	21321
864.954	21260
865.086	21329
865.217	21306
865.349	21203
865.48	21306
865.612	21233
865.743	21332
865.875	21252
866.006	21119
866.137	21336
866.269	21188
866.4	21214
866.531	21230
866.662	21123
866.793	21085
866.924	21070
867.055	21150
867.186	21226
867.317	21146
867.448	21093
867.579	21154
867.71	21051
867.841	21039
867.972	21211
868.103	21066
868.233	21154
868.364	21188
868.495	21199
868.625	21332
868.756	21526
868.886	21317
869.017	21447
869.147	21344
869.278	21462
869.408	21382
869.539	21500
869.669	21458
869.799	21500
869.929	21412
870.06	21466
870.19	21732
870.32	21629
870.45	21728
870.58	21739
870.71	21888
870.84	21873
870.97	21736
871.1	21755
871.23	22040
871.36	21987
871.489	21975
871.619	21960
871.749	21869
871.879	22044
872.008	22032
872.138	21865
872.267	22006
872.397	21846
872.526	21873
872.656	21941
872.785	21827
872.915	21945
873.044	22063
873.173	21983
873.303	22192
873.432	21945
873.561	22109
873.69	22048
873.819	21918
873.948	22078
874.077	21941
874.206	21865
874.335	21915
874.464	22086
874.593	22230
874.722	22192
874.851	22154
874.979	22177
875.108	22207
875.237	22249
875.365	22177
875.494	22284
875.623	22249
875.751	22162
875.88	22196
876.008	22291
876.136	22459
876.265	22561
876.393	22706
876.521	22702
876.65	22687
876.778	22542
876.906	22542
877.034	22504
877.162	22421
877.29	22424
877.418	22516
877.546	22424
877.674	22588
877.802	22466
877.93	22432
878.058	22470
878.185	22455
878.313	22481
878.441	22523
878.568	22394
878.696	22531
878.824	22500
878.951	22675
879.079	22824
879.206	22793
879.333	22706
879.461	22512
879.588	22683
879.715	22702
879.842	22812
879.97	22592
880.097	22432
880.224	22322
880.351	22421
880.478	22455
880.605	22371
880.732	22421
880.859	22573
880.986	22394
881.112	22348
881.239	22188
881.366	22139
881.493	22063
881.619	21922
881.746	22017
881.872	21945
881.999	22040
882.125	21895
882.252	21941
882.378	21968
882.505	21956
882.631	21759
882.757	21526
882.883	21652
883.01	21785
883.136	21682
883.262	21507
883.388	21542
883.514	21694
883.64	21625
883.766	21614
883.892	21355
884.018	21412
884.143	21614
884.269	21576
884.395	21359
884.52	21260
884.646	21279
884.772	21195
884.897	21123
885.023	21237
885.148	21340
885.274	21401
885.399	21466
885.524	21272
885.65	21313
885.775	21249
885.9	21241
886.025	21416
886.15	21294
886.275	21260
886.4	21154
886.525	21249
886.65	21294
886.775	21222
886.9	21443
887.025	21397
887.149	21192
887.274	21112
887.399	21028
887.523	21093
887.648	20948
887.773	20902
887.897	21066
888.021	21131
888.146	21077
888.27	21116
888.395	21074
888.519	21028
888.643	21066
888.767	21112
888.891	20967
889.015	20769
889.139	20899
889.263	20773
889.387	20910
889.511	21070
889.635	20998
889.759	20773
889.883	20788
890.006	20895
890.13	20982
890.254	20712
890.377	20769
890.501	20636
890.624	20530
890.748	20663
890.871	20480
890.995	20347
891.118	20339
891.241	20480
891.364	20473
891.488	20431
891.611	20366
891.734	20423
891.857	20495
891.98	20366
892.103	20415
892.226	20438
892.349	20454
892.471	20180
892.594	20362
892.717	20218
892.839	20252
892.962	20355
893.085	20488
893.207	20362
893.33	20214
893.452	20199
893.575	20332
893.697	20358
893.819	20408
893.941	20575
894.064	20434
894.186	20263
894.308	20191
894.43	20298
894.552	20454
894.674	20355
894.796	20195
894.918	20244
895.04	20206
895.161	20324
895.283	20339
895.405	20218
895.526	20229
895.648	20332
895.769	20309
895.891	20393
896.012	20343
896.134	20415
896.255	20305
896.376	20252
896.498	20313
896.619	20415
896.74	20180
896.861	20362
896.982	20640
897.103	20712
897.224	20621
897.345	20465
897.466	20454
897.587	20423
897.708	20609
897.828	20568
897.949	20537
898.07	20301
898.19	20328
898.311	20606
898.431	20480
898.552	20434
898.672	20613
898.792	20648
898.913	20495
899.033	20545
899.153	20294
899.273	20168
899.393	20244
899.513	20248
899.633	20366
899.753	20301
899.873	20161
899.993	20347
900.113	20244
900.232	20248
900.352	20237
900.472	20107
900.591	20050
900.711	20043
900.83	19970
900.95	20115
901.069	20126
901.189	19902
901.308	19696
901.427	19666
901.546	19723
901.665	19552
901.784	19476
901.904	19571
902.023	19362
902.141	19289
902.26	19095
902.379	19354
902.498	19141
902.617	19088
902.735	19164
902.854	19088
902.973	19008
903.091	18901
903.21	18840
903.328	18738
903.446	18707
903.565	18517
903.683	18585
903.801	18525
903.919	18456
904.038	18498
904.156	18384
904.274	18445
904.392	18323
904.51	18376
904.627	18338
904.745	18388
904.863	18437
904.981	18064
905.098	17973
905.216	18003
905.334	18129
905.451	18019
905.569	17954
905.686	18045
905.803	18125
905.921	17817
906.038	17863
906.155	17828
906.272	17752
906.389	17676
906.506	17684
906.623	17634
906.74	17535
906.857	17501
906.974	17512
907.091	17687
907.208	17630
907.324	17592
907.441	17402
907.557	17265
907.674	17288
907.79	17337
907.907	17280
908.023	17261
908.139	17341
908.256	17254
908.372	17204
908.488	17193
908.604	17010
908.72	17075
908.836	17022
908.952	16953
909.068	17010
909.184	17181
909.3	17060
909.415	17052
909.531	17037
909.647	16713
909.762	16702
909.878	16634
909.993	16736
910.108	16759
910.224	16736
910.339	16634
910.454	16584
910.57	16561
910.685	16470
910.8	16664
910.915	16599
911.03	16466
911.145	16390
911.259	16325
911.374	16352
911.489	16318
911.604	16257
911.718	16116
911.833	16021
911.947	15972
912.062	15915
912.176	16032
912.291	16044
912.405	16029
912.519	16185
912.633	16158
912.748	16021
912.862	16032
912.976	15876
913.09	15713
913.204	15827
913.318	15800
913.431	15991
913.545	15899
913.659	15964
913.772	15835
913.886	15625
914	15599
914.113	15808
914.226	15865
914.34	15694
914.453	15576
914.566	15682
914.68	15526
914.793	15504
914.906	15272
915.019	15256
915.132	15226
915.245	15264
915.358	15306
915.47	15226
915.583	15214
915.696	15336
915.809	15348
915.921	15447
916.034	15161
916.146	15230
916.259	15188
916.371	15245
916.483	15150
916.595	15135
916.708	15097
916.82	15032
916.932	15047
917.044	14998
917.156	15017
917.268	14834
917.38	14975
917.491	14876
917.603	14899
917.715	15020
917.826	14941
917.938	14887
918.049	14773
918.161	14842
918.272	14937
918.384	15009
918.495	14876
918.606	14693
918.717	14705
918.828	14659
918.939	14594
919.05	14511
919.161	14625
919.272	14438
919.383	14484
919.494	14640
919.604	14868
919.715	14583
919.826	14617
919.936	14640
920.047	14727
920.157	14648
920.267	14773
920.378	14571
920.488	14560
920.598	14845
920.708	14929
920.818	14689
920.928	14845
921.038	14769
921.148	14868
921.258	14583
921.368	14533
921.477	14393
921.587	14324
921.697	14103
921.806	14324
921.916	14187
922.025	13993
922.134	14024
922.244	13936
922.353	14081
922.462	13791
922.571	13791
922.68	13586
922.789	13704
922.898	13651
923.007	13571
923.116	13681
923.224	13597
923.333	13662
923.442	13506
923.55	13521
923.659	13518
923.767	13639
923.876	13487
923.984	13476
924.092	13381
924.201	13438
924.309	13411
924.417	13343
924.525	13301
924.633	13400
924.741	14054
924.849	13061
924.956	13289
925.064	13042
925.172	13000
925.279	13027
925.387	13095
925.494	13069
925.602	13156
925.709	13088
925.816	12951
925.924	13015
926.031	13137
926.138	13004
926.245	13012
926.352	12871
926.459	13027
926.566	13080
926.673	12913
926.779	12867
926.886	12825
926.993	12711
927.099	12681
927.206	12502
927.312	12551
927.419	12738
927.525	12570
927.631	12642
927.737	12490
927.843	12460
927.95	12418
928.056	12369
928.162	12418
928.267	12536
928.373	13046
928.479	12521
928.585	12384
928.69	12372
928.796	12418
928.901	12254
929.007	12133
929.112	12304
929.218	12175
929.323	12175
929.428	12110
929.533	12224
929.638	12121
929.743	12148
929.848	12167
929.953	12087
930.058	11908
930.163	11851
930.267	11897
930.372	11935
930.477	11790
930.581	11946
930.685	11828
930.79	11707
930.894	11821
930.998	11672
931.103	11813
931.207	11570
931.311	11360
931.415	11303
931.519	11151
931.623	11090
