Data from test_V78500241_1183.txt Node
Date: Fri Mar 25 15:18:05 CST 2022
User: usil
Spectrometer: V785-0024
Trigger mode: 0
Integration Time (sec): 4.000000E-1
Scans to average: 1
Nonlinearity correction enabled: false
Boxcar width: 0
Storing dark spectrum: false
XAxis mode: Wavelengths
Number of Pixels in Spectrum: 1024
>>>>>Begin Spectral Data<<<<<
801.071	27576
801.214	27511
801.356	27412
801.499	27222
801.641	27085
801.783	27089
801.926	27306
802.068	27116
802.211	27013
802.353	26918
802.496	26891
802.638	26925
802.78	26872
802.923	26560
803.065	26579
803.208	26743
803.35	26735
803.492	26899
803.635	26876
803.777	26807
803.919	26918
804.061	27298
804.204	27039
804.346	26880
804.488	26758
804.63	26834
804.773	26815
804.915	26940
805.057	27085
805.199	27005
805.341	27138
805.483	27169
805.626	27157
805.768	26956
805.91	27005
806.052	27070
806.194	27024
806.336	27245
806.478	27028
806.62	26948
806.762	27176
806.904	27325
807.046	27599
807.188	27576
807.33	27583
807.472	27454
807.614	27443
807.756	27427
807.898	27435
808.04	27386
808.182	27260
808.324	27294
808.465	27340
808.607	27477
808.749	27648
808.891	27774
809.033	27880
809.174	27728
809.316	27671
809.458	27713
809.6	27724
809.741	27793
809.883	27797
810.025	28006
810.166	28013
810.308	27911
810.45	28082
810.591	27907
810.733	27857
810.875	27660
811.016	27580
811.158	27542
811.299	27808
811.441	27873
811.582	27861
811.724	27568
811.865	27701
812.007	27572
812.148	27637
812.29	27781
812.431	27926
812.573	27998
812.714	27941
812.855	28276
812.997	28333
813.138	28470
813.279	28322
813.421	28226
813.562	28158
813.703	28021
813.845	27945
813.986	27675
814.127	27500
814.268	27386
814.41	27386
814.551	27389
814.692	27325
814.833	27378
814.974	27363
815.115	27439
815.256	27116
815.397	27161
815.539	27252
815.68	27066
815.821	27108
815.962	27070
816.103	27165
816.244	27009
816.385	26868
816.526	26925
816.666	26773
816.807	26674
816.948	26716
817.089	26845
817.23	26750
817.371	26617
817.512	26705
817.653	26511
817.793	26705
817.934	26602
818.075	26724
818.216	26800
818.356	26629
818.497	26450
818.638	26381
818.778	26400
818.919	26366
819.06	26495
819.2	26514
819.341	26716
819.481	26705
819.622	26708
819.762	26910
819.903	26929
820.043	26792
820.184	26765
820.324	26807
820.465	26906
820.605	26720
820.746	26716
820.886	26648
821.026	26804
821.167	26823
821.307	26644
821.447	26602
821.588	26571
821.728	26446
821.868	26157
822.008	26161
822.149	26202
822.289	26069
822.429	25826
822.569	25788
822.709	25970
822.849	25704
822.99	25693
823.13	25514
823.27	25552
823.41	25464
823.55	25236
823.69	25552
823.83	25411
823.97	25278
824.11	25240
824.25	25316
824.389	25270
824.529	25278
824.669	25148
824.809	25434
824.949	25388
825.089	25563
825.228	25187
825.368	25076
825.508	25057
825.648	25270
825.787	25110
825.927	25187
826.067	25141
826.206	25126
826.346	25183
826.485	25221
826.625	25183
826.765	25320
826.904	25148
827.044	24920
827.183	24939
827.323	24844
827.462	24833
827.601	24920
827.741	24798
827.88	24913
828.02	24745
828.159	24791
828.298	24878
828.437	24867
828.577	24901
828.716	25072
828.855	24844
828.994	24612
829.134	24673
829.273	24642
829.412	24372
829.551	24422
829.69	24525
829.829	24566
829.968	24726
830.107	24665
830.246	24665
830.385	24490
830.524	24369
830.663	24433
830.802	24235
830.941	24178
831.08	24174
831.219	24289
831.357	24213
831.496	24498
831.635	24224
831.774	24136
831.913	24087
832.051	24007
832.19	24068
832.329	24087
832.467	23920
832.606	23809
832.744	23786
832.883	23874
833.022	23897
833.16	23908
833.299	23973
833.437	23889
833.576	23908
833.714	23912
833.852	24011
833.991	23908
834.129	24018
834.267	24178
834.406	24015
834.544	24144
834.682	23958
834.821	23863
834.959	24106
835.097	23878
835.235	24011
835.373	24018
835.511	24072
835.65	23741
835.788	23756
835.926	23649
836.064	23630
836.202	23703
836.34	23802
836.478	23817
836.615	23786
836.753	23802
836.891	23942
837.029	23817
837.167	23775
837.305	23832
837.443	23684
837.58	23707
837.718	23745
837.856	23623
837.993	23684
838.131	23589
838.269	23524
838.406	23570
838.544	23554
838.681	23284
838.819	23303
838.956	23147
839.094	23121
839.231	23075
839.369	23322
839.506	23539
839.643	23436
839.781	23105
839.918	23014
840.055	23102
840.193	23140
840.33	23003
840.467	23151
840.604	23208
840.742	23307
840.879	22957
841.016	23037
841.153	23048
841.29	23151
841.427	23094
841.564	23010
841.701	22991
841.838	22976
841.975	22930
842.112	22797
842.249	22816
842.385	22809
842.522	22900
842.659	22869
842.796	22752
842.933	22736
843.069	22755
843.206	22691
843.343	22866
843.479	22759
843.616	22740
843.752	22599
843.889	22615
844.025	22649
844.162	22516
844.298	22675
844.435	22634
844.571	22516
844.708	22622
844.844	22710
844.98	22721
845.117	22733
845.253	22550
845.389	22348
845.525	22428
845.661	22398
845.798	22265
845.934	22344
846.07	22295
846.206	22363
846.342	22459
846.478	22253
846.614	22082
846.75	22044
846.886	22002
847.022	22154
847.158	22021
847.294	22105
847.429	22166
847.565	21941
847.701	22329
847.837	21701
847.972	21766
848.108	21895
848.244	21854
848.379	21648
848.515	21641
848.65	21507
848.786	21580
848.921	21599
849.057	21743
849.192	21720
849.328	21629
849.463	21663
849.598	21614
849.734	21542
849.869	21545
850.004	21374
850.14	21435
850.275	21401
850.41	21325
850.545	21405
850.68	21321
850.815	21534
850.95	21332
851.085	21549
851.22	21576
851.355	21405
851.49	21382
851.625	21325
851.76	21306
851.895	21306
852.03	21416
852.165	21439
852.299	21317
852.434	21481
852.569	21549
852.703	21424
852.838	21492
852.973	21542
853.107	21500
853.242	21351
853.376	21237
853.511	21226
853.645	21214
853.78	21313
853.914	21306
854.048	21233
854.183	21241
854.317	21237
854.451	21561
854.585	21218
854.72	21157
854.854	21256
854.988	21085
855.122	21226
855.256	21096
855.39	21157
855.524	21142
855.658	21321
855.792	21325
855.926	21211
856.06	21222
856.194	21344
856.327	21283
856.461	21218
856.595	21233
856.729	21176
856.862	21420
856.996	21249
857.13	21348
857.263	21374
857.397	21317
857.53	21207
857.664	21264
857.797	21344
857.931	21310
858.064	21150
858.197	21272
858.331	21180
858.464	21176
858.597	21127
858.731	21096
858.864	21218
858.997	21211
859.13	21154
859.263	21283
859.396	21321
859.529	21237
859.662	21184
859.795	21131
859.928	21192
860.061	21393
860.194	21519
860.327	21245
860.46	21104
860.592	21325
860.725	21431
860.858	21367
860.99	21150
861.123	21135
861.256	21252
861.388	21188
861.521	21941
861.653	21188
861.786	21001
861.918	21112
862.05	21108
862.183	21074
862.315	21192
862.447	21207
862.58	21070
862.712	20944
862.844	20880
862.976	20979
863.108	21036
863.24	21344
863.372	20918
863.504	20971
863.636	20975
863.768	20979
863.9	21028
864.032	20834
864.164	20910
864.296	20990
864.428	21104
864.559	21058
864.691	20937
864.823	21020
864.954	20819
865.086	20819
865.217	20864
865.349	20834
865.48	20830
865.612	20781
865.743	20986
865.875	20967
866.006	20941
866.137	20880
866.269	20868
866.4	20823
866.531	20773
866.662	20842
866.793	20670
866.924	20746
867.055	20815
867.186	20781
867.317	20804
867.448	20796
867.579	20674
867.71	20746
867.841	20750
867.972	20765
868.103	20785
868.233	20834
868.364	20807
868.495	20823
868.625	20967
868.756	21138
868.886	20967
869.017	20994
869.147	21058
869.278	21203
869.408	20990
869.539	21081
869.669	21081
869.799	21100
869.929	21024
870.06	21085
870.19	21428
870.32	21218
870.45	21348
870.58	21355
870.71	21534
870.84	21538
870.97	21424
871.1	21374
871.23	21530
871.36	21583
871.489	21507
871.619	21553
871.749	21694
871.879	21690
872.008	21778
872.138	21625
872.267	21648
872.397	21485
872.526	21363
872.656	21420
872.785	21389
872.915	21652
873.044	21747
873.173	21595
873.303	21850
873.432	21637
873.561	21606
873.69	21633
873.819	21606
873.948	21686
874.077	21633
874.206	21652
874.335	21538
874.464	21747
874.593	21972
874.722	21861
874.851	21899
874.979	21926
875.108	21831
875.237	21728
875.365	21717
875.494	21892
875.623	22029
875.751	21884
875.88	21861
876.008	22055
876.136	21899
876.265	22322
876.393	22394
876.521	22211
876.65	22333
876.778	22257
876.906	22325
877.034	22192
877.162	22234
877.29	22207
877.418	22188
877.546	22246
877.674	22139
877.802	22196
877.93	22177
878.058	22143
878.185	22101
878.313	22120
878.441	22257
878.568	21968
878.696	22265
878.824	22234
878.951	22211
879.079	22443
879.206	22421
879.333	22356
879.461	22249
879.588	22238
879.715	22291
879.842	22622
879.97	22341
880.097	22002
880.224	21994
880.351	22036
880.478	21991
880.605	22112
880.732	22036
880.859	22295
880.986	22090
881.112	21964
881.239	21873
881.366	21766
881.493	21652
881.619	21663
881.746	21618
881.872	21622
881.999	21534
882.125	21500
882.252	21599
882.378	21618
882.505	21663
882.631	21496
882.757	21348
882.883	21386
883.01	21332
883.136	21249
883.262	21184
883.388	21150
883.514	21344
883.64	21348
883.766	21256
883.892	21081
884.018	21127
884.143	21313
884.269	21287
884.395	21108
884.52	20921
884.646	21047
884.772	20952
884.897	20971
885.023	20971
885.148	21116
885.274	21100
885.399	21093
885.524	20925
885.65	21066
885.775	20967
885.9	20914
886.025	21089
886.15	20971
886.275	20960
886.4	20902
886.525	20937
886.65	20792
886.775	20933
886.9	21116
887.025	21321
887.149	20937
887.274	20845
887.399	20609
887.523	20804
887.648	20765
887.773	20720
887.897	20826
888.021	20739
888.146	20659
888.27	20883
888.395	20948
888.519	20781
888.643	20689
888.767	20773
888.891	20701
889.015	20571
889.139	20689
889.263	20636
889.387	20678
889.511	20674
889.635	20598
889.759	20526
889.883	20473
890.006	20530
890.13	20678
890.254	20343
890.377	20476
890.501	20381
890.624	20336
890.748	20294
890.871	20134
890.995	20199
891.118	19997
891.241	20020
891.364	20126
891.488	20180
891.611	20115
891.734	20119
891.857	20149
891.98	20058
892.103	20031
892.226	20035
892.349	20081
892.471	20005
892.594	20054
892.717	19944
892.839	19955
892.962	19959
893.085	20119
893.207	19955
893.33	19997
893.452	19947
893.575	20088
893.697	20046
893.819	20157
893.941	20088
894.064	20199
894.186	19970
894.308	19887
894.43	20164
894.552	20256
894.674	20119
894.796	19928
894.918	20012
895.04	20084
895.161	20069
895.283	19921
895.405	19982
895.526	19982
895.648	20039
895.769	20043
895.891	20084
896.012	20134
896.134	20043
896.255	20008
896.376	19955
896.498	20024
896.619	20142
896.74	20092
896.861	20069
896.982	20370
897.103	20347
897.224	20233
897.345	20240
897.466	20218
897.587	20168
897.708	20419
897.828	20096
897.949	20187
898.07	20050
898.19	20172
898.311	20381
898.431	20119
898.552	20122
898.672	20206
898.792	20298
898.913	20252
899.033	20164
899.153	19959
899.273	19955
899.393	19913
899.513	19856
899.633	19932
899.753	19887
899.873	19944
899.993	20027
900.113	19902
900.232	19890
900.352	19841
900.472	19708
900.591	19807
900.711	19677
900.83	19734
900.95	19833
901.069	19708
901.189	19586
901.308	19339
901.427	19377
901.546	19441
901.665	19312
901.784	19419
901.904	19133
902.023	19194
902.141	18894
902.26	18817
902.379	18909
902.498	18825
902.617	18745
902.735	18848
902.854	18882
902.973	18814
903.091	18448
903.21	18532
903.328	18506
903.446	18483
903.565	18414
903.683	18285
903.801	18114
903.919	18277
904.038	18342
904.156	18106
904.274	18121
904.392	18007
904.51	18224
904.627	18026
904.745	18182
904.863	18087
904.981	17916
905.098	17775
905.216	17813
905.334	17832
905.451	17783
905.569	17794
905.686	17813
905.803	17737
905.921	17532
906.038	17562
906.155	17630
906.272	17490
906.389	17516
906.506	17368
906.623	17231
906.74	17330
906.857	17143
906.974	17174
907.091	17341
907.208	17429
907.324	17391
907.441	17151
907.557	16976
907.674	17105
907.79	16892
907.907	17041
908.023	17060
908.139	17010
908.256	17067
908.372	16915
908.488	16987
908.604	16801
908.72	16752
908.836	16828
908.952	16892
909.068	16710
909.184	16786
909.3	16744
909.415	16835
909.531	16782
909.647	16493
909.762	16542
909.878	16386
909.993	16478
910.108	16535
910.224	16348
910.339	16421
910.454	16303
910.57	16238
910.685	16158
910.8	16504
910.915	16398
911.03	16276
911.145	16116
911.259	15994
911.374	16101
911.489	15991
911.604	15949
911.718	15838
911.833	15789
911.947	15633
912.062	15633
912.176	15850
912.291	15823
912.405	15739
912.519	15941
912.633	16002
912.748	15880
912.862	15759
912.976	15686
913.09	15511
913.204	15534
913.318	15637
913.431	15724
913.545	15747
913.659	15652
913.772	15648
913.886	15412
914	15435
914.113	15526
914.226	15587
914.34	15511
914.453	15336
914.566	15488
914.68	15359
914.793	15207
914.906	15119
915.019	15066
915.132	14986
915.245	15047
915.358	15051
915.47	15104
915.583	15112
915.696	15146
915.809	15157
915.921	15142
916.034	14960
916.146	14971
916.259	14914
916.371	15066
916.483	15013
916.595	14830
916.708	14792
916.82	14925
916.932	14883
917.044	14750
917.156	14754
917.268	14651
917.38	14659
917.491	14693
917.603	14625
917.715	14640
917.826	14655
917.938	14712
918.049	14499
918.161	14712
918.272	14804
918.384	14777
918.495	14636
918.606	14431
918.717	14450
918.828	14427
918.939	14488
919.05	14431
919.161	14400
919.272	14240
919.383	14343
919.494	14423
919.604	14625
919.715	14465
919.826	14343
919.936	14408
920.047	14396
920.157	14461
920.267	14621
920.378	14450
920.488	14514
920.598	14568
920.708	14670
920.818	14613
920.928	14549
921.038	14708
921.148	14587
921.258	14400
921.368	14183
921.477	14157
921.587	14046
921.697	14016
921.806	14149
921.916	13917
922.025	13830
922.134	13757
922.244	13696
922.353	13864
922.462	13719
922.571	13616
922.68	13445
922.789	13400
922.898	13430
923.007	13445
923.116	13464
923.224	13411
923.333	13415
923.442	13213
923.55	13293
923.659	13263
923.767	13335
923.876	13232
923.984	13236
924.092	13190
924.201	13183
924.309	13141
924.417	13187
924.525	13126
924.633	13107
924.741	13875
924.849	12909
924.956	13031
925.064	12970
925.172	12760
925.279	12878
925.387	12939
925.494	12825
925.602	13069
925.709	12966
925.816	12779
925.924	12856
926.031	12878
926.138	12810
926.245	12791
926.352	12688
926.459	12852
926.566	12894
926.673	12654
926.779	12589
926.886	12623
926.993	12467
927.099	12467
927.206	12426
927.312	12380
927.419	12429
927.525	12483
927.631	12494
927.737	12247
927.843	12323
927.95	12163
928.056	12243
928.162	12258
928.267	12292
928.373	12817
928.479	12292
928.585	12057
928.69	12300
928.796	12251
928.901	12076
929.007	12076
929.112	12110
929.218	12136
929.323	12019
929.428	11897
929.533	12152
929.638	11958
929.743	11916
929.848	11870
929.953	11965
930.058	11832
930.163	11676
930.267	11775
930.372	11771
930.477	11646
930.581	11855
930.685	11714
930.79	11577
930.894	11558
930.998	11490
931.103	11718
931.207	11345
931.311	11208
931.415	11079
931.519	10961
931.623	10942
