Data from test_V78500241_138.txt Node
Date: Fri Mar 25 15:10:49 CST 2022
User: usil
Spectrometer: V785-0024
Trigger mode: 0
Integration Time (sec): 4.000000E-1
Scans to average: 1
Nonlinearity correction enabled: false
Boxcar width: 0
Storing dark spectrum: false
XAxis mode: Wavelengths
Number of Pixels in Spectrum: 1024
>>>>>Begin Spectral Data<<<<<
801.071	28200
801.214	28177
801.356	27911
801.499	27941
801.641	27873
801.783	27622
801.926	27759
802.068	27873
802.211	27587
802.353	27595
802.496	27370
802.638	27291
802.78	27302
802.923	27348
803.065	27119
803.208	27214
803.35	27329
803.492	27351
803.635	27500
803.777	27298
803.919	27496
804.061	27789
804.204	27477
804.346	27329
804.488	27355
804.63	27116
804.773	27256
804.915	27374
805.057	27557
805.199	27355
805.341	27233
805.483	27701
805.626	27462
805.768	27256
805.91	27583
806.052	27344
806.194	27382
806.336	27618
806.478	27412
806.62	27443
806.762	27530
806.904	27774
807.046	27914
807.188	27899
807.33	27770
807.472	27937
807.614	27755
807.756	27770
807.898	27785
808.04	27538
808.182	27637
808.324	27625
808.465	27694
808.607	27804
808.749	27846
808.891	27953
809.033	28044
809.174	28097
809.316	28082
809.458	28074
809.6	27987
809.741	28059
809.883	28025
810.025	28253
810.166	28219
810.308	28242
810.45	28131
810.591	28093
810.733	28013
810.875	27903
811.016	27762
811.158	27865
811.299	27968
811.441	28025
811.582	28029
811.724	27880
811.865	27930
812.007	27816
812.148	28006
812.29	27934
812.431	28109
812.573	28265
812.714	28421
812.855	28596
812.997	28565
813.138	28771
813.279	28550
813.421	28599
813.562	28432
813.703	28268
813.845	28090
813.986	27865
814.127	27660
814.268	27644
814.41	27606
814.551	27682
814.692	27682
814.833	27466
814.974	27545
815.115	27561
815.256	27408
815.397	27420
815.539	27302
815.68	27306
815.821	27272
815.962	27233
816.103	27340
816.244	27325
816.385	27146
816.526	27070
816.666	27047
816.807	26682
816.948	26883
817.089	26914
817.23	26663
817.371	26678
817.512	26609
817.653	26617
817.793	26849
817.934	26781
818.075	26712
818.216	26864
818.356	26842
818.497	26659
818.638	26396
818.778	26469
818.919	26473
819.06	26518
819.2	26488
819.341	26746
819.481	26613
819.622	26735
819.762	26933
819.903	26944
820.043	26773
820.184	26724
820.324	26743
820.465	26906
820.605	26697
820.746	26743
820.886	26495
821.026	26781
821.167	26674
821.307	26864
821.447	26705
821.588	26514
821.728	26313
821.868	26389
822.008	26020
822.149	26126
822.289	26225
822.429	25909
822.569	25860
822.709	25788
822.849	25586
822.99	25521
823.13	25556
823.27	25540
823.41	25460
823.55	25369
823.69	25362
823.83	25453
823.97	25346
824.11	25209
824.25	25152
824.389	25141
824.529	25232
824.669	25206
824.809	25183
824.949	25190
825.089	25373
825.228	25221
825.368	25031
825.508	25065
825.648	25004
825.787	25133
825.927	25008
826.067	25015
826.206	24852
826.346	25118
826.485	25065
826.625	24863
826.765	25171
826.904	25053
827.044	24837
827.183	24795
827.323	24620
827.462	24840
827.601	24650
827.741	24738
827.88	24821
828.02	24509
828.159	24574
828.298	24738
828.437	24711
828.577	24627
828.716	24669
828.855	24456
828.994	24441
829.134	24357
829.273	24399
829.412	24372
829.551	24155
829.69	24414
829.829	24361
829.968	24460
830.107	24361
830.246	24350
830.385	24224
830.524	24292
830.663	24068
830.802	23950
830.941	24026
831.08	23958
831.219	23878
831.357	23935
831.496	24148
831.635	23977
831.774	23832
831.913	23817
832.051	23684
832.19	23596
832.329	23630
832.467	23630
832.606	23531
832.744	23455
832.883	23486
833.022	23455
833.16	23608
833.299	23577
833.437	23497
833.576	23615
833.714	23684
833.852	23528
833.991	23600
834.129	23551
834.267	23733
834.406	23691
834.544	23604
834.682	23638
834.821	23520
834.959	23684
835.097	23524
835.235	23554
835.373	23486
835.511	23520
835.65	23474
835.788	23364
835.926	23372
836.064	23227
836.202	23121
836.34	23353
836.478	23668
836.615	23398
836.753	23349
836.891	23482
837.029	23486
837.167	23356
837.305	23200
837.443	23292
837.58	23216
837.718	23296
837.856	23277
837.993	23231
838.131	23318
838.269	23189
838.406	23109
838.544	23003
838.681	22957
838.819	22877
838.956	22653
839.094	22702
839.231	22809
839.369	22908
839.506	23151
839.643	22843
839.781	22782
839.918	22588
840.055	22740
840.193	22649
840.33	22432
840.467	22500
840.604	22588
840.742	22839
840.879	22417
841.016	22474
841.153	22295
841.29	22599
841.427	22634
841.564	22573
841.701	22584
841.838	22596
841.975	22417
842.112	22428
842.249	22284
842.385	22200
842.522	22466
842.659	22314
842.796	22303
842.933	22318
843.069	22242
843.206	22143
843.343	22325
843.479	22223
843.616	22299
843.752	22025
843.889	22067
844.025	22166
844.162	21960
844.298	22093
844.435	21968
844.571	21941
844.708	22154
844.844	22150
844.98	22063
845.117	22063
845.253	21915
845.389	21960
845.525	21838
845.661	21964
845.798	21671
845.934	21808
846.07	21656
846.206	21755
846.342	21903
846.478	21762
846.614	21656
846.75	21363
846.886	21424
847.022	21412
847.158	21458
847.294	21561
847.429	21504
847.565	21428
847.701	21701
847.837	21249
847.972	21104
848.108	21264
848.244	21218
848.379	21066
848.515	21108
848.65	20937
848.786	21085
848.921	21112
849.057	21108
849.192	21104
849.328	21032
849.463	20998
849.598	21062
849.734	21001
849.869	20762
850.004	20921
850.14	20853
850.275	20670
850.41	20720
850.545	20826
850.68	20705
850.815	20731
850.95	20815
851.085	20952
851.22	20960
851.355	20796
851.49	20788
851.625	20659
851.76	20617
851.895	20530
852.03	20583
852.165	20670
852.299	20743
852.434	20842
852.569	20811
852.703	20762
852.838	20887
852.973	20971
853.107	20834
853.242	20663
853.376	20629
853.511	20415
853.645	20693
853.78	20625
853.914	20564
854.048	20541
854.183	20594
854.317	20575
854.451	20800
854.585	20518
854.72	20575
854.854	20602
854.988	20503
855.122	20495
855.256	20476
855.39	20522
855.524	20727
855.658	20530
855.792	20571
855.926	20621
856.06	20659
856.194	20705
856.327	20495
856.461	20473
856.595	20431
856.729	20571
856.862	20716
856.996	20609
857.13	20739
857.263	20655
857.397	20651
857.53	20507
857.664	20552
857.797	20587
857.931	20568
858.064	20495
858.197	20644
858.331	20511
858.464	20454
858.597	20419
858.731	20533
858.864	20396
858.997	20385
859.13	20587
859.263	20655
859.396	20564
859.529	20636
859.662	20602
859.795	20495
859.928	20575
860.061	20693
860.194	20739
860.327	20480
860.46	20484
860.592	20621
860.725	20613
860.858	20549
860.99	20518
861.123	20339
861.256	20465
861.388	20541
861.521	21161
861.653	20336
861.786	20343
861.918	20377
862.05	20526
862.183	20503
862.315	20457
862.447	20682
862.58	20370
862.712	20313
862.844	20240
862.976	20351
863.108	20320
863.24	20640
863.372	20153
863.504	20183
863.636	20355
863.768	20229
863.9	20225
864.032	20210
864.164	20221
864.296	20134
864.428	20419
864.559	20180
864.691	20313
864.823	20206
864.954	20134
865.086	20202
865.217	20145
865.349	20065
865.48	20100
865.612	20176
865.743	20229
865.875	20096
866.006	20069
866.137	20145
866.269	20142
866.4	20024
866.531	20012
866.662	19997
866.793	20062
866.924	19944
867.055	20092
867.186	19959
867.317	20039
867.448	19959
867.579	20012
867.71	19890
867.841	19963
867.972	19955
868.103	20005
868.233	19982
868.364	20054
868.495	20149
868.625	20328
868.756	20377
868.886	20126
869.017	20347
869.147	20263
869.278	20385
869.408	20298
869.539	20282
869.669	20404
869.799	20218
869.929	20385
870.06	20317
870.19	20545
870.32	20537
870.45	20617
870.58	20651
870.71	20777
870.84	20743
870.97	20701
871.1	20674
871.23	20857
871.36	20887
871.489	20727
871.619	20750
871.749	20762
871.879	20937
872.008	20929
872.138	20902
872.267	20906
872.397	20686
872.526	20625
872.656	20575
872.785	20792
872.915	20746
873.044	21036
873.173	20929
873.303	20876
873.432	20853
873.561	20963
873.69	20868
873.819	20880
873.948	20910
874.077	20952
874.206	20952
874.335	20883
874.464	20967
874.593	21203
874.722	21142
874.851	21154
874.979	21199
875.108	21245
875.237	21077
875.365	21070
875.494	21028
875.623	21176
875.751	21096
875.88	21142
876.008	21310
876.136	21298
876.265	21431
876.393	21660
876.521	21629
876.65	21610
876.778	21500
876.906	21481
877.034	21450
877.162	21405
877.29	21443
877.418	21447
877.546	21549
877.674	21534
877.802	21515
877.93	21420
878.058	21496
878.185	21412
878.313	21549
878.441	21553
878.568	21348
878.696	21424
878.824	21454
878.951	21618
879.079	21720
879.206	21743
879.333	21667
879.461	21473
879.588	21652
879.715	21656
879.842	21641
879.97	21542
880.097	21283
880.224	21275
880.351	21538
880.478	21359
880.605	21382
880.732	21287
880.859	21561
880.986	21370
881.112	21424
881.239	21192
881.366	20887
881.493	20982
881.619	20990
881.746	20880
881.872	20929
881.999	20880
882.125	20834
882.252	20918
882.378	20849
882.505	21055
882.631	20811
882.757	20648
882.883	20750
883.01	20651
883.136	20632
883.262	20404
883.388	20408
883.514	20655
883.64	20609
883.766	20480
883.892	20351
884.018	20514
884.143	20655
884.269	20629
884.395	20328
884.52	20286
884.646	20396
884.772	20244
884.897	20240
885.023	20263
885.148	20336
885.274	20469
885.399	20454
885.524	20343
885.65	20351
885.775	20351
885.9	20244
886.025	20332
886.15	20446
886.275	20199
886.4	20145
886.525	20332
886.65	20176
886.775	20134
886.9	20404
887.025	20526
887.149	20210
887.274	20145
887.399	20050
887.523	19986
887.648	20016
887.773	19887
887.897	20069
888.021	20008
888.146	19849
888.27	20073
888.395	20081
888.519	20020
888.643	20001
888.767	20096
888.891	19906
889.015	19898
889.139	19890
889.263	19822
889.387	19852
889.511	20043
889.635	19898
889.759	19715
889.883	19746
890.006	19696
890.13	19928
890.254	19693
890.377	19696
890.501	19578
890.624	19499
890.748	19639
890.871	19438
890.995	19350
891.118	19365
891.241	19434
891.364	19392
891.488	19495
891.611	19400
891.734	19422
891.857	19373
891.98	19620
892.103	19556
892.226	19278
892.349	19419
892.471	19175
892.594	19270
892.717	19312
892.839	19202
892.962	19358
893.085	19373
893.207	19312
893.33	19103
893.452	19206
893.575	19377
893.697	19327
893.819	19434
893.941	19567
894.064	19430
894.186	19221
894.308	19278
894.43	19324
894.552	19392
894.674	19544
894.796	19221
894.918	19346
895.04	19335
895.161	19369
895.283	19430
895.405	19335
895.526	19346
895.648	19308
895.769	19335
895.891	19381
896.012	19392
896.134	19346
896.255	19308
896.376	19381
896.498	19396
896.619	19460
896.74	19396
896.861	19529
896.982	19620
897.103	19845
897.224	19753
897.345	19514
897.466	19537
897.587	19434
897.708	19616
897.828	19540
897.949	19525
898.07	19407
898.19	19441
898.311	19601
898.431	19506
898.552	19620
898.672	19533
898.792	19597
898.913	19514
899.033	19567
899.153	19339
899.273	19251
899.393	19251
899.513	19282
899.633	19350
899.753	19297
899.873	19236
899.993	19358
900.113	19251
900.232	19278
900.352	19209
900.472	18989
900.591	18996
900.711	19183
900.83	19050
900.95	19198
901.069	19129
901.189	19012
901.308	18829
901.427	18654
901.546	18711
901.665	18692
901.784	18677
901.904	18627
902.023	18418
902.141	18258
902.26	18209
902.379	18285
902.498	18117
902.617	18110
902.735	18182
902.854	18178
902.973	18121
903.091	17942
903.21	17699
903.328	17847
903.446	17889
903.565	17676
903.683	17687
903.801	17649
903.919	17646
904.038	17532
904.156	17539
904.274	17573
904.392	17463
904.51	17417
904.627	17402
904.745	17467
904.863	17551
904.981	17269
905.098	17037
905.216	17140
905.334	17128
905.451	17117
905.569	17124
905.686	17231
905.803	16999
905.921	17006
906.038	16934
906.155	16900
906.272	16812
906.389	16869
906.506	16622
906.623	16691
906.74	16573
906.857	16569
906.974	16615
907.091	16847
907.208	16763
907.324	16778
907.441	16546
907.557	16428
907.674	16348
907.79	16333
907.907	16242
908.023	16379
908.139	16344
908.256	16303
908.372	16268
908.488	16246
908.604	16112
908.72	16048
908.836	16109
908.952	16071
909.068	16063
909.184	16150
909.3	16063
909.415	15987
909.531	16071
909.647	15827
909.762	15766
909.878	15701
909.993	15789
910.108	15762
910.224	15785
910.339	15705
910.454	15492
910.57	15663
910.685	15412
910.8	15808
910.915	15675
911.03	15526
911.145	15435
911.259	15329
911.374	15363
911.489	15275
911.604	15150
911.718	15089
911.833	15142
911.947	14941
912.062	14944
912.176	15058
912.291	15093
912.405	15020
912.519	15272
912.633	15249
912.748	15218
912.862	15112
912.976	14853
913.09	14826
913.204	14876
913.318	14937
913.431	15028
913.545	14982
913.659	15028
913.772	14834
913.886	14705
914	14686
914.113	14864
914.226	14914
914.34	14804
914.453	14606
914.566	14758
914.68	14648
914.793	14640
914.906	14446
915.019	14320
915.132	14271
915.245	14317
915.358	14446
915.47	14278
915.583	14412
915.696	14328
915.809	14381
915.921	14503
916.034	14218
916.146	14244
916.259	14183
916.371	14286
916.483	14328
916.595	14202
916.708	14092
916.82	14218
916.932	14199
917.044	14172
917.156	14138
917.268	13989
917.38	14069
917.491	14050
917.603	14043
917.715	14073
917.826	14092
917.938	14043
918.049	13803
918.161	13982
918.272	14077
918.384	14031
918.495	14050
918.606	13841
918.717	13837
918.828	13833
918.939	13849
919.05	13677
919.161	13746
919.272	13620
919.383	13609
919.494	13772
919.604	13993
919.715	13795
919.826	13613
919.936	13666
920.047	13822
920.157	13700
920.267	14012
920.378	13750
920.488	13655
920.598	13894
920.708	14054
920.818	13921
920.928	13883
921.038	14039
921.148	14012
921.258	13685
921.368	13613
921.477	13514
921.587	13514
921.697	13388
921.806	13457
921.916	13392
922.025	13152
922.134	13225
922.244	13129
922.353	13187
922.462	12901
922.571	12977
922.68	12859
922.789	12817
922.898	12821
923.007	12665
923.116	12715
923.224	12677
923.333	12646
923.442	12532
923.55	12616
923.659	12692
923.767	12631
923.876	12635
923.984	12669
924.092	12433
924.201	12566
924.309	12574
924.417	12631
924.525	12452
924.633	12407
924.741	13187
924.849	12346
924.956	12399
925.064	12251
925.172	12228
925.279	12258
925.387	12232
925.494	12201
925.602	12357
925.709	12216
925.816	12114
925.924	12258
926.031	12308
926.138	12182
926.245	12201
926.352	12209
926.459	12228
926.566	12292
926.673	12140
926.779	12083
926.886	12106
926.993	11893
927.099	11904
927.206	11794
927.312	11767
927.419	11908
927.525	11813
927.631	11783
927.737	11821
927.843	11737
927.95	11577
928.056	11627
928.162	11790
928.267	11794
928.373	12216
928.479	11767
928.585	11520
928.69	11604
928.796	11634
928.901	11528
929.007	11391
929.112	11558
929.218	11543
929.323	11478
929.428	11368
929.533	11604
929.638	11379
929.743	11368
929.848	11387
929.953	11356
930.058	11185
930.163	11121
930.267	11102
930.372	11235
930.477	10984
930.581	11356
930.685	11204
930.79	10976
930.894	11022
930.998	10904
931.103	11140
931.207	10771
931.311	10607
931.415	10588
931.519	10432
931.623	10344
