Data from test_V78500241_3229.txt Node
Date: Fri Mar 25 15:32:20 CST 2022
User: usil
Spectrometer: V785-0024
Trigger mode: 0
Integration Time (sec): 4.000000E-1
Scans to average: 1
Nonlinearity correction enabled: false
Boxcar width: 0
Storing dark spectrum: false
XAxis mode: Wavelengths
Number of Pixels in Spectrum: 1024
>>>>>Begin Spectral Data<<<<<
801.071	27173
801.214	27142
801.356	27024
801.499	26864
801.641	26743
801.783	26800
801.926	26838
802.068	26705
802.211	26587
802.353	26621
802.496	26537
802.638	26446
802.78	26393
802.923	26290
803.065	26214
803.208	26358
803.35	26347
803.492	26415
803.635	26541
803.777	26282
803.919	26499
804.061	26773
804.204	26686
804.346	26507
804.488	26385
804.63	26564
804.773	26450
804.915	26629
805.057	26670
805.199	26541
805.341	26575
805.483	26708
805.626	26549
805.768	26541
805.91	26724
806.052	26644
806.194	26465
806.336	26807
806.478	26765
806.62	26644
806.762	26773
806.904	26872
807.046	27123
807.188	27112
807.33	27047
807.472	27093
807.614	26921
807.756	27062
807.898	26899
808.04	26861
808.182	26868
808.324	26868
808.465	26940
808.607	27024
808.749	27283
808.891	27252
809.033	27454
809.174	27306
809.316	27165
809.458	27245
809.6	27264
809.741	27378
809.883	27412
810.025	27606
810.166	27500
810.308	27492
810.45	27355
810.591	27405
810.733	27256
810.875	27363
811.016	27138
811.158	27131
811.299	27211
811.441	27382
811.582	27283
811.724	27119
811.865	27154
812.007	27157
812.148	27123
812.29	27199
812.431	27317
812.573	27549
812.714	27576
812.855	27698
812.997	27797
813.138	27918
813.279	27865
813.421	27701
813.562	27694
813.703	27583
813.845	27370
813.986	27066
814.127	26971
814.268	26819
814.41	26838
814.551	26925
814.692	26925
814.833	26830
814.974	26887
815.115	26864
815.256	26724
815.397	26765
815.539	26750
815.68	26819
815.821	26514
815.962	26617
816.103	26689
816.244	26530
816.385	26473
816.526	26347
816.666	26385
816.807	26176
816.948	26286
817.089	26161
817.23	26103
817.371	26100
817.512	26122
817.653	26161
817.793	26008
817.934	26221
818.075	26111
818.216	26138
818.356	25982
818.497	26039
818.638	25890
818.778	25830
818.919	25936
819.06	25871
819.2	26149
819.341	26054
819.481	26073
819.622	26309
819.762	26377
819.903	26370
820.043	26301
820.184	26240
820.324	26252
820.465	26328
820.605	26157
820.746	26142
820.886	26050
821.026	26084
821.167	26191
821.307	26138
821.447	26180
821.588	25906
821.728	25841
821.868	25712
822.008	25616
822.149	25563
822.289	25620
822.429	25381
822.569	25255
822.709	25240
822.849	25129
822.99	25129
823.13	25114
823.27	25000
823.41	24859
823.55	24863
823.69	24973
823.83	24992
823.97	24897
824.11	24730
824.25	24639
824.389	24772
824.529	24821
824.669	24734
824.809	24692
824.949	24837
825.089	24886
825.228	24802
825.368	24604
825.508	24677
825.648	24654
825.787	24578
825.927	24798
826.067	24601
826.206	24578
826.346	24665
826.485	24574
826.625	24589
826.765	24688
826.904	24684
827.044	24509
827.183	24452
827.323	24380
827.462	24464
827.601	24251
827.741	24308
827.88	24262
828.02	24190
828.159	24330
828.298	24224
828.437	24372
828.577	24254
828.716	24384
828.855	24323
828.994	24034
829.134	24072
829.273	24095
829.412	24102
829.551	23980
829.69	24068
829.829	24148
829.968	24152
830.107	24125
830.246	23927
830.385	24007
830.524	23923
830.663	23843
830.802	23828
830.941	23653
831.08	23547
831.219	23684
831.357	23668
831.496	23923
831.635	23653
831.774	23646
831.913	23543
832.051	23311
832.19	23372
832.329	23429
832.467	23353
832.606	23109
832.744	23345
832.883	23258
833.022	23280
833.16	23322
833.299	23376
833.437	23395
833.576	23444
833.714	23349
833.852	23303
833.991	23417
834.129	23676
834.267	23497
834.406	23444
834.544	23448
834.682	23452
834.821	23383
834.959	23577
835.097	23402
835.235	23482
835.373	23364
835.511	23334
835.65	23261
835.788	23353
835.926	23121
836.064	23102
836.202	23105
836.34	23360
836.478	23391
836.615	23265
836.753	23189
836.891	23311
837.029	23261
837.167	23124
837.305	23193
837.443	23109
837.58	23109
837.718	23113
837.856	23090
837.993	23003
838.131	23041
838.269	22984
838.406	23086
838.544	23060
838.681	22755
838.819	22877
838.956	22577
839.094	22603
839.231	22649
839.369	22702
839.506	22908
839.643	22809
839.781	22508
839.918	22314
840.055	22550
840.193	22489
840.33	22493
840.467	22424
840.604	22538
840.742	22729
840.879	22337
841.016	22402
841.153	22306
841.29	22516
841.427	22561
841.564	22542
841.701	22462
841.838	22360
841.975	22447
842.112	22512
842.249	22375
842.385	22287
842.522	22478
842.659	22303
842.796	22333
842.933	22215
843.069	22310
843.206	22272
843.343	22234
843.479	22249
843.616	22352
843.752	22147
843.889	22078
844.025	22181
844.162	22086
844.298	22006
844.435	22063
844.571	22139
844.708	22044
844.844	22246
844.98	22181
845.117	22192
845.253	21964
845.389	21888
845.525	21975
845.661	21793
845.798	21873
845.934	21698
846.07	21785
846.206	21842
846.342	21884
846.478	21751
846.614	21599
846.75	21462
846.886	21450
847.022	21622
847.158	21614
847.294	21386
847.429	21458
847.565	21450
847.701	21690
847.837	21359
847.972	21146
848.108	21355
848.244	21386
848.379	21275
848.515	21165
848.65	21036
848.786	21058
848.921	21017
849.057	21199
849.192	21169
849.328	21123
849.463	20998
849.598	21017
849.734	20948
849.869	20975
850.004	20857
850.14	20861
850.275	20956
850.41	20804
850.545	20834
850.68	20845
850.815	20910
850.95	20914
851.085	21005
851.22	21020
851.355	20826
851.49	20838
851.625	20830
851.76	20838
851.895	20750
852.03	20811
852.165	20883
852.299	20868
852.434	20941
852.569	20845
852.703	20914
852.838	20842
852.973	20986
853.107	20986
853.242	20857
853.376	20727
853.511	20594
853.645	20659
853.78	20785
853.914	20758
854.048	20678
854.183	20629
854.317	20724
854.451	20925
854.585	20712
854.72	20708
854.854	20788
854.988	20644
855.122	20670
855.256	20579
855.39	20701
855.524	20777
855.658	20769
855.792	20686
855.926	20754
856.06	20769
856.194	20804
856.327	20705
856.461	20564
856.595	20689
856.729	20632
856.862	20880
856.996	20712
857.13	20769
857.263	20891
857.397	20754
857.53	20792
857.664	20750
857.797	20811
857.931	20842
858.064	20640
858.197	20807
858.331	20697
858.464	20735
858.597	20705
858.731	20571
858.864	20625
858.997	20564
859.13	20754
859.263	20754
859.396	20735
859.529	20716
859.662	20651
859.795	20682
859.928	20705
860.061	20743
860.194	20941
860.327	20693
860.46	20720
860.592	20785
860.725	20792
860.858	20754
860.99	20724
861.123	20571
861.256	20632
861.388	20697
861.521	21233
861.653	20503
861.786	20434
861.918	20530
862.05	20537
862.183	20632
862.315	20602
862.447	20674
862.58	20568
862.712	20514
862.844	20374
862.976	20571
863.108	20606
863.24	20941
863.372	20202
863.504	20476
863.636	20412
863.768	20423
863.9	20438
864.032	20347
864.164	20336
864.296	20530
864.428	20579
864.559	20423
864.691	20461
864.823	20431
864.954	20374
865.086	20381
865.217	20305
865.349	20183
865.48	20305
865.612	20218
865.743	20366
865.875	20259
866.006	20347
866.137	20313
866.269	20385
866.4	20237
866.531	20351
866.662	20267
866.793	20286
866.924	20271
867.055	20240
867.186	20393
867.317	20202
867.448	20176
867.579	20286
867.71	20176
867.841	20122
867.972	20317
868.103	20240
868.233	20355
868.364	20263
868.495	20358
868.625	20564
868.756	20552
868.886	20530
869.017	20492
869.147	20511
869.278	20739
869.408	20552
869.539	20450
869.669	20667
869.799	20606
869.929	20724
870.06	20549
870.19	20826
870.32	20910
870.45	20986
870.58	20895
870.71	20937
870.84	20982
870.97	20895
871.1	20842
871.23	21062
871.36	21051
871.489	20975
871.619	20994
871.749	21047
871.879	21180
872.008	21245
872.138	21237
872.267	21066
872.397	21108
872.526	20948
872.656	20933
872.785	21001
872.915	21108
873.044	21218
873.173	21195
873.303	21340
873.432	21233
873.561	21165
873.69	21062
873.819	21195
873.948	21233
874.077	21085
874.206	21138
874.335	21161
874.464	21188
874.593	21302
874.722	21245
874.851	21439
874.979	21401
875.108	21393
875.237	21226
875.365	21313
875.494	21424
875.623	21393
875.751	21405
875.88	21325
876.008	21485
876.136	21557
876.265	21831
876.393	21838
876.521	21717
876.65	21861
876.778	21827
876.906	21747
877.034	21701
877.162	21789
877.29	21785
877.418	21720
877.546	21842
877.674	21759
877.802	21698
877.93	21671
878.058	21789
878.185	21549
878.313	21629
878.441	21614
878.568	21397
878.696	21633
878.824	21793
878.951	21747
879.079	21876
879.206	21941
879.333	21918
879.461	21743
879.588	21873
879.715	21835
879.842	21922
879.97	21766
880.097	21572
880.224	21614
880.351	21545
880.478	21526
880.605	21564
880.732	21545
880.859	21835
880.986	21523
881.112	21564
881.239	21374
881.366	21344
881.493	21367
881.619	21036
881.746	21233
881.872	21127
881.999	21119
882.125	21112
882.252	21203
882.378	21089
882.505	21222
882.631	20948
882.757	20853
882.883	20910
883.01	20842
883.136	20735
883.262	20754
883.388	20796
883.514	20800
883.64	20933
883.766	20777
883.892	20667
884.018	20701
884.143	20804
884.269	20887
884.395	20522
884.52	20571
884.646	20488
884.772	20514
884.897	20499
885.023	20537
885.148	20583
885.274	20644
885.399	20564
885.524	20549
885.65	20526
885.775	20541
885.9	20568
886.025	20598
886.15	20552
886.275	20590
886.4	20469
886.525	20545
886.65	20473
886.775	20587
886.9	20636
887.025	20781
887.149	20514
887.274	20495
887.399	20191
887.523	20237
887.648	20313
887.773	20210
887.897	20347
888.021	20324
888.146	20164
888.27	20339
888.395	20454
888.519	20347
888.643	20305
888.767	20415
888.891	20233
889.015	20050
889.139	20138
889.263	20065
889.387	20157
889.511	20317
889.635	20267
889.759	20107
889.883	20202
890.006	20043
890.13	20191
890.254	19944
890.377	20142
890.501	19830
890.624	19898
890.748	19879
890.871	19742
890.995	19761
891.118	19624
891.241	19689
891.364	19731
891.488	19738
891.611	19666
891.734	19662
891.857	19811
891.98	19742
892.103	19655
892.226	19742
892.349	19578
892.471	19502
892.594	19544
892.717	19620
892.839	19601
892.962	19620
893.085	19620
893.207	19628
893.33	19529
893.452	19575
893.575	19658
893.697	19655
893.819	19670
893.941	19765
894.064	19700
894.186	19544
894.308	19434
894.43	19651
894.552	19803
894.674	19670
894.796	19510
894.918	19518
895.04	19548
895.161	19643
895.283	19723
895.405	19552
895.526	19643
895.648	19620
895.769	19719
895.891	19708
896.012	19689
896.134	19601
896.255	19620
896.376	19533
896.498	19689
896.619	19647
896.74	19712
896.861	19609
896.982	19906
897.103	20126
897.224	19925
897.345	19818
897.466	19708
897.587	19928
897.708	19947
897.828	19841
897.949	19852
898.07	19632
898.19	19742
898.311	19917
898.431	19791
898.552	19757
898.672	19883
898.792	19932
898.913	19757
899.033	19788
899.153	19601
899.273	19540
899.393	19666
899.513	19632
899.633	19575
899.753	19658
899.873	19472
899.993	19563
900.113	19647
900.232	19674
900.352	19453
900.472	19365
900.591	19384
900.711	19346
900.83	19270
900.95	19495
901.069	19381
901.189	19384
901.308	19050
901.427	19126
901.546	19038
901.665	18989
901.784	18867
901.904	18886
902.023	18783
902.141	18536
902.26	18502
902.379	18547
902.498	18540
902.617	18479
902.735	18525
902.854	18384
902.973	18426
903.091	18163
903.21	18163
903.328	18114
903.446	18102
903.565	17916
903.683	17874
903.801	17904
903.919	17893
904.038	17882
904.156	17718
904.274	17786
904.392	17615
904.51	17646
904.627	17672
904.745	17813
904.863	17703
904.981	17524
905.098	17337
905.216	17425
905.334	17558
905.451	17459
905.569	17280
905.686	17497
905.803	17387
905.921	17250
906.038	17330
906.155	17330
906.272	17006
906.389	17105
906.506	16968
906.623	16976
906.74	17006
906.857	16763
906.974	16965
907.091	17010
907.208	17018
907.324	16892
907.441	16889
907.557	16774
907.674	16615
907.79	16599
907.907	16611
908.023	16698
908.139	16637
908.256	16550
908.372	16634
908.488	16481
908.604	16409
908.72	16375
908.836	16489
908.952	16421
909.068	16462
909.184	16481
909.3	16447
909.415	16394
909.531	16451
909.647	16173
909.762	16048
909.878	16063
909.993	16090
910.108	16059
910.224	16044
910.339	16074
910.454	15956
910.57	15937
910.685	15922
910.8	16242
910.915	16071
911.03	15892
911.145	15751
911.259	15595
911.374	15686
911.489	15679
911.604	15599
911.718	15454
911.833	15412
911.947	15523
912.062	15401
912.176	15420
912.291	15507
912.405	15500
912.519	15720
912.633	15679
912.748	15477
912.862	15477
912.976	15393
913.09	15135
913.204	15260
913.318	15306
913.431	15336
913.545	15317
913.659	15412
913.772	15237
913.886	15195
914	15116
914.113	15150
914.226	15138
914.34	15131
914.453	14982
914.566	15070
914.68	15108
914.793	15039
914.906	14811
915.019	14731
915.132	14663
915.245	14621
915.358	14701
915.47	14716
915.583	14667
915.696	14769
915.809	14807
915.921	14864
916.034	14636
916.146	14708
916.259	14560
916.371	14663
916.483	14583
916.595	14556
916.708	14590
916.82	14606
916.932	14552
917.044	14499
917.156	14480
917.268	14396
917.38	14522
917.491	14286
917.603	14396
917.715	14347
917.826	14465
917.938	14271
918.049	14202
918.161	14355
918.272	14408
918.384	14484
918.495	14313
918.606	14202
918.717	14153
918.828	14168
918.939	14096
919.05	13970
919.161	14073
919.272	13883
919.383	13959
919.494	14282
919.604	14366
919.715	14157
919.826	14043
919.936	14130
920.047	14157
920.157	14183
920.267	14240
920.378	14172
920.488	14081
920.598	14202
920.708	14480
920.818	14187
920.928	14229
921.038	14434
921.148	14313
921.258	14092
921.368	13852
921.477	13788
921.587	13784
921.697	13742
921.806	13909
921.916	13715
922.025	13632
922.134	13487
922.244	13594
922.353	13476
922.462	13403
922.571	13381
922.68	13156
922.789	13164
922.898	13179
923.007	13050
923.116	13217
923.224	13122
923.333	13107
923.442	12981
923.55	13023
923.659	12973
923.767	13012
923.876	12935
923.984	13000
924.092	12840
924.201	12977
924.309	12909
924.417	12951
924.525	12897
924.633	12894
924.741	13799
924.849	12578
924.956	12795
925.064	12623
925.172	12578
925.279	12551
925.387	12604
925.494	12673
925.602	12662
925.709	12631
925.816	12525
925.924	12589
926.031	12658
926.138	12521
926.245	12597
926.352	12445
926.459	12601
926.566	12604
926.673	12513
926.779	12441
926.886	12315
926.993	12190
927.099	12114
927.206	12133
927.312	12114
927.419	12266
927.525	12125
927.631	12148
927.737	12041
927.843	11984
927.95	11935
928.056	12038
928.162	11996
928.267	12022
928.373	12642
928.479	12072
928.585	11764
928.69	11946
928.796	11935
928.901	11737
929.007	11745
929.112	11889
929.218	11779
929.323	11779
929.428	11638
929.533	11843
929.638	11615
929.743	11748
929.848	11764
929.953	11752
930.058	11573
930.163	11410
930.267	11414
930.372	11467
930.477	11372
930.581	11638
930.685	11452
930.79	11273
930.894	11303
930.998	11121
931.103	11440
931.207	11128
931.311	11014
931.415	10930
931.519	10710
931.623	10714
