Data from test_V78500241_3262.txt Node
Date: Fri Mar 25 15:32:34 CST 2022
User: usil
Spectrometer: V785-0024
Trigger mode: 0
Integration Time (sec): 4.000000E-1
Scans to average: 1
Nonlinearity correction enabled: false
Boxcar width: 0
Storing dark spectrum: false
XAxis mode: Wavelengths
Number of Pixels in Spectrum: 1024
>>>>>Begin Spectral Data<<<<<
801.071	27294
801.214	27207
801.356	27074
801.499	27028
801.641	27020
801.783	26781
801.926	26864
802.068	26826
802.211	26815
802.353	26826
802.496	26549
802.638	26556
802.78	26552
802.923	26461
803.065	26415
803.208	26332
803.35	26370
803.492	26651
803.635	26724
803.777	26545
803.919	26640
804.061	27108
804.204	26682
804.346	26632
804.488	26617
804.63	26667
804.773	26499
804.915	26686
805.057	26762
805.199	26594
805.341	26796
805.483	26933
805.626	26724
805.768	26678
805.91	26765
806.052	26735
806.194	26640
806.336	26762
806.478	26758
806.62	26743
806.762	26785
806.904	26982
807.046	27275
807.188	27176
807.33	27283
807.472	27188
807.614	27138
807.756	27157
807.898	27055
808.04	26956
808.182	26963
808.324	26902
808.465	27062
808.607	27203
808.749	27393
808.891	27477
809.033	27519
809.174	27351
809.316	27447
809.458	27313
809.6	27389
809.741	27542
809.883	27492
810.025	27603
810.166	27599
810.308	27526
810.45	27732
810.591	27462
810.733	27450
810.875	27264
811.016	27329
811.158	27340
811.299	27427
811.441	27458
811.582	27477
811.724	27348
811.865	27214
812.007	27226
812.148	27405
812.29	27408
812.431	27603
812.573	27656
812.714	27606
812.855	27812
812.997	27949
813.138	28219
813.279	27880
813.421	27823
813.562	27831
813.703	27728
813.845	27519
813.986	27192
814.127	27161
814.268	27154
814.41	27104
814.551	27024
814.692	27032
814.833	26800
814.974	26861
815.115	27066
815.256	26842
815.397	26796
815.539	26937
815.68	26758
815.821	26724
815.962	26785
816.103	26834
816.244	26629
816.385	26556
816.526	26560
816.666	26317
816.807	26195
816.948	26488
817.089	26480
817.23	26343
817.371	26176
817.512	26081
817.653	26282
817.793	26282
817.934	26248
818.075	26298
818.216	26202
818.356	26259
818.497	26122
818.638	26008
818.778	25913
818.919	26065
819.06	26176
819.2	26062
819.341	26374
819.481	26210
819.622	26492
819.762	26495
819.903	26465
820.043	26473
820.184	26355
820.324	26317
820.465	26552
820.605	26389
820.746	26465
820.886	26267
821.026	26339
821.167	26263
821.307	26168
821.447	26275
821.588	26339
821.728	26145
821.868	25947
822.008	25860
822.149	25674
822.289	25674
822.429	25479
822.569	25381
822.709	25483
822.849	25285
822.99	25324
823.13	25259
823.27	25194
823.41	25008
823.55	24966
823.69	25076
823.83	25110
823.97	24996
824.11	24962
824.25	24795
824.389	24973
824.529	24795
824.669	24928
824.809	24947
824.949	25008
825.089	24970
825.228	24970
825.368	24700
825.508	24814
825.648	24738
825.787	24810
825.927	24806
826.067	24719
826.206	24814
826.346	24829
826.485	24897
826.625	24753
826.765	24817
826.904	24730
827.044	24597
827.183	24403
827.323	24403
827.462	24574
827.601	24467
827.741	24399
827.88	24551
828.02	24376
828.159	24403
828.298	24471
828.437	24521
828.577	24380
828.716	24479
828.855	24399
828.994	24110
829.134	24213
829.273	24095
829.412	24148
829.551	24205
829.69	24163
829.829	24136
829.968	24190
830.107	24235
830.246	24087
830.385	24091
830.524	24114
830.663	24034
830.802	23931
830.941	23779
831.08	23843
831.219	23958
831.357	23942
831.496	23980
831.635	23771
831.774	23649
831.913	23775
832.051	23520
832.19	23577
832.329	23608
832.467	23474
832.606	23368
832.744	23425
832.883	23383
833.022	23379
833.16	23558
833.299	23402
833.437	23566
833.576	23573
833.714	23524
833.852	23611
833.991	23543
834.129	23661
834.267	23710
834.406	23520
834.544	23512
834.682	23524
834.821	23691
834.959	23790
835.097	23528
835.235	23501
835.373	23570
835.511	23459
835.65	23315
835.788	23303
835.926	23208
836.064	23258
836.202	23197
836.34	23440
836.478	23490
836.615	23337
836.753	23383
836.891	23512
837.029	23269
837.167	23395
837.305	23398
837.443	23345
837.58	23292
837.718	23315
837.856	23303
837.993	23246
838.131	23311
838.269	23075
838.406	23151
838.544	23132
838.681	22965
838.819	22854
838.956	22809
839.094	22687
839.231	22809
839.369	22816
839.506	23098
839.643	22987
839.781	22637
839.918	22645
840.055	22713
840.193	22672
840.33	22630
840.467	22668
840.604	22759
840.742	22911
840.879	22481
841.016	22645
841.153	22519
841.29	22710
841.427	22645
841.564	22675
841.701	22672
841.838	22561
841.975	22478
842.112	22569
842.249	22519
842.385	22436
842.522	22729
842.659	22599
842.796	22371
842.933	22531
843.069	22402
843.206	22314
843.343	22516
843.479	22398
843.616	22436
843.752	22181
843.889	22318
844.025	22329
844.162	22181
844.298	22348
844.435	22204
844.571	22147
844.708	22261
844.844	22329
844.98	22223
845.117	22268
845.253	22177
845.389	22097
845.525	22162
845.661	22048
845.798	21876
845.934	22044
846.07	21892
846.206	21994
846.342	22090
846.478	21816
846.614	21793
846.75	21637
846.886	21595
847.022	21694
847.158	21637
847.294	21701
847.429	21781
847.565	21618
847.701	21835
847.837	21370
847.972	21348
848.108	21641
848.244	21408
848.379	21378
848.515	21287
848.65	21310
848.786	21256
848.921	21256
849.057	21367
849.192	21359
849.328	21283
849.463	21279
849.598	21112
849.734	21074
849.869	21138
850.004	20975
850.14	20956
850.275	20982
850.41	20906
850.545	20975
850.68	21024
850.815	21020
850.95	21001
851.085	21165
851.22	21157
851.355	21017
851.49	20937
851.625	20933
851.76	20883
851.895	20975
852.03	20933
852.165	21009
852.299	21051
852.434	20994
852.569	21081
852.703	20963
852.838	21051
852.973	21039
853.107	21173
853.242	20941
853.376	20868
853.511	20697
853.645	20895
853.78	21013
853.914	20902
854.048	20815
854.183	20872
854.317	20990
854.451	21058
854.585	20952
854.72	20777
854.854	20899
854.988	20838
855.122	20811
855.256	20724
855.39	20868
855.524	21001
855.658	20868
855.792	20785
855.926	20880
856.06	20834
856.194	20902
856.327	20861
856.461	20724
856.595	20765
856.729	20716
856.862	20956
856.996	20910
857.13	20861
857.263	20887
857.397	20895
857.53	20929
857.664	20838
857.797	20891
857.931	20864
858.064	20994
858.197	20925
858.331	20853
858.464	20773
858.597	20883
858.731	20868
858.864	20765
858.997	20830
859.13	20800
859.263	20785
859.396	20842
859.529	20800
859.662	20853
859.795	20811
859.928	20834
860.061	20929
860.194	21066
860.327	20914
860.46	20895
860.592	20906
860.725	21089
860.858	21009
860.99	20918
861.123	20804
861.256	20667
861.388	20887
861.521	21439
861.653	20697
861.786	20629
861.918	20716
862.05	20769
862.183	20765
862.315	20800
862.447	20769
862.58	20792
862.712	20545
862.844	20530
862.976	20621
863.108	20568
863.24	21051
863.372	20492
863.504	20476
863.636	20560
863.768	20568
863.9	20682
864.032	20473
864.164	20511
864.296	20636
864.428	20701
864.559	20663
864.691	20705
864.823	20568
864.954	20450
865.086	20476
865.217	20419
865.349	20320
865.48	20355
865.612	20499
865.743	20594
865.875	20438
866.006	20484
866.137	20434
866.269	20533
866.4	20484
866.531	20488
866.662	20355
866.793	20370
866.924	20461
867.055	20396
867.186	20362
867.317	20389
867.448	20210
867.579	20305
867.71	20294
867.841	20294
867.972	20412
868.103	20362
868.233	20370
868.364	20400
868.495	20446
868.625	20617
868.756	20735
868.886	20488
869.017	20606
869.147	20765
869.278	20693
869.408	20583
869.539	20644
869.669	20758
869.799	20636
869.929	20864
870.06	20731
870.19	20963
870.32	20868
870.45	21032
870.58	21051
870.71	21096
870.84	21241
870.97	20982
871.1	21055
871.23	21218
871.36	21135
871.489	21165
871.619	21169
871.749	21272
871.879	21275
872.008	21439
872.138	21245
872.267	21214
872.397	21135
872.526	21089
872.656	21161
872.785	21127
872.915	21359
873.044	21279
873.173	21268
873.303	21211
873.432	21374
873.561	21264
873.69	21325
873.819	21192
873.948	21275
874.077	21397
874.206	21169
874.335	21386
874.464	21291
874.593	21443
874.722	21466
874.851	21583
874.979	21469
875.108	21713
875.237	21500
875.365	21416
875.494	21462
875.623	21717
875.751	21462
875.88	21458
876.008	21728
876.136	21667
876.265	21823
876.393	22162
876.521	21991
876.65	22074
876.778	21926
876.906	21850
877.034	21831
877.162	21774
877.29	21774
877.418	21869
877.546	21812
877.674	21915
877.802	21892
877.93	21816
878.058	21880
878.185	21720
878.313	21766
878.441	21922
878.568	21728
878.696	21694
878.824	21861
878.951	21884
879.079	22032
879.206	22124
879.333	21949
879.461	21797
879.588	22059
879.715	22067
879.842	22105
879.97	21888
880.097	21713
880.224	21583
880.351	21690
880.478	21599
880.605	21656
880.732	21698
880.859	21846
880.986	21603
881.112	21641
881.239	21690
881.366	21374
881.493	21382
881.619	21169
881.746	21340
881.872	21275
881.999	21127
882.125	21169
882.252	21412
882.378	21176
882.505	21321
882.631	21173
882.757	20998
882.883	20914
883.01	20914
883.136	20963
883.262	20899
883.388	20960
883.514	20929
883.64	20971
883.766	20929
883.892	20785
884.018	20720
884.143	20849
884.269	21009
884.395	20727
884.52	20670
884.646	20613
884.772	20533
884.897	20488
885.023	20526
885.148	20678
885.274	20777
885.399	20792
885.524	20663
885.65	20651
885.775	20632
885.9	20613
886.025	20724
886.15	20613
886.275	20590
886.4	20590
886.525	20697
886.65	20465
886.775	20606
886.9	20754
887.025	20796
887.149	20617
887.274	20377
887.399	20393
887.523	20408
887.648	20419
887.773	20362
887.897	20526
888.021	20492
888.146	20229
888.27	20587
888.395	20530
888.519	20488
888.643	20518
888.767	20454
888.891	20339
889.015	20244
889.139	20252
889.263	20183
889.387	20332
889.511	20423
889.635	20275
889.759	20240
889.883	20119
890.006	20183
890.13	20317
890.254	20115
890.377	20096
890.501	19974
890.624	20111
890.748	20088
890.871	19791
890.995	19712
891.118	19746
891.241	19788
891.364	19795
891.488	20027
891.611	19780
891.734	19951
891.857	19906
891.98	19894
892.103	19875
892.226	19860
892.349	19734
892.471	19639
892.594	19666
892.717	19750
892.839	19795
892.962	19662
893.085	19742
893.207	19742
893.33	19635
893.452	19681
893.575	19822
893.697	19700
893.819	19776
893.941	19944
894.064	19906
894.186	19643
894.308	19666
894.43	19917
894.552	19887
894.674	19769
894.796	19537
894.918	19818
895.04	19685
895.161	19830
895.283	19837
895.405	19685
895.526	19685
895.648	19772
895.769	19723
895.891	19723
896.012	19807
896.134	19795
896.255	19822
896.376	19670
896.498	19635
896.619	19742
896.74	19731
896.861	19788
896.982	19993
897.103	20111
897.224	19986
897.345	20005
897.466	19875
897.587	19837
897.708	19997
897.828	19989
897.949	19963
898.07	19772
898.19	19868
898.311	19997
898.431	19864
898.552	20005
898.672	20062
898.792	20035
898.913	20039
899.033	19845
899.153	19719
899.273	19681
899.393	19674
899.513	19746
899.633	19753
899.753	19727
899.873	19666
899.993	19719
900.113	19727
900.232	19620
900.352	19590
900.472	19601
900.591	19415
900.711	19540
900.83	19521
900.95	19499
901.069	19624
901.189	19441
901.308	19168
901.427	19057
901.546	19057
901.665	19099
901.784	18958
901.904	18852
902.023	18905
902.141	18684
902.26	18570
902.379	18684
902.498	18722
902.617	18437
902.735	18574
902.854	18593
902.973	18604
903.091	18300
903.21	18228
903.328	18270
903.446	18224
903.565	18114
903.683	18068
903.801	18091
903.919	18038
904.038	17893
904.156	17908
904.274	17882
904.392	17684
904.51	17912
904.627	17882
904.745	17908
904.863	17821
904.981	17672
905.098	17577
905.216	17448
905.334	17512
905.451	17535
905.569	17573
905.686	17547
905.803	17562
905.921	17322
906.038	17463
906.155	17368
906.272	17254
906.389	17284
906.506	17121
906.623	17033
906.74	17067
906.857	17018
906.974	16942
907.091	17083
907.208	17273
907.324	17117
907.441	16904
907.557	16854
907.674	16752
907.79	16694
907.907	16793
908.023	16812
908.139	16752
908.256	16805
908.372	16653
908.488	16607
908.604	16561
908.72	16402
908.836	16523
908.952	16497
909.068	16489
909.184	16512
909.3	16478
909.415	16569
909.531	16455
909.647	16192
909.762	16303
909.878	16215
909.993	16265
910.108	16120
910.224	16169
910.339	16131
910.454	16109
910.57	16093
910.685	15922
910.8	16287
910.915	16196
911.03	15956
911.145	15899
911.259	15793
911.374	15823
911.489	15751
911.604	15633
911.718	15538
911.833	15500
911.947	15401
912.062	15458
912.176	15614
912.291	15507
912.405	15610
912.519	15793
912.633	15762
912.748	15629
912.862	15637
912.976	15370
913.09	15321
913.204	15382
913.318	15507
913.431	15504
913.545	15557
913.659	15378
913.772	15302
913.886	15157
914	15188
914.113	15272
914.226	15192
914.34	15192
914.453	14975
914.566	15203
914.68	14982
914.793	14956
914.906	14804
915.019	14849
915.132	14796
915.245	14823
915.358	14758
915.47	14762
915.583	14754
915.696	14777
915.809	14952
915.921	14826
916.034	14750
916.146	14765
916.259	14674
916.371	14796
916.483	14758
916.595	14735
916.708	14617
916.82	14564
916.932	14682
917.044	14560
917.156	14598
917.268	14480
917.38	14495
917.491	14412
917.603	14434
917.715	14606
917.826	14568
917.938	14473
918.049	14290
918.161	14507
918.272	14590
918.384	14507
918.495	14495
918.606	14275
918.717	14218
918.828	14218
918.939	14278
919.05	14199
919.161	14256
919.272	13997
919.383	14134
919.494	14248
919.604	14423
919.715	14210
919.826	14191
919.936	14164
920.047	14218
920.157	14168
920.267	14339
920.378	14142
920.488	14229
920.598	14461
920.708	14446
920.818	14298
920.928	14385
921.038	14438
921.148	14431
921.258	14172
921.368	14081
921.477	14024
921.587	13955
921.697	13852
921.806	13947
921.916	13765
922.025	13620
922.134	13578
922.244	13597
922.353	13658
922.462	13491
922.571	13449
922.68	13324
922.789	13263
922.898	13221
923.007	13263
923.116	13327
923.224	13236
923.333	13194
923.442	13061
923.55	13072
923.659	12996
923.767	13152
923.876	13012
923.984	13042
924.092	12935
924.201	13008
924.309	13034
924.417	12977
924.525	12951
924.633	12981
924.741	13879
924.849	12741
924.956	12814
925.064	12616
925.172	12662
925.279	12707
925.387	12722
925.494	12711
925.602	12844
925.709	12696
925.816	12688
925.924	12483
926.031	12700
926.138	12631
926.245	12711
926.352	12601
926.459	12608
926.566	12631
926.673	12528
926.779	12445
926.886	12399
926.993	12228
927.099	12289
927.206	12296
927.312	12228
927.419	12213
927.525	12224
927.631	12334
927.737	12133
927.843	12068
927.95	11999
928.056	12079
928.162	12098
928.267	12072
928.373	12795
928.479	12079
928.585	11893
928.69	12068
928.796	11992
928.901	11866
929.007	11840
929.112	11969
929.218	11912
929.323	11794
929.428	11752
929.533	11958
929.638	11771
929.743	11786
929.848	11745
929.953	11707
930.058	11627
930.163	11490
930.267	11532
930.372	11672
930.477	11448
930.581	11649
930.685	11497
930.79	11444
930.894	11417
930.998	11360
931.103	11482
931.207	11140
931.311	11060
931.415	11045
931.519	10759
931.623	10805
