Data from test_V78500241_2963.txt Node
Date: Fri Mar 25 15:30:29 CST 2022
User: usil
Spectrometer: V785-0024
Trigger mode: 0
Integration Time (sec): 4.000000E-1
Scans to average: 1
Nonlinearity correction enabled: false
Boxcar width: 0
Storing dark spectrum: false
XAxis mode: Wavelengths
Number of Pixels in Spectrum: 1024
>>>>>Begin Spectral Data<<<<<
801.071	26971
801.214	26960
801.356	26781
801.499	26777
801.641	26568
801.783	26511
801.926	26606
802.068	26377
802.211	26575
802.353	26358
802.496	26263
802.638	26172
802.78	26119
802.923	26062
803.065	26092
803.208	26043
803.35	26126
803.492	26233
803.635	26488
803.777	26103
803.919	26298
804.061	26701
804.204	26473
804.346	26320
804.488	26214
804.63	26256
804.773	26187
804.915	26294
805.057	26442
805.199	26282
805.341	26305
805.483	26530
805.626	26499
805.768	26347
805.91	26492
806.052	26465
806.194	26412
806.336	26541
806.478	26438
806.62	26393
806.762	26473
806.904	26541
807.046	26830
807.188	26773
807.33	26880
807.472	26876
807.614	26785
807.756	26804
807.898	26598
808.04	26606
808.182	26625
808.324	26674
808.465	26743
808.607	26872
808.749	27093
808.891	27104
809.033	27135
809.174	27051
809.316	26990
809.458	26994
809.6	26948
809.741	26948
809.883	27077
810.025	27321
810.166	27237
810.308	27329
810.45	27294
810.591	27272
810.733	27001
810.875	26925
811.016	26933
811.158	26963
811.299	27157
811.441	27135
811.582	27214
811.724	27024
811.865	26952
812.007	26948
812.148	26899
812.29	26994
812.431	27272
812.573	27279
812.714	27412
812.855	27443
812.997	27507
813.138	27603
813.279	27633
813.421	27580
813.562	27447
813.703	27336
813.845	27184
813.986	26910
814.127	26697
814.268	26587
814.41	26594
814.551	26613
814.692	26777
814.833	26408
814.974	26583
815.115	26724
815.256	26530
815.397	26377
815.539	26522
815.68	26453
815.821	26317
815.962	26434
816.103	26412
816.244	26237
816.385	26168
816.526	26202
816.666	25951
816.807	25932
816.948	25898
817.089	25989
817.23	25982
817.371	25875
817.512	25883
817.653	25887
817.793	25921
817.934	25833
818.075	25966
818.216	25894
818.356	25708
818.497	25875
818.638	25590
818.778	25624
818.919	25647
819.06	25674
819.2	25769
819.341	25833
819.481	25708
819.622	25887
819.762	26142
819.903	26282
820.043	26103
820.184	25970
820.324	25986
820.465	26161
820.605	26046
820.746	25894
820.886	25856
821.026	25830
821.167	25925
821.307	25909
821.447	25894
821.588	25841
821.728	25742
821.868	25468
822.008	25464
822.149	25278
822.289	25274
822.429	25038
822.569	24951
822.709	24981
822.849	24973
822.99	24734
823.13	24772
823.27	24730
823.41	24574
823.55	24608
823.69	24612
823.83	24612
823.97	24673
824.11	24471
824.25	24327
824.389	24494
824.529	24589
824.669	24467
824.809	24498
824.949	24547
825.089	24486
825.228	24540
825.368	24330
825.508	24247
825.648	24327
825.787	24315
825.927	24414
826.067	24399
826.206	24243
826.346	24334
826.485	24395
826.625	24292
826.765	24391
826.904	24471
827.044	24015
827.183	24064
827.323	24011
827.462	24190
827.601	23977
827.741	23901
827.88	24102
828.02	24022
828.159	23973
828.298	24041
828.437	24117
828.577	23923
828.716	24083
828.855	23828
828.994	23707
829.134	23901
829.273	23695
829.412	23718
829.551	23630
829.69	23592
829.829	23828
829.968	23840
830.107	23824
830.246	23722
830.385	23661
830.524	23687
830.663	23627
830.802	23474
830.941	23368
831.08	23368
831.219	23341
831.357	23425
831.496	23630
831.635	23360
831.774	23315
831.913	23239
832.051	23178
832.19	23094
832.329	23170
832.467	23044
832.606	22934
832.744	22946
832.883	22999
833.022	23140
833.16	22938
833.299	23060
833.437	23094
833.576	23048
833.714	23140
833.852	23147
833.991	23162
834.129	23204
834.267	23189
834.406	23098
834.544	23136
834.682	23105
834.821	22991
834.959	23181
835.097	22877
835.235	23079
835.373	23025
835.511	23006
835.65	23029
835.788	22889
835.926	22885
836.064	22934
836.202	22660
836.34	22949
836.478	22991
836.615	22987
836.753	22984
836.891	22984
837.029	23014
837.167	22752
837.305	22862
837.443	22869
837.58	22771
837.718	22809
837.856	22816
837.993	22782
838.131	22854
838.269	22653
838.406	22668
838.544	22489
838.681	22478
838.819	22478
838.956	22147
839.094	22295
839.231	22150
839.369	22493
839.506	22599
839.643	22470
839.781	22257
839.918	22093
840.055	22207
840.193	22177
840.33	22124
840.467	22135
840.604	22284
840.742	22424
840.879	22112
841.016	22249
841.153	22090
841.29	22314
841.427	22082
841.564	22211
841.701	22143
841.838	22048
841.975	22135
842.112	22078
842.249	22051
842.385	22070
842.522	22226
842.659	22021
842.796	22059
842.933	21857
843.069	21945
843.206	21987
843.343	21949
843.479	21983
843.616	21888
843.752	21701
843.889	21766
844.025	21819
844.162	21648
844.298	21751
844.435	21599
844.571	21675
844.708	21781
844.844	21861
844.98	21838
845.117	21701
845.253	21667
845.389	21576
845.525	21591
845.661	21644
845.798	21466
845.934	21534
846.07	21492
846.206	21401
846.342	21610
846.478	21450
846.614	21291
846.75	21150
846.886	21161
847.022	21313
847.158	21260
847.294	21233
847.429	21165
847.565	21214
847.701	21416
847.837	21009
847.972	20872
848.108	20998
848.244	21131
848.379	20872
848.515	20929
848.65	20811
848.786	20765
848.921	20777
849.057	20910
849.192	20941
849.328	20937
849.463	20880
849.598	20651
849.734	20754
849.869	20720
850.004	20663
850.14	20651
850.275	20560
850.41	20419
850.545	20530
850.68	20366
850.815	20568
850.95	20587
851.085	20804
851.22	20667
851.355	20552
851.49	20545
851.625	20545
851.76	20457
851.895	20393
852.03	20412
852.165	20518
852.299	20636
852.434	20636
852.569	20587
852.703	20495
852.838	20617
852.973	20762
853.107	20701
853.242	20613
853.376	20343
853.511	20145
853.645	20389
853.78	20492
853.914	20355
854.048	20305
854.183	20393
854.317	20385
854.451	20480
854.585	20381
854.72	20431
854.854	20450
854.988	20404
855.122	20381
855.256	20259
855.39	20362
855.524	20480
855.658	20484
855.792	20415
855.926	20347
856.06	20537
856.194	20423
856.327	20385
856.461	20309
856.595	20286
856.729	20313
856.862	20442
856.996	20400
857.13	20381
857.263	20427
857.397	20454
857.53	20431
857.664	20389
857.797	20469
857.931	20522
858.064	20298
858.197	20530
858.331	20381
858.464	20358
858.597	20145
858.731	20374
858.864	20355
858.997	20362
859.13	20324
859.263	20404
859.396	20423
859.529	20332
859.662	20355
859.795	20370
859.928	20404
860.061	20579
860.194	20606
860.327	20476
860.46	20454
860.592	20571
860.725	20678
860.858	20488
860.99	20366
861.123	20320
861.256	20298
861.388	20244
861.521	21001
861.653	20187
861.786	20138
861.918	20225
862.05	20267
862.183	20218
862.315	20282
862.447	20339
862.58	20309
862.712	20008
862.844	20008
862.976	20256
863.108	20088
863.24	20533
863.372	20183
863.504	20073
863.636	20126
863.768	20187
863.9	20069
864.032	19951
864.164	20172
864.296	20027
864.428	20161
864.559	20202
864.691	20138
864.823	20164
864.954	20016
865.086	20096
865.217	20103
865.349	19898
865.48	19989
865.612	19947
865.743	20069
865.875	19967
866.006	20043
866.137	19932
866.269	20058
866.4	19913
866.531	19967
866.662	19963
866.793	19947
866.924	19951
867.055	19997
867.186	19982
867.317	19875
867.448	19852
867.579	20012
867.71	19963
867.841	19856
867.972	19879
868.103	19883
868.233	19993
868.364	19902
868.495	20058
868.625	20149
868.756	20199
868.886	20046
869.017	20214
869.147	20210
869.278	20298
869.408	20180
869.539	20244
869.669	20218
869.799	20229
869.929	20225
870.06	20191
870.19	20537
870.32	20514
870.45	20556
870.58	20575
870.71	20674
870.84	20750
870.97	20480
871.1	20560
871.23	20781
871.36	20731
871.489	20663
871.619	20788
871.749	20724
871.879	20815
872.008	20796
872.138	20739
872.267	20937
872.397	20735
872.526	20503
872.656	20518
872.785	20701
872.915	20819
873.044	20861
873.173	20765
873.303	20921
873.432	20762
873.561	20861
873.69	20864
873.819	20918
873.948	20853
874.077	20754
874.206	20769
874.335	20727
874.464	20853
874.593	20994
874.722	20956
874.851	21001
874.979	21077
875.108	21074
875.237	21058
875.365	20941
875.494	21017
875.623	21188
875.751	21074
875.88	21028
876.008	21226
876.136	21291
876.265	21549
876.393	21469
876.521	21526
876.65	21523
876.778	21481
876.906	21275
877.034	21386
877.162	21450
877.29	21325
877.418	21431
877.546	21325
877.674	21275
877.802	21416
877.93	21416
878.058	21359
878.185	21283
878.313	21329
878.441	21310
878.568	21340
878.696	21367
878.824	21443
878.951	21473
879.079	21671
879.206	21675
879.333	21450
879.461	21473
879.588	21477
879.715	21572
879.842	21671
879.97	21454
880.097	21249
880.224	21214
880.351	21176
880.478	21294
880.605	21089
880.732	21256
880.859	21485
880.986	21226
881.112	21245
881.239	21089
881.366	20994
881.493	20990
881.619	20853
881.746	20857
881.872	20864
881.999	20689
882.125	20758
882.252	20902
882.378	20735
882.505	20998
882.631	20621
882.757	20579
882.883	20617
883.01	20480
883.136	20450
883.262	20385
883.388	20305
883.514	20560
883.64	20621
883.766	20434
883.892	20385
884.018	20339
884.143	20568
884.269	20507
884.395	20161
884.52	20119
884.646	20267
884.772	19970
884.897	20027
885.023	20218
885.148	20199
885.274	20267
885.399	20248
885.524	20138
885.65	20077
885.775	20244
885.9	20168
886.025	20278
886.15	20187
886.275	20164
886.4	20092
886.525	20103
886.65	20153
886.775	20073
886.9	20180
887.025	20347
887.149	20199
887.274	19978
887.399	20024
887.523	19989
887.648	19913
887.773	20016
887.897	19890
888.021	19951
888.146	19906
888.27	20043
888.395	19974
888.519	20031
888.643	20046
888.767	20046
888.891	19837
889.015	19693
889.139	19887
889.263	19685
889.387	19894
889.511	19947
889.635	19803
889.759	19662
889.883	19738
890.006	19799
890.13	19909
890.254	19605
890.377	19601
890.501	19468
890.624	19563
890.748	19491
890.871	19499
890.995	19324
891.118	19369
891.241	19331
891.364	19400
891.488	19392
891.611	19339
891.734	19373
891.857	19373
891.98	19339
892.103	19331
892.226	19483
892.349	19358
892.471	19168
892.594	19274
892.717	19324
892.839	19225
892.962	19289
893.085	19320
893.207	19244
893.33	19084
893.452	19194
893.575	19365
893.697	19324
893.819	19449
893.941	19552
894.064	19441
894.186	19278
894.308	19244
894.43	19369
894.552	19381
894.674	19362
894.796	19099
894.918	19312
895.04	19110
895.161	19316
895.283	19312
895.405	19148
895.526	19278
895.648	19240
895.769	19312
895.891	19384
896.012	19339
896.134	19240
896.255	19316
896.376	19221
896.498	19289
896.619	19358
896.74	19244
896.861	19358
896.982	19575
897.103	19727
897.224	19506
897.345	19362
897.466	19445
897.587	19445
897.708	19609
897.828	19502
897.949	19556
898.07	19331
898.19	19415
898.311	19715
898.431	19419
898.552	19548
898.672	19601
898.792	19552
898.913	19582
899.033	19415
899.153	19251
899.273	19304
899.393	19377
899.513	19228
899.633	19346
899.753	19381
899.873	19114
899.993	19293
900.113	19190
900.232	19297
900.352	19209
900.472	19072
900.591	18916
900.711	19118
900.83	19050
900.95	19168
901.069	19110
901.189	19088
901.308	18738
901.427	18547
901.546	18650
901.665	18669
901.784	18623
901.904	18467
902.023	18467
902.141	18167
902.26	18292
902.379	18247
902.498	18254
902.617	18117
902.735	18304
902.854	18053
902.973	18163
903.091	17847
903.21	17813
903.328	17939
903.446	17764
903.565	17707
903.683	17707
903.801	17585
903.919	17695
904.038	17661
904.156	17425
904.274	17493
904.392	17429
904.51	17372
904.627	17554
904.745	17448
904.863	17551
904.981	17242
905.098	17151
905.216	17113
905.334	17235
905.451	17143
905.569	17159
905.686	17322
905.803	17079
905.921	16972
906.038	17003
906.155	16995
906.272	16828
906.389	16828
906.506	16603
906.623	16691
906.74	16573
906.857	16603
906.974	16497
907.091	16755
907.208	16733
907.324	16710
907.441	16489
907.557	16405
907.674	16478
907.79	16375
907.907	16329
908.023	16421
908.139	16379
908.256	16329
908.372	16325
908.488	16413
908.604	16071
908.72	16078
908.836	16124
908.952	16105
909.068	16158
909.184	16120
909.3	16147
909.415	16090
909.531	16078
909.647	15816
909.762	15865
909.878	15797
909.993	15819
910.108	15842
910.224	15762
910.339	15762
910.454	15629
910.57	15618
910.685	15561
910.8	15800
910.915	15835
911.03	15675
911.145	15519
911.259	15431
911.374	15447
911.489	15298
911.604	15245
911.718	15195
911.833	15203
911.947	15119
912.062	15081
912.176	15298
912.291	15256
912.405	15230
912.519	15412
912.633	15313
912.748	15199
912.862	15173
912.976	15051
913.09	14933
913.204	15028
913.318	15070
913.431	15051
913.545	15058
913.659	15043
913.772	14986
913.886	14769
914	14769
914.113	15001
914.226	14960
914.34	14838
914.453	14667
914.566	14804
914.68	14629
914.793	14590
914.906	14545
915.019	14530
915.132	14427
915.245	14415
915.358	14518
915.47	14495
915.583	14450
915.696	14404
915.809	14526
915.921	14613
916.034	14362
916.146	14370
916.259	14275
916.371	14495
916.483	14355
916.595	14271
916.708	14343
916.82	14313
916.932	14263
917.044	14267
917.156	14195
917.268	14157
917.38	14157
917.491	14111
917.603	14187
917.715	14199
917.826	14214
917.938	14126
918.049	13898
918.161	14084
918.272	14161
918.384	14157
918.495	14130
918.606	13936
918.717	13776
918.828	13890
918.939	13890
919.05	13925
919.161	13849
919.272	13731
919.383	13776
919.494	13932
919.604	14176
919.715	13940
919.826	13818
919.936	13837
920.047	13909
920.157	13883
920.267	14100
920.378	13963
920.488	13833
920.598	13974
920.708	14183
920.818	14001
920.928	14027
921.038	14202
921.148	14103
921.258	13791
921.368	13738
921.477	13639
921.587	13582
921.697	13499
921.806	13651
921.916	13525
922.025	13297
922.134	13213
922.244	13346
922.353	13426
922.462	13187
922.571	13015
922.68	12875
922.789	12954
922.898	12920
923.007	12852
923.116	12939
923.224	12996
923.333	12909
923.442	12795
923.55	12715
923.659	12791
923.767	12829
923.876	12662
923.984	12787
924.092	12642
924.201	12715
924.309	12662
924.417	12677
924.525	12578
924.633	12566
924.741	13373
924.849	12441
924.956	12616
925.064	12471
925.172	12361
925.279	12334
925.387	12346
925.494	12395
925.602	12528
925.709	12433
925.816	12205
925.924	12372
926.031	12357
926.138	12357
926.245	12365
926.352	12209
926.459	12391
926.566	12380
926.673	12311
926.779	12144
926.886	12175
926.993	12053
927.099	11942
927.206	11931
927.312	11904
927.419	12038
927.525	11912
927.631	11961
927.737	11908
927.843	11817
927.95	11642
928.056	11802
928.162	11855
928.267	11794
928.373	12452
928.479	11824
928.585	11581
928.69	11821
928.796	11836
928.901	11623
929.007	11471
929.112	11634
929.218	11619
929.323	11585
929.428	11509
929.533	11726
929.638	11463
929.743	11398
929.848	11581
929.953	11478
930.058	11391
930.163	11242
930.267	11250
930.372	11402
930.477	11277
930.581	11459
930.685	11318
930.79	11147
930.894	11094
930.998	11064
931.103	11246
931.207	10896
931.311	10862
931.415	10752
931.519	10546
931.623	10516
