Data from test_V78500241_2716.txt Node
Date: Fri Mar 25 15:28:46 CST 2022
User: usil
Spectrometer: V785-0024
Trigger mode: 0
Integration Time (sec): 4.000000E-1
Scans to average: 1
Nonlinearity correction enabled: false
Boxcar width: 0
Storing dark spectrum: false
XAxis mode: Wavelengths
Number of Pixels in Spectrum: 1024
>>>>>Begin Spectral Data<<<<<
801.071	27207
801.214	27199
801.356	26853
801.499	26807
801.641	26587
801.783	26663
801.926	26636
802.068	26739
802.211	26613
802.353	26617
802.496	26514
802.638	26347
802.78	26347
802.923	26142
803.065	26317
803.208	26244
803.35	26336
803.492	26377
803.635	26503
803.777	26442
803.919	26606
804.061	26727
804.204	26442
804.346	26404
804.488	26438
804.63	26518
804.773	26427
804.915	26579
805.057	26686
805.199	26377
805.341	26469
805.483	26606
805.626	26579
805.768	26457
805.91	26670
806.052	26606
806.194	26480
806.336	26716
806.478	26640
806.62	26750
806.762	26663
806.904	26804
807.046	27055
807.188	27013
807.33	27028
807.472	27001
807.614	27074
807.756	26994
807.898	26845
808.04	26762
808.182	26895
808.324	26819
808.465	26887
808.607	27062
808.749	27135
808.891	27298
809.033	27344
809.174	27317
809.316	27203
809.458	27294
809.6	27192
809.741	27348
809.883	27351
810.025	27686
810.166	27462
810.308	27439
810.45	27374
810.591	27420
810.733	27287
810.875	27180
811.016	27093
811.158	27135
811.299	27321
811.441	27462
811.582	27332
811.724	27264
811.865	27146
812.007	27245
812.148	27123
812.29	27226
812.431	27378
812.573	27427
812.714	27614
812.855	27572
812.997	27846
813.138	27918
813.279	27793
813.421	27759
813.562	27610
813.703	27401
813.845	27477
813.986	27062
814.127	26921
814.268	26838
814.41	26895
814.551	26701
814.692	26944
814.833	26842
814.974	26807
815.115	26777
815.256	26792
815.397	26754
815.539	26693
815.68	26617
815.821	26560
815.962	26640
816.103	26533
816.244	26404
816.385	26419
816.526	26404
816.666	26134
816.807	26062
816.948	26149
817.089	26210
817.23	26168
817.371	26202
817.512	26035
817.653	26122
817.793	26005
817.934	26084
818.075	26214
818.216	26191
818.356	26164
818.497	25978
818.638	25814
818.778	25769
818.919	25852
819.06	25837
819.2	25986
819.341	26111
819.481	26031
819.622	26195
819.762	26370
819.903	26377
820.043	26195
820.184	26225
820.324	26374
820.465	26218
820.605	26233
820.746	26191
820.886	26062
821.026	26256
821.167	26180
821.307	26221
821.447	26122
821.588	26073
821.728	25917
821.868	25689
822.008	25666
822.149	25597
822.289	25575
822.429	25438
822.569	25217
822.709	25183
822.849	25012
822.99	25008
823.13	24947
823.27	25042
823.41	24817
823.55	24760
823.69	24890
823.83	24935
823.97	24688
824.11	24665
824.25	24399
824.389	24612
824.529	24760
824.669	24639
824.809	24779
824.949	24810
825.089	24970
825.228	24635
825.368	24593
825.508	24616
825.648	24597
825.787	24669
825.927	24631
826.067	24559
826.206	24608
826.346	24566
826.485	24684
826.625	24677
826.765	24684
826.904	24494
827.044	24311
827.183	24243
827.323	24190
827.462	24262
827.601	24243
827.741	24277
827.88	24365
828.02	24239
828.159	24190
828.298	24361
828.437	24315
828.577	24171
828.716	24388
828.855	24136
828.994	24003
829.134	23969
829.273	24076
829.412	23939
829.551	23916
829.69	23950
829.829	23980
829.968	24041
830.107	24018
830.246	23889
830.385	23988
830.524	23885
830.663	23691
830.802	23729
830.941	23585
831.08	23459
831.219	23638
831.357	23718
831.496	23885
831.635	23558
831.774	23653
831.913	23345
832.051	23452
832.19	23372
832.329	23288
832.467	23261
832.606	23117
832.744	23174
832.883	23231
833.022	23265
833.16	23216
833.299	23299
833.437	23341
833.576	23277
833.714	23330
833.852	23368
833.991	23391
834.129	23421
834.267	23497
834.406	23337
834.544	23402
834.682	23208
834.821	23216
834.959	23512
835.097	23326
835.235	23402
835.373	23330
835.511	23318
835.65	23204
835.788	23181
835.926	23067
836.064	22862
836.202	22965
836.34	23261
836.478	23311
836.615	23277
836.753	23280
836.891	23315
837.029	23303
837.167	23075
837.305	23094
837.443	23041
837.58	22961
837.718	23003
837.856	22919
837.993	23109
838.131	23136
838.269	22889
838.406	22942
838.544	22919
838.681	22630
838.819	22740
838.956	22459
839.094	22409
839.231	22489
839.369	22565
839.506	22923
839.643	22801
839.781	22527
839.918	22542
840.055	22573
840.193	22561
840.33	22405
840.467	22390
840.604	22569
840.742	22782
840.879	22363
841.016	22504
841.153	22204
841.29	22443
841.427	22413
841.564	22474
841.701	22516
841.838	22375
841.975	22295
842.112	22417
842.249	22200
842.385	22242
842.522	22462
842.659	22291
842.796	22284
842.933	22112
843.069	22211
843.206	22177
843.343	22363
843.479	22268
843.616	22181
843.752	21987
843.889	21934
844.025	22074
844.162	21930
844.298	22128
844.435	21953
844.571	21911
844.708	21960
844.844	22070
844.98	22074
845.117	21968
845.253	21949
845.389	21701
845.525	21816
845.661	21895
845.798	21785
845.934	21892
846.07	21739
846.206	21660
846.342	21747
846.478	21663
846.614	21504
846.75	21397
846.886	21473
847.022	21530
847.158	21469
847.294	21401
847.429	21481
847.565	21458
847.701	21686
847.837	21135
847.972	21279
848.108	21291
848.244	21127
848.379	21116
848.515	20933
848.65	21047
848.786	21070
848.921	21131
849.057	21112
849.192	21127
849.328	21150
849.463	20914
849.598	20880
849.734	20815
849.869	20819
850.004	20785
850.14	20929
850.275	20754
850.41	20674
850.545	20735
850.68	20701
850.815	20807
850.95	20800
851.085	20986
851.22	20899
851.355	20944
851.49	20830
851.625	20731
851.76	20830
851.895	20689
852.03	20750
852.165	20765
852.299	20845
852.434	20937
852.569	20849
852.703	20800
852.838	20849
852.973	20929
853.107	20902
853.242	20670
853.376	20720
853.511	20514
853.645	20530
853.78	20651
853.914	20579
854.048	20552
854.183	20651
854.317	20716
854.451	20807
854.585	20648
854.72	20606
854.854	20758
854.988	20598
855.122	20632
855.256	20590
855.39	20705
855.524	20697
855.658	20670
855.792	20587
855.926	20571
856.06	20598
856.194	20594
856.327	20511
856.461	20575
856.595	20545
856.729	20598
856.862	20689
856.996	20606
857.13	20686
857.263	20804
857.397	20682
857.53	20514
857.664	20670
857.797	20663
857.931	20750
858.064	20716
858.197	20834
858.331	20556
858.464	20427
858.597	20549
858.731	20541
858.864	20659
858.997	20560
859.13	20739
859.263	20678
859.396	20716
859.529	20568
859.662	20602
859.795	20655
859.928	20522
860.061	20689
860.194	20682
860.327	20674
860.46	20667
860.592	20716
860.725	20769
860.858	20727
860.99	20651
861.123	20621
861.256	20507
861.388	20552
861.521	21104
861.653	20587
861.786	20400
861.918	20404
862.05	20659
862.183	20503
862.315	20625
862.447	20705
862.58	20552
862.712	20393
862.844	20263
862.976	20457
863.108	20412
863.24	20975
863.372	20263
863.504	20400
863.636	20298
863.768	20305
863.9	20233
864.032	20202
864.164	20362
864.296	20381
864.428	20473
864.559	20431
864.691	20355
864.823	20442
864.954	20305
865.086	20336
865.217	20282
865.349	20195
865.48	20278
865.612	20248
865.743	20423
865.875	20339
866.006	20195
866.137	20286
866.269	20153
866.4	20145
866.531	20263
866.662	20100
866.793	20172
866.924	20328
867.055	20157
867.186	20218
867.317	20218
867.448	20111
867.579	20138
867.71	20069
867.841	20191
867.972	20199
868.103	20229
868.233	20206
868.364	20119
868.495	20256
868.625	20332
868.756	20518
868.886	20438
869.017	20389
869.147	20514
869.278	20583
869.408	20480
869.539	20454
869.669	20594
869.799	20457
869.929	20469
870.06	20552
870.19	20674
870.32	20762
870.45	20712
870.58	20826
870.71	20937
870.84	20948
870.97	20720
871.1	20830
871.23	20952
871.36	20925
871.489	20944
871.619	20944
871.749	21112
871.879	21036
872.008	21123
872.138	20986
872.267	20853
872.397	20842
872.526	20804
872.656	20769
872.785	20902
872.915	21074
873.044	21218
873.173	21066
873.303	21070
873.432	21005
873.561	21077
873.69	21074
873.819	21074
873.948	21176
874.077	21055
874.206	20880
874.335	21112
874.464	21108
874.593	21237
874.722	21173
874.851	21279
874.979	21325
875.108	21344
875.237	21173
875.365	21131
875.494	21264
875.623	21348
875.751	21317
875.88	21313
876.008	21511
876.136	21511
876.265	21682
876.393	21789
876.521	21709
876.65	21709
876.778	21641
876.906	21648
877.034	21713
877.162	21656
877.29	21561
877.418	21599
877.546	21701
877.674	21622
877.802	21572
877.93	21724
878.058	21603
878.185	21587
878.313	21523
878.441	21618
878.568	21511
878.696	21694
878.824	21709
878.951	21762
879.079	21766
879.206	21880
879.333	21705
879.461	21694
879.588	21720
879.715	21873
879.842	21899
879.97	21778
880.097	21526
880.224	21481
880.351	21526
880.478	21462
880.605	21416
880.732	21515
880.859	21713
880.986	21492
881.112	21473
881.239	21310
881.366	21214
881.493	21108
881.619	21135
881.746	21150
881.872	21066
881.999	21112
882.125	21070
882.252	21108
882.378	21100
882.505	21291
882.631	21009
882.757	20811
882.883	20925
883.01	20826
883.136	20655
883.262	20606
883.388	20606
883.514	20823
883.64	20781
883.766	20724
883.892	20526
884.018	20564
884.143	20750
884.269	20731
884.395	20560
884.52	20400
884.646	20442
884.772	20267
884.897	20355
885.023	20393
885.148	20556
885.274	20659
885.399	20454
885.524	20427
885.65	20396
885.775	20404
885.9	20290
886.025	20438
886.15	20332
886.275	20438
886.4	20408
886.525	20336
886.65	20290
886.775	20347
886.9	20617
887.025	20552
887.149	20476
887.274	20206
887.399	20050
887.523	20218
887.648	20164
887.773	20122
887.897	20183
888.021	20237
888.146	20088
888.27	20263
888.395	20332
888.519	20202
888.643	20256
888.767	20218
888.891	20187
889.015	19989
889.139	20012
889.263	19970
889.387	20073
889.511	20256
889.635	20214
889.759	19959
889.883	19955
890.006	20027
890.13	20058
890.254	20031
890.377	19993
890.501	19750
890.624	19738
890.748	19708
890.871	19685
890.995	19582
891.118	19426
891.241	19594
891.364	19563
891.488	19540
891.611	19499
891.734	19609
891.857	19670
891.98	19457
892.103	19632
892.226	19578
892.349	19529
892.471	19350
892.594	19487
892.717	19556
892.839	19502
892.962	19472
893.085	19605
893.207	19521
893.33	19365
893.452	19460
893.575	19449
893.697	19377
893.819	19540
893.941	19731
894.064	19814
894.186	19396
894.308	19514
894.43	19544
894.552	19674
894.674	19597
894.796	19449
894.918	19377
895.04	19563
895.161	19548
895.283	19605
895.405	19521
895.526	19499
895.648	19578
895.769	19571
895.891	19460
896.012	19552
896.134	19533
896.255	19460
896.376	19495
896.498	19483
896.619	19518
896.74	19476
896.861	19571
896.982	19788
897.103	19936
897.224	19852
897.345	19727
897.466	19769
897.587	19765
897.708	19811
897.828	19818
897.949	19700
898.07	19578
898.19	19635
898.311	19761
898.431	19616
898.552	19700
898.672	19769
898.792	19772
898.913	19693
899.033	19582
899.153	19514
899.273	19468
899.393	19438
899.513	19506
899.633	19525
899.753	19544
899.873	19483
899.993	19556
900.113	19453
900.232	19575
900.352	19419
900.472	19365
900.591	19217
900.711	19304
900.83	19202
900.95	19339
901.069	19358
901.189	19175
901.308	18954
901.427	18833
901.546	18966
901.665	18909
901.784	18837
901.904	18650
902.023	18688
902.141	18414
902.26	18437
902.379	18414
902.498	18486
902.617	18369
902.735	18471
902.854	18232
902.973	18353
903.091	18064
903.21	18110
903.328	18022
903.446	18026
903.565	17821
903.683	17882
903.801	17737
903.919	17771
904.038	17817
904.156	17707
904.274	17741
904.392	17627
904.51	17691
904.627	17581
904.745	17703
904.863	17707
904.981	17391
905.098	17349
905.216	17311
905.334	17341
905.451	17284
905.569	17315
905.686	17341
905.803	17334
905.921	17060
906.038	17235
906.155	17147
906.272	17064
906.389	16980
906.506	16862
906.623	16793
906.74	16797
906.857	16733
906.974	16786
907.091	16927
907.208	17006
907.324	16892
907.441	16820
907.557	16725
907.674	16603
907.79	16588
907.907	16504
908.023	16550
908.139	16603
908.256	16577
908.372	16386
908.488	16455
908.604	16348
908.72	16276
908.836	16341
908.952	16337
909.068	16421
909.184	16398
909.3	16287
909.415	16322
909.531	16242
909.647	16112
909.762	16048
909.878	15926
909.993	15994
910.108	16067
910.224	15991
910.339	16010
910.454	15983
910.57	15850
910.685	15819
910.8	15994
910.915	15915
911.03	15827
911.145	15637
911.259	15648
911.374	15652
911.489	15530
911.604	15515
911.718	15431
911.833	15374
911.947	15279
912.062	15294
912.176	15408
912.291	15279
912.405	15450
912.519	15542
912.633	15561
912.748	15435
912.862	15355
912.976	15199
913.09	15097
913.204	15116
913.318	15252
913.431	15237
913.545	15374
913.659	15226
913.772	15211
913.886	15013
914	15039
914.113	15119
914.226	15074
914.34	15112
914.453	14933
914.566	15001
914.68	14914
914.793	14815
914.906	14667
915.019	14598
915.132	14549
915.245	14625
915.358	14625
915.47	14663
915.583	14644
915.696	14765
915.809	14655
915.921	14754
916.034	14629
916.146	14556
916.259	14583
916.371	14636
916.483	14526
916.595	14442
916.708	14446
916.82	14454
916.932	14393
917.044	14404
917.156	14556
917.268	14336
917.38	14305
917.491	14248
917.603	14301
917.715	14419
917.826	14343
917.938	14267
918.049	14130
918.161	14309
918.272	14400
918.384	14309
918.495	14191
918.606	14115
918.717	13959
918.828	14069
918.939	14012
919.05	14050
919.161	14024
919.272	13856
919.383	13982
919.494	14096
919.604	14180
919.715	14058
919.826	13887
919.936	14043
920.047	14039
920.157	14073
920.267	14172
920.378	14088
920.488	14119
920.598	14176
920.708	14282
920.818	14191
920.928	14180
921.038	14442
921.148	14286
921.258	13982
921.368	13879
921.477	13818
921.587	13803
921.697	13643
921.806	13757
921.916	13613
922.025	13499
922.134	13491
922.244	13373
922.353	13556
922.462	13327
922.571	13213
922.68	13129
922.789	13046
922.898	13103
923.007	13023
923.116	13126
923.224	13042
923.333	13031
923.442	12905
923.55	12973
923.659	13008
923.767	12966
923.876	12954
923.984	12996
924.092	12833
924.201	12840
924.309	12859
924.417	12783
924.525	12783
924.633	12829
924.741	13662
924.849	12578
924.956	12654
925.064	12574
925.172	12475
925.279	12528
925.387	12604
925.494	12513
925.602	12703
925.709	12601
925.816	12498
925.924	12410
926.031	12700
926.138	12456
926.245	12513
926.352	12433
926.459	12506
926.566	12479
926.673	12429
926.779	12327
926.886	12262
926.993	12163
927.099	12247
927.206	12060
927.312	11992
927.419	12216
927.525	12083
927.631	12083
927.737	12019
927.843	11954
927.95	11840
928.056	11931
928.162	11958
928.267	12015
928.373	12494
928.479	12057
928.585	11767
928.69	11901
928.796	12038
928.901	11828
929.007	11695
929.112	11843
929.218	11752
929.323	11630
929.428	11649
929.533	11790
929.638	11608
929.743	11695
929.848	11703
929.953	11630
930.058	11562
930.163	11410
930.267	11395
930.372	11547
930.477	11398
930.581	11554
930.685	11387
930.79	11242
930.894	11337
930.998	11227
931.103	11372
931.207	11048
931.311	10927
931.415	10866
931.519	10691
931.623	10622
