Data from test_V78500241_1902.txt Node
Date: Fri Mar 25 15:23:05 CST 2022
User: usil
Spectrometer: V785-0024
Trigger mode: 0
Integration Time (sec): 4.000000E-1
Scans to average: 1
Nonlinearity correction enabled: false
Boxcar width: 0
Storing dark spectrum: false
XAxis mode: Wavelengths
Number of Pixels in Spectrum: 1024
>>>>>Begin Spectral Data<<<<<
801.071	27515
801.214	27439
801.356	27230
801.499	27184
801.641	27096
801.783	27108
801.926	27275
802.068	27070
802.211	26918
802.353	26956
802.496	26750
802.638	26655
802.78	26758
802.923	26663
803.065	26621
803.208	26754
803.35	26826
803.492	26674
803.635	26834
803.777	26853
803.919	26857
804.061	27188
804.204	27055
804.346	26876
804.488	26864
804.63	26644
804.773	26880
804.915	26963
805.057	26956
805.199	26708
805.341	26891
805.483	27100
805.626	27085
805.768	26906
805.91	26937
806.052	26975
806.194	26986
806.336	27207
806.478	27020
806.62	26861
806.762	27214
806.904	27176
807.046	27401
807.188	27412
807.33	27416
807.472	27367
807.614	27313
807.756	27553
807.898	27332
808.04	27332
808.182	27329
808.324	27291
808.465	27298
808.607	27386
808.749	27682
808.891	27671
809.033	27701
809.174	27762
809.316	27526
809.458	27526
809.6	27694
809.741	27682
809.883	27808
810.025	27884
810.166	27842
810.308	27899
810.45	27873
810.591	27766
810.733	27618
810.875	27477
811.016	27469
811.158	27580
811.299	27648
811.441	27629
811.582	27739
811.724	27622
811.865	27606
812.007	27618
812.148	27454
812.29	27720
812.431	27873
812.573	27869
812.714	28070
812.855	28257
812.997	28242
813.138	28310
813.279	28322
813.421	28120
813.562	28234
813.703	28032
813.845	27804
813.986	27576
814.127	27397
814.268	27298
814.41	27348
814.551	27226
814.692	27397
814.833	27161
814.974	27199
815.115	27268
815.256	27245
815.397	27214
815.539	27275
815.68	27024
815.821	26990
815.962	27070
816.103	27123
816.244	27039
816.385	26804
816.526	26842
816.666	26781
816.807	26625
816.948	26594
817.089	26659
817.23	26560
817.371	26552
817.512	26469
817.653	26533
817.793	26545
817.934	26579
818.075	26617
818.216	26549
818.356	26457
818.497	26328
818.638	26202
818.778	26431
818.919	26313
819.06	26370
819.2	26499
819.341	26613
819.481	26476
819.622	26693
819.762	26883
819.903	26891
820.043	26735
820.184	26655
820.324	26556
820.465	26667
820.605	26659
820.746	26724
820.886	26511
821.026	26667
821.167	26773
821.307	26655
821.447	26499
821.588	26503
821.728	26358
821.868	26332
822.008	26096
822.149	26065
822.289	26012
822.429	25936
822.569	25731
822.709	25582
822.849	25639
822.99	25681
823.13	25582
823.27	25472
823.41	25346
823.55	25278
823.69	25426
823.83	25415
823.97	25217
824.11	25148
824.25	25179
824.389	25190
824.529	25202
824.669	25221
824.809	25255
824.949	25251
825.089	25232
825.228	25122
825.368	25110
825.508	24989
825.648	25084
825.787	25019
825.927	25206
826.067	25046
826.206	25034
826.346	25031
826.485	25031
826.625	25023
826.765	25217
826.904	25084
827.044	24848
827.183	24734
827.323	24814
827.462	24707
827.601	24768
827.741	24681
827.88	24840
828.02	24570
828.159	24650
828.298	24787
828.437	24875
828.577	24856
828.716	24817
828.855	24601
828.994	24407
829.134	24593
829.273	24555
829.412	24623
829.551	24490
829.69	24570
829.829	24654
829.968	24570
830.107	24540
830.246	24452
830.385	24452
830.524	24369
830.663	24330
830.802	24262
830.941	24053
831.08	24155
831.219	24144
831.357	24197
831.496	24391
831.635	24007
831.774	24053
831.913	23969
832.051	23843
832.19	23999
832.329	23832
832.467	23855
832.606	23646
832.744	23821
832.883	23783
833.022	23714
833.16	23866
833.299	23790
833.437	23836
833.576	23874
833.714	23855
833.852	23908
833.991	23889
834.129	23813
834.267	23817
834.406	23885
834.544	23874
834.682	23946
834.821	23878
834.959	23882
835.097	23783
835.235	23958
835.373	23836
835.511	23779
835.65	23729
835.788	23691
835.926	23634
836.064	23505
836.202	23573
836.34	23699
836.478	23741
836.615	23627
836.753	23726
836.891	23809
837.029	23695
837.167	23630
837.305	23501
837.443	23611
837.58	23589
837.718	23611
837.856	23668
837.993	23455
838.131	23463
838.269	23417
838.406	23509
838.544	23356
838.681	23254
838.819	23185
838.956	23086
839.094	23044
839.231	23075
839.369	23155
839.506	23398
839.643	23341
839.781	23006
839.918	23090
840.055	23014
840.193	23003
840.33	23014
840.467	22927
840.604	23041
840.742	23086
840.879	22854
841.016	22923
841.153	22797
841.29	23025
841.427	22923
841.564	22930
841.701	23010
841.838	22911
841.975	22664
842.112	22816
842.249	22790
842.385	22725
842.522	22881
842.659	22748
842.796	22866
842.933	22596
843.069	22664
843.206	22675
843.343	22869
843.479	22786
843.616	22691
843.752	22500
843.889	22455
844.025	22580
844.162	22421
844.298	22470
844.435	22459
844.571	22481
844.708	22542
844.844	22535
844.98	22694
845.117	22580
845.253	22489
845.389	22348
845.525	22398
845.661	22310
845.798	22207
845.934	22299
846.07	22143
846.206	22280
846.342	22303
846.478	22116
846.614	22002
846.75	21759
846.886	21850
847.022	21941
847.158	21983
847.294	21907
847.429	21922
847.565	22010
847.701	22242
847.837	21720
847.972	21736
848.108	21759
848.244	21789
848.379	21595
848.515	21542
848.65	21405
848.786	21606
848.921	21618
849.057	21583
849.192	21591
849.328	21599
849.463	21538
849.598	21534
849.734	21511
849.869	21332
850.004	21230
850.14	21344
850.275	21260
850.41	21211
850.545	21279
850.68	21306
850.815	21279
850.95	21272
851.085	21408
851.22	21439
851.355	21355
851.49	21233
851.625	21226
851.76	21218
851.895	21214
852.03	21169
852.165	21214
852.299	21340
852.434	21397
852.569	21313
852.703	21260
852.838	21298
852.973	21382
853.107	21393
853.242	21355
853.376	21173
853.511	21058
853.645	21135
853.78	21283
853.914	21112
854.048	21112
854.183	21039
854.317	21192
854.451	21336
854.585	21009
854.72	21089
854.854	21180
854.988	21062
855.122	21058
855.256	20990
855.39	21154
855.524	21157
855.658	21096
855.792	21245
855.926	21165
856.06	21131
856.194	21157
856.327	21233
856.461	21047
856.595	21146
856.729	21218
856.862	21211
856.996	21176
857.13	21279
857.263	21245
857.397	21241
857.53	20971
857.664	21108
857.797	21211
857.931	21207
858.064	21176
858.197	21245
858.331	21077
858.464	21188
858.597	20929
858.731	21169
858.864	21085
858.997	21017
859.13	21142
859.263	21112
859.396	21119
859.529	21104
859.662	21077
859.795	21116
859.928	21020
860.061	21154
860.194	21249
860.327	21157
860.46	21135
860.592	21150
860.725	21211
860.858	21260
860.99	21283
861.123	21074
861.256	21058
861.388	20982
861.521	21869
861.653	21009
861.786	20937
861.918	20910
862.05	21024
862.183	21070
862.315	21096
862.447	21066
862.58	21043
862.712	20796
862.844	20788
862.976	20826
863.108	20933
863.24	21245
863.372	20788
863.504	20777
863.636	20819
863.768	20994
863.9	20918
864.032	20727
864.164	20849
864.296	20887
864.428	20948
864.559	20887
864.691	20925
864.823	20792
864.954	20686
865.086	20746
865.217	20785
865.349	20689
865.48	20678
865.612	20708
865.743	20944
865.875	20792
866.006	20648
866.137	20697
866.269	20689
866.4	20648
866.531	20560
866.662	20648
866.793	20629
866.924	20697
867.055	20674
867.186	20743
867.317	20621
867.448	20503
867.579	20609
867.71	20575
867.841	20530
867.972	20705
868.103	20689
868.233	20648
868.364	20758
868.495	20777
868.625	20933
868.756	20937
868.886	20727
869.017	20857
869.147	20929
869.278	21066
869.408	20880
869.539	20990
869.669	20933
869.799	20815
869.929	21157
870.06	21013
870.19	21237
870.32	21230
870.45	21306
870.58	21264
870.71	21462
870.84	21401
870.97	21317
871.1	21291
871.23	21587
871.36	21473
871.489	21435
871.619	21504
871.749	21416
871.879	21568
872.008	21724
872.138	21378
872.267	21469
872.397	21340
872.526	21340
872.656	21321
872.785	21245
872.915	21462
873.044	21568
873.173	21538
873.303	21557
873.432	21572
873.561	21641
873.69	21507
873.819	21462
873.948	21568
874.077	21431
874.206	21530
874.335	21504
874.464	21652
874.593	21759
874.722	21698
874.851	21732
874.979	21823
875.108	21854
875.237	21686
875.365	21667
875.494	21701
875.623	21759
875.751	21808
875.88	21755
876.008	21911
876.136	21934
876.265	22120
876.393	22207
876.521	22310
876.65	22147
876.778	22032
876.906	22105
877.034	22131
877.162	22086
877.29	22207
877.418	22238
877.546	22185
877.674	22032
877.802	22097
877.93	22036
878.058	22078
878.185	22013
878.313	21994
878.441	22067
878.568	21937
878.696	22010
878.824	22082
878.951	22219
879.079	22284
879.206	22348
879.333	22363
879.461	22021
879.588	22284
879.715	22310
879.842	22386
879.97	22200
880.097	21934
880.224	21987
880.351	21884
880.478	21892
880.605	22051
880.732	21987
880.859	22101
880.986	21941
881.112	22021
881.239	21781
881.366	21698
881.493	21614
881.619	21504
881.746	21587
881.872	21466
881.999	21519
882.125	21504
882.252	21530
882.378	21545
882.505	21618
882.631	21481
882.757	21310
882.883	21294
883.01	21138
883.136	21119
883.262	21100
883.388	21081
883.514	21165
883.64	21279
883.766	21138
883.892	20906
884.018	21093
884.143	21249
884.269	21214
884.395	20914
884.52	20868
884.646	20918
884.772	20724
884.897	20815
885.023	20876
885.148	20880
885.274	21032
885.399	20910
885.524	20864
885.65	20883
885.775	20971
885.9	20720
886.025	20906
886.15	20906
886.275	20853
886.4	20834
886.525	20914
886.65	20769
886.775	20796
886.9	20933
887.025	21055
887.149	20788
887.274	20697
887.399	20602
887.523	20648
887.648	20549
887.773	20473
887.897	20590
888.021	20598
888.146	20530
888.27	20735
888.395	20716
888.519	20663
888.643	20716
888.767	20670
888.891	20427
889.015	20381
889.139	20480
889.263	20393
889.387	20571
889.511	20678
889.635	20568
889.759	20423
889.883	20412
890.006	20556
890.13	20438
890.254	20313
890.377	20400
890.501	20278
890.624	20096
890.748	20263
890.871	20119
890.995	20008
891.118	19928
891.241	19993
891.364	19936
891.488	20084
891.611	20119
891.734	19963
891.857	20020
891.98	20005
892.103	20043
892.226	19852
892.349	19871
892.471	19826
892.594	19898
892.717	19811
892.839	19849
892.962	19913
893.085	19963
893.207	19925
893.33	19841
893.452	19841
893.575	19898
893.697	19833
893.819	20145
893.941	20111
894.064	20073
894.186	19841
894.308	19742
894.43	20012
894.552	19989
894.674	20050
894.796	19849
894.918	19833
895.04	19902
895.161	19993
895.283	19841
895.405	19860
895.526	19890
895.648	19795
895.769	19932
895.891	19936
896.012	19951
896.134	19928
896.255	19902
896.376	19776
896.498	19913
896.619	19898
896.74	19986
896.861	19978
896.982	20252
897.103	20282
897.224	20263
897.345	20153
897.466	20027
897.587	20115
897.708	20134
897.828	20142
897.949	20073
898.07	19921
898.19	19993
898.311	20210
898.431	20119
898.552	19993
898.672	20062
898.792	20126
898.913	20115
899.033	20027
899.153	20001
899.273	19837
899.393	19917
899.513	19947
899.633	19997
899.753	19898
899.873	19769
899.993	19830
900.113	19845
900.232	19807
900.352	19746
900.472	19715
900.591	19670
900.711	19715
900.83	19548
900.95	19708
901.069	19750
901.189	19563
901.308	19312
901.427	19285
901.546	19232
901.665	19266
901.784	19270
901.904	18966
902.023	19069
902.141	18837
902.26	18783
902.379	18814
902.498	18749
902.617	18707
902.735	18711
902.854	18681
902.973	18696
903.091	18506
903.21	18509
903.328	18380
903.446	18388
903.565	18251
903.683	18136
903.801	18049
903.919	18155
904.038	18182
904.156	17920
904.274	18083
904.392	18007
904.51	17859
904.627	17992
904.745	18026
904.863	18121
904.981	17847
905.098	17642
905.216	17551
905.334	17733
905.451	17676
905.569	17573
905.686	17771
905.803	17615
905.921	17345
906.038	17524
906.155	17444
906.272	17554
906.389	17334
906.506	17239
906.623	17254
906.74	17162
906.857	17102
906.974	17166
907.091	17220
907.208	17372
907.324	17235
907.441	17147
907.557	16946
907.674	16839
907.79	16854
907.907	16877
908.023	16927
908.139	16915
908.256	16889
908.372	16801
908.488	16748
908.604	16710
908.72	16641
908.836	16577
908.952	16569
909.068	16603
909.184	16733
909.3	16565
909.415	16721
909.531	16656
909.647	16447
909.762	16360
909.878	16409
909.993	16409
910.108	16303
910.224	16257
910.339	16291
910.454	16230
910.57	16242
910.685	16192
910.8	16398
910.915	16253
911.03	16017
911.145	16025
911.259	15880
911.374	15983
911.489	15994
911.604	15865
911.718	15656
911.833	15584
911.947	15561
912.062	15466
912.176	15629
912.291	15709
912.405	15690
912.519	15808
912.633	15846
912.748	15713
912.862	15633
912.976	15557
913.09	15466
913.204	15519
913.318	15504
913.431	15557
913.545	15549
913.659	15587
913.772	15523
913.886	15367
914	15260
914.113	15367
914.226	15386
914.34	15420
914.453	15214
914.566	15355
914.68	15138
914.793	15272
914.906	15005
915.019	14864
915.132	14849
915.245	14899
915.358	14910
915.47	14906
915.583	14998
915.696	14986
915.809	15055
915.921	15020
916.034	14857
916.146	14788
916.259	14785
916.371	14845
916.483	14853
916.595	14804
916.708	14785
916.82	14826
916.932	14739
917.044	14735
917.156	14769
917.268	14648
917.38	14655
917.491	14606
917.603	14606
917.715	14724
917.826	14636
917.938	14625
918.049	14431
918.161	14530
918.272	14590
918.384	14606
918.495	14610
918.606	14336
918.717	14240
918.828	14446
918.939	14393
919.05	14225
919.161	14328
919.272	14183
919.383	14259
919.494	14343
919.604	14533
919.715	14389
919.826	14214
919.936	14343
920.047	14385
920.157	14343
920.267	14495
920.378	14244
920.488	14317
920.598	14415
920.708	14598
920.818	14480
920.928	14412
921.038	14541
921.148	14469
921.258	14328
921.368	14157
921.477	14039
921.587	14035
921.697	13887
921.806	14016
921.916	13883
922.025	13704
922.134	13647
922.244	13700
922.353	13715
922.462	13613
922.571	13552
922.68	13422
922.789	13304
922.898	13263
923.007	13339
923.116	13327
923.224	13312
923.333	13335
923.442	13202
923.55	13240
923.659	13259
923.767	13240
923.876	13171
923.984	13141
924.092	13069
924.201	13103
924.309	13050
924.417	13038
924.525	13053
924.633	13042
924.741	13955
924.849	12779
924.956	12951
925.064	12764
925.172	12768
925.279	12871
925.387	12772
925.494	12787
925.602	12890
925.709	12791
925.816	12563
925.924	12677
926.031	12886
926.138	12662
926.245	12646
926.352	12719
926.459	12791
926.566	12757
926.673	12658
926.779	12506
926.886	12513
926.993	12410
927.099	12403
927.206	12289
927.312	12292
927.419	12334
927.525	12380
927.631	12460
927.737	12205
927.843	12213
927.95	11996
928.056	12121
928.162	12152
928.267	12205
928.373	12738
928.479	12285
928.585	12015
928.69	12095
928.796	12060
928.901	12068
929.007	11908
929.112	12095
929.218	11912
929.323	11920
929.428	11992
929.533	12083
929.638	11885
929.743	11878
929.848	11855
929.953	11828
930.058	11805
930.163	11516
930.267	11672
930.372	11745
930.477	11486
930.581	11760
930.685	11596
930.79	11497
930.894	11570
930.998	11436
931.103	11463
931.207	11174
931.311	11193
931.415	11010
931.519	10881
931.623	10885
