Data from test_V78500241_3008.txt Node
Date: Fri Mar 25 15:30:48 CST 2022
User: usil
Spectrometer: V785-0024
Trigger mode: 0
Integration Time (sec): 4.000000E-1
Scans to average: 1
Nonlinearity correction enabled: false
Boxcar width: 0
Storing dark spectrum: false
XAxis mode: Wavelengths
Number of Pixels in Spectrum: 1024
>>>>>Begin Spectral Data<<<<<
801.071	27199
801.214	27329
801.356	26937
801.499	26990
801.641	26899
801.783	26956
801.926	26868
802.068	26811
802.211	26735
802.353	26674
802.496	26606
802.638	26530
802.78	26412
802.923	26427
803.065	26248
803.208	26370
803.35	26564
803.492	26613
803.635	26587
803.777	26640
803.919	26568
804.061	26876
804.204	26758
804.346	26556
804.488	26556
804.63	26495
804.773	26427
804.915	26663
805.057	26697
805.199	26396
805.341	26674
805.483	26743
805.626	26746
805.768	26705
805.91	26720
806.052	26667
806.194	26518
806.336	26792
806.478	26598
806.62	26659
806.762	26975
806.904	26937
807.046	27275
807.188	27005
807.33	27051
807.472	27116
807.614	27017
807.756	27211
807.898	27020
808.04	26861
808.182	26895
808.324	27096
808.465	27127
808.607	27142
808.749	27161
808.891	27306
809.033	27378
809.174	27226
809.316	27374
809.458	27291
809.6	27332
809.741	27439
809.883	27424
810.025	27511
810.166	27526
810.308	27587
810.45	27473
810.591	27583
810.733	27237
810.875	27184
811.016	27207
811.158	27237
811.299	27450
811.441	27652
811.582	27485
811.724	27306
811.865	27291
812.007	27348
812.148	27306
812.29	27214
812.431	27397
812.573	27473
812.714	27618
812.855	27880
812.997	27869
813.138	28044
813.279	27964
813.421	27781
813.562	27774
813.703	27595
813.845	27481
813.986	27287
814.127	27135
814.268	27017
814.41	26929
814.551	26948
814.692	27100
814.833	26773
814.974	26929
815.115	26925
815.256	26769
815.397	26731
815.539	26864
815.68	26716
815.821	26651
815.962	26731
816.103	26682
816.244	26549
816.385	26507
816.526	26495
816.666	26309
816.807	26214
816.948	26412
817.089	26355
817.23	26271
817.371	26229
817.512	26271
817.653	26153
817.793	26035
817.934	26096
818.075	26145
818.216	26073
818.356	26206
818.497	26024
818.638	25974
818.778	25974
818.919	26020
819.06	26012
819.2	26187
819.341	26161
819.481	26191
819.622	26366
819.762	26705
819.903	26495
820.043	26339
820.184	26438
820.324	26259
820.465	26282
820.605	26210
820.746	26244
820.886	26012
821.026	26374
821.167	26332
821.307	26393
821.447	26126
821.588	26054
821.728	25993
821.868	25849
822.008	25658
822.149	25795
822.289	25525
822.429	25392
822.569	25343
822.709	25430
822.849	25053
822.99	25289
823.13	24932
823.27	25156
823.41	24992
823.55	24894
823.69	24958
823.83	24905
823.97	24871
824.11	24875
824.25	24768
824.389	24753
824.529	24878
824.669	24722
824.809	24890
824.949	24951
825.089	24810
825.228	24837
825.368	24593
825.508	24669
825.648	24760
825.787	24669
825.927	24741
826.067	24601
826.206	24688
826.346	24806
826.485	24798
826.625	24631
826.765	24734
826.904	24658
827.044	24456
827.183	24319
827.323	24399
827.462	24498
827.601	24429
827.741	24346
827.88	24380
828.02	24270
828.159	24251
828.298	24334
828.437	24384
828.577	24194
828.716	24509
828.855	24258
828.994	24030
829.134	24152
829.273	24095
829.412	24003
829.551	24011
829.69	24041
829.829	24232
829.968	24072
830.107	24201
830.246	23977
830.385	23942
830.524	23992
830.663	23859
830.802	23718
830.941	23729
831.08	23619
831.219	23805
831.357	23775
831.496	23965
831.635	23653
831.774	23459
831.913	23516
832.051	23440
832.19	23334
832.329	23433
832.467	23345
832.606	23227
832.744	23296
832.883	23280
833.022	23318
833.16	23421
833.299	23376
833.437	23269
833.576	23376
833.714	23353
833.852	23452
833.991	23303
834.129	23417
834.267	23459
834.406	23383
834.544	23330
834.682	23471
834.821	23353
834.959	23512
835.097	23258
835.235	23436
835.373	23372
835.511	23364
835.65	23303
835.788	23185
835.926	23117
836.064	23075
836.202	23090
836.34	23242
836.478	23280
836.615	23174
836.753	23208
836.891	23185
837.029	23273
837.167	23216
837.305	23067
837.443	23185
837.58	23113
837.718	23098
837.856	22946
837.993	23014
838.131	23033
838.269	22961
838.406	22972
838.544	22938
838.681	22641
838.819	22660
838.956	22641
839.094	22592
839.231	22573
839.369	22786
839.506	22873
839.643	22858
839.781	22634
839.918	22497
840.055	22451
840.193	22531
840.33	22500
840.467	22394
840.604	22577
840.742	22725
840.879	22322
841.016	22451
841.153	22409
841.29	22546
841.427	22432
841.564	22436
841.701	22481
841.838	22348
841.975	22413
842.112	22424
842.249	22386
842.385	22234
842.522	22474
842.659	22268
842.796	22261
842.933	22192
843.069	22109
843.206	22192
843.343	22223
843.479	22268
843.616	22268
843.752	22032
843.889	22010
844.025	22204
844.162	21972
844.298	22128
844.435	22078
844.571	21941
844.708	22177
844.844	22192
844.98	22120
845.117	22055
845.253	21960
845.389	21979
845.525	21941
845.661	21819
845.798	21846
845.934	21736
846.07	21701
846.206	21720
846.342	21831
846.478	21793
846.614	21488
846.75	21397
846.886	21504
847.022	21545
847.158	21538
847.294	21428
847.429	21633
847.565	21450
847.701	21762
847.837	21233
847.972	21169
848.108	21389
848.244	21317
848.379	21066
848.515	21005
848.65	21074
848.786	21043
848.921	21100
849.057	21184
849.192	21256
849.328	21135
849.463	21024
849.598	21062
849.734	20994
849.869	20842
850.004	20895
850.14	20800
850.275	20864
850.41	20796
850.545	20697
850.68	20746
850.815	20876
850.95	20796
851.085	21051
851.22	21047
851.355	20830
851.49	20769
851.625	20819
851.76	20891
851.895	20804
852.03	20823
852.165	20845
852.299	20914
852.434	20963
852.569	20883
852.703	20853
852.838	20937
852.973	20952
853.107	20994
853.242	20781
853.376	20701
853.511	20522
853.645	20587
853.78	20792
853.914	20785
854.048	20575
854.183	20625
854.317	20678
854.451	20826
854.585	20636
854.72	20670
854.854	20712
854.988	20587
855.122	20686
855.256	20545
855.39	20697
855.524	20716
855.658	20769
855.792	20777
855.926	20716
856.06	20682
856.194	20830
856.327	20621
856.461	20590
856.595	20552
856.729	20522
856.862	20682
856.996	20663
857.13	20739
857.263	20800
857.397	20659
857.53	20590
857.664	20716
857.797	20629
857.931	20644
858.064	20705
858.197	20796
858.331	20659
858.464	20579
858.597	20571
858.731	20568
858.864	20651
858.997	20682
859.13	20594
859.263	20659
859.396	20819
859.529	20648
859.662	20575
859.795	20689
859.928	20598
860.061	20781
860.194	20819
860.327	20648
860.46	20636
860.592	20815
860.725	20781
860.858	20773
860.99	20617
861.123	20549
861.256	20564
861.388	20632
861.521	21222
861.653	20457
861.786	20431
861.918	20446
862.05	20552
862.183	20594
862.315	20579
862.447	20651
862.58	20541
862.712	20385
862.844	20328
862.976	20545
863.108	20457
863.24	20830
863.372	20313
863.504	20339
863.636	20347
863.768	20457
863.9	20381
864.032	20393
864.164	20252
864.296	20381
864.428	20484
864.559	20446
864.691	20488
864.823	20351
864.954	20343
865.086	20385
865.217	20301
865.349	20221
865.48	20221
865.612	20473
865.743	20518
865.875	20202
866.006	20412
866.137	20282
866.269	20301
866.4	20187
866.531	20153
866.662	20206
866.793	20244
866.924	20214
867.055	20161
867.186	20256
867.317	20244
867.448	20206
867.579	20237
867.71	20202
867.841	20130
867.972	20233
868.103	20103
868.233	20180
868.364	20187
868.495	20225
868.625	20480
868.756	20511
868.886	20351
869.017	20457
869.147	20514
869.278	20568
869.408	20457
869.539	20412
869.669	20587
869.799	20492
869.929	20686
870.06	20579
870.19	20777
870.32	20804
870.45	20800
870.58	20944
870.71	20979
870.84	21001
870.97	20842
871.1	20845
871.23	21081
871.36	21051
871.489	21066
871.619	20990
871.749	21074
871.879	21131
872.008	21074
872.138	21127
872.267	21036
872.397	20800
872.526	20941
872.656	20902
872.785	20872
872.915	21146
873.044	21233
873.173	21119
873.303	21081
873.432	21184
873.561	21146
873.69	21081
873.819	20998
873.948	21150
874.077	21142
874.206	20929
874.335	21161
874.464	21161
874.593	21359
874.722	21249
874.851	21382
874.979	21294
875.108	21401
875.237	21306
875.365	21294
875.494	21279
875.623	21367
875.751	21321
875.88	21416
876.008	21420
876.136	21511
876.265	21690
876.393	21895
876.521	21709
876.65	21850
876.778	21819
876.906	21675
877.034	21610
877.162	21827
877.29	21507
877.418	21728
877.546	21663
877.674	21667
877.802	21633
877.93	21747
878.058	21641
878.185	21450
878.313	21698
878.441	21812
878.568	21519
878.696	21557
878.824	21694
878.951	21660
879.079	21934
879.206	21994
879.333	21816
879.461	21641
879.588	21789
879.715	21823
879.842	21987
879.97	21698
880.097	21500
880.224	21526
880.351	21443
880.478	21515
880.605	21542
880.732	21367
880.859	21747
880.986	21564
881.112	21519
881.239	21302
881.366	21138
881.493	21188
881.619	21093
881.746	21272
881.872	21127
881.999	21058
882.125	21047
882.252	21047
882.378	21051
882.505	21100
882.631	20975
882.757	20834
882.883	20838
883.01	20762
883.136	20765
883.262	20609
883.388	20545
883.514	20815
883.64	20887
883.766	20670
883.892	20545
884.018	20621
884.143	20701
884.269	21005
884.395	20473
884.52	20404
884.646	20495
884.772	20415
884.897	20237
885.023	20492
885.148	20522
885.274	20575
885.399	20571
885.524	20526
885.65	20530
885.775	20434
885.9	20305
886.025	20556
886.15	20530
886.275	20358
886.4	20370
886.525	20381
886.65	20393
886.775	20313
886.9	20571
887.025	20743
887.149	20499
887.274	20107
887.399	20191
887.523	20202
887.648	20103
887.773	20058
887.897	20309
888.021	20332
888.146	20077
888.27	20328
888.395	20404
888.519	20240
888.643	20183
888.767	20153
888.891	20103
889.015	19967
889.139	20062
889.263	20035
889.387	20320
889.511	20332
889.635	20191
889.759	19955
889.883	20005
890.006	20016
890.13	20035
890.254	19894
890.377	19986
890.501	19738
890.624	19814
890.748	19883
890.871	19670
890.995	19666
891.118	19548
891.241	19643
891.364	19613
891.488	19723
891.611	19658
891.734	19620
891.857	19655
891.98	19556
892.103	19643
892.226	19544
892.349	19567
892.471	19445
892.594	19639
892.717	19594
892.839	19590
892.962	19571
893.085	19529
893.207	19533
893.33	19335
893.452	19426
893.575	19613
893.697	19548
893.819	19685
893.941	19624
894.064	19689
894.186	19502
894.308	19350
894.43	19670
894.552	19696
894.674	19674
894.796	19460
894.918	19460
895.04	19571
895.161	19597
895.283	19457
895.405	19514
895.526	19567
895.648	19460
895.769	19540
895.891	19601
896.012	19601
896.134	19556
896.255	19529
896.376	19369
896.498	19616
896.619	19480
896.74	19594
896.861	19639
896.982	19963
897.103	20031
897.224	19845
897.345	19715
897.466	19753
897.587	19662
897.708	19883
897.828	19830
897.949	19704
898.07	19571
898.19	19681
898.311	19765
898.431	19715
898.552	19791
898.672	19765
898.792	19947
898.913	19769
899.033	19674
899.153	19537
899.273	19434
899.393	19548
899.513	19537
899.633	19487
899.753	19605
899.873	19506
899.993	19616
900.113	19499
900.232	19468
900.352	19377
900.472	19506
900.591	19312
900.711	19343
900.83	19194
900.95	19392
901.069	19464
901.189	19213
901.308	19107
901.427	18905
901.546	18882
901.665	18951
901.784	18806
901.904	18806
902.023	18658
902.141	18490
902.26	18479
902.379	18536
902.498	18494
902.617	18342
902.735	18517
902.854	18292
902.973	18251
903.091	18148
903.21	18133
903.328	18095
903.446	18003
903.565	17901
903.683	17897
903.801	17832
903.919	17882
904.038	17863
904.156	17581
904.274	17809
904.392	17589
904.51	17695
904.627	17657
904.745	17805
904.863	17805
904.981	17463
905.098	17387
905.216	17410
905.334	17280
905.451	17417
905.569	17303
905.686	17288
905.803	17254
905.921	17124
906.038	17208
906.155	17174
906.272	17075
906.389	17079
906.506	16873
906.623	16961
906.74	16866
906.857	16755
906.974	16793
907.091	16904
907.208	17003
907.324	16835
907.441	16778
907.557	16717
907.674	16706
907.79	16580
907.907	16596
908.023	16649
908.139	16561
908.256	16615
908.372	16504
908.488	16535
908.604	16356
908.72	16261
908.836	16344
908.952	16280
909.068	16371
909.184	16474
909.3	16268
909.415	16314
909.531	16310
909.647	16090
909.762	16063
909.878	16006
909.993	15979
910.108	15972
910.224	15991
910.339	15949
910.454	15934
910.57	15838
910.685	15789
910.8	16051
910.915	16048
911.03	15934
911.145	15694
911.259	15618
911.374	15614
911.489	15663
911.604	15454
911.718	15488
911.833	15507
911.947	15355
912.062	15287
912.176	15481
912.291	15466
912.405	15515
912.519	15549
912.633	15591
912.748	15435
912.862	15329
912.976	15218
913.09	15135
913.204	15169
913.318	15260
913.431	15386
913.545	15306
913.659	15355
913.772	15176
913.886	15150
914	15051
914.113	15043
914.226	15077
914.34	15089
914.453	14804
914.566	15062
914.68	14925
914.793	14849
914.906	14705
915.019	14773
915.132	14602
915.245	14625
915.358	14602
915.47	14682
915.583	14632
915.696	14674
915.809	14853
915.921	14750
916.034	14648
916.146	14667
916.259	14537
916.371	14594
916.483	14644
916.595	14556
916.708	14461
916.82	14415
916.932	14495
917.044	14503
917.156	14393
917.268	14381
917.38	14286
917.491	14309
917.603	14355
917.715	14408
917.826	14400
917.938	14199
918.049	14187
918.161	14313
918.272	14412
918.384	14351
918.495	14275
918.606	14130
918.717	14031
918.828	14031
918.939	14138
919.05	14008
919.161	14020
919.272	13902
919.383	14035
919.494	14145
919.604	14233
919.715	14039
919.826	13993
919.936	14012
920.047	14115
920.157	14096
920.267	14290
920.378	14107
920.488	14073
920.598	14294
920.708	14336
920.818	14107
920.928	14145
921.038	14336
921.148	14210
921.258	14005
921.368	13860
921.477	13871
921.587	13757
921.697	13609
921.806	13788
921.916	13750
922.025	13518
922.134	13434
922.244	13362
922.353	13468
922.462	13346
922.571	13331
922.68	13080
922.789	13122
922.898	13084
923.007	13107
923.116	13179
923.224	13088
923.333	13088
923.442	13008
923.55	12970
923.659	12924
923.767	13038
923.876	12905
923.984	13084
924.092	12837
924.201	12886
924.309	12909
924.417	12863
924.525	12791
924.633	12719
924.741	13506
924.849	12559
924.956	12688
925.064	12570
925.172	12490
925.279	12525
925.387	12589
925.494	12559
925.602	12627
925.709	12566
925.816	12437
925.924	12479
926.031	12494
926.138	12479
926.245	12540
926.352	12369
926.459	12559
926.566	12498
926.673	12441
926.779	12361
926.886	12308
926.993	12182
927.099	12201
927.206	12091
927.312	12041
927.419	12220
927.525	12060
927.631	12121
927.737	11999
927.843	11942
927.95	11767
928.056	11977
928.162	11954
928.267	12034
928.373	12589
928.479	12083
928.585	11737
928.69	11809
928.796	11920
928.901	11836
929.007	11619
929.112	11920
929.218	11786
929.323	11695
929.428	11737
929.533	11771
929.638	11611
929.743	11608
929.848	11672
929.953	11707
930.058	11532
930.163	11425
930.267	11414
930.372	11646
930.477	11379
930.581	11619
930.685	11528
930.79	11250
930.894	11250
930.998	11273
931.103	11368
931.207	11018
931.311	10923
931.415	10793
931.519	10774
931.623	10599
