Data from test_V78500241_1865.txt Node
Date: Fri Mar 25 15:22:50 CST 2022
User: usil
Spectrometer: V785-0024
Trigger mode: 0
Integration Time (sec): 4.000000E-1
Scans to average: 1
Nonlinearity correction enabled: false
Boxcar width: 0
Storing dark spectrum: false
XAxis mode: Wavelengths
Number of Pixels in Spectrum: 1024
>>>>>Begin Spectral Data<<<<<
801.071	27922
801.214	27690
801.356	27576
801.499	27332
801.641	27359
801.783	27351
801.926	27496
802.068	27424
802.211	27340
802.353	27214
802.496	27108
802.638	27043
802.78	26948
802.923	26982
803.065	27074
803.208	26910
803.35	27051
803.492	27112
803.635	27032
803.777	27100
803.919	27249
804.061	27462
804.204	27252
804.346	27176
804.488	27089
804.63	27062
804.773	27066
804.915	27287
805.057	27230
805.199	27131
805.341	27287
805.483	27325
805.626	27279
805.768	27203
805.91	27154
806.052	27351
806.194	27252
806.336	27492
806.478	27302
806.62	27351
806.762	27370
806.904	27614
807.046	27774
807.188	27686
807.33	27778
807.472	27747
807.614	27576
807.756	27686
807.898	27523
808.04	27599
808.182	27466
808.324	27427
808.465	27667
808.607	27876
808.749	27998
808.891	27804
809.033	28086
809.174	27975
809.316	28017
809.458	27884
809.6	27873
809.741	28166
809.883	27968
810.025	28181
810.166	28287
810.308	28147
810.45	28059
810.591	28067
810.733	27945
810.875	27956
811.016	27861
811.158	27762
811.299	28093
811.441	27994
811.582	27991
811.724	27823
811.865	27918
812.007	27983
812.148	27827
812.29	27903
812.431	28196
812.573	28322
812.714	28459
812.855	28481
812.997	28436
813.138	28436
813.279	28611
813.421	28424
813.562	28466
813.703	28246
813.845	28105
813.986	27918
814.127	27766
814.268	27580
814.41	27728
814.551	27656
814.692	27770
814.833	27481
814.974	27572
815.115	27778
815.256	27408
815.397	27458
815.539	27561
815.68	27538
815.821	27367
815.962	27401
816.103	27393
816.244	27294
816.385	27211
816.526	27226
816.666	27032
816.807	26819
816.948	26937
817.089	26986
817.23	27017
817.371	26921
817.512	26994
817.653	26948
817.793	26788
817.934	26902
818.075	26906
818.216	26933
818.356	26769
818.497	26750
818.638	26724
818.778	26541
818.919	26705
819.06	26853
819.2	26918
819.341	26849
819.481	26967
819.622	27039
819.762	27188
819.903	27146
820.043	27055
820.184	26933
820.324	27066
820.465	27108
820.605	26956
820.746	27036
820.886	26861
821.026	27024
821.167	26963
821.307	27051
821.447	27032
821.588	26750
821.728	26781
821.868	26526
822.008	26362
822.149	26347
822.289	26332
822.429	26210
822.569	26111
822.709	25997
822.849	25898
822.99	26005
823.13	25966
823.27	25833
823.41	25616
823.55	25616
823.69	25811
823.83	25776
823.97	25719
824.11	25514
824.25	25502
824.389	25548
824.529	25521
824.669	25609
824.809	25677
824.949	25681
825.089	25647
825.228	25628
825.368	25415
825.508	25464
825.648	25438
825.787	25658
825.927	25563
826.067	25324
826.206	25464
826.346	25426
826.485	25464
826.625	25559
826.765	25495
826.904	25525
827.044	25228
827.183	25202
827.323	25175
827.462	25221
827.601	25274
827.741	25129
827.88	25251
828.02	24996
828.159	25137
828.298	25072
828.437	25278
828.577	25171
828.716	25392
828.855	25057
828.994	24943
829.134	24886
829.273	24886
829.412	24886
829.551	24798
829.69	24848
829.829	24928
829.968	25008
830.107	25034
830.246	24817
830.385	24863
830.524	24814
830.663	24692
830.802	24639
830.941	24536
831.08	24502
831.219	24585
831.357	24631
831.496	24719
831.635	24483
831.774	24403
831.913	24460
832.051	24471
832.19	24262
832.329	24361
832.467	24163
832.606	24235
832.744	24125
832.883	23984
833.022	24155
833.16	24022
833.299	24247
833.437	24270
833.576	24220
833.714	24292
833.852	24292
833.991	24247
834.129	24505
834.267	24369
834.406	24228
834.544	24300
834.682	24243
834.821	24133
834.959	24357
835.097	24155
835.235	24285
835.373	24174
835.511	24247
835.65	24041
835.788	24045
835.926	24079
836.064	23802
836.202	23863
836.34	24011
836.478	24232
836.615	24076
836.753	24163
836.891	24197
837.029	24079
837.167	24098
837.305	24076
837.443	24053
837.58	23999
837.718	23897
837.856	23969
837.993	23988
838.131	23882
838.269	23817
838.406	23813
838.544	23729
838.681	23619
838.819	23493
838.956	23448
839.094	23330
839.231	23486
839.369	23634
839.506	23665
839.643	23657
839.781	23406
839.918	23216
840.055	23372
840.193	23387
840.33	23303
840.467	23391
840.604	23318
840.742	23535
840.879	23121
841.016	23193
841.153	23166
841.29	23406
841.427	23368
841.564	23410
841.701	23299
841.838	23307
841.975	23216
842.112	23204
842.249	23102
842.385	23128
842.522	23303
842.659	23067
842.796	22995
842.933	23056
843.069	23014
843.206	23056
843.343	23113
843.479	23117
843.616	23067
843.752	22824
843.889	22869
844.025	22991
844.162	22873
844.298	22934
844.435	22850
844.571	22828
844.708	22889
844.844	23071
844.98	22923
845.117	22923
845.253	22812
845.389	22660
845.525	22824
845.661	22683
845.798	22611
845.934	22565
846.07	22546
846.206	22557
846.342	22797
846.478	22596
846.614	22310
846.75	22135
846.886	22230
847.022	22428
847.158	22360
847.294	22287
847.429	22344
847.565	22291
847.701	22519
847.837	22124
847.972	22101
848.108	22166
848.244	21983
848.379	21922
848.515	21975
848.65	21857
848.786	22032
848.921	21945
849.057	21979
849.192	21880
849.328	21884
849.463	21838
849.598	21854
849.734	21762
849.869	21747
850.004	21629
850.14	21705
850.275	21629
850.41	21473
850.545	21599
850.68	21641
850.815	21812
850.95	21519
851.085	21846
851.22	21785
851.355	21652
851.49	21667
851.625	21724
851.76	21648
851.895	21641
852.03	21549
852.165	21690
852.299	21625
852.434	21690
852.569	21751
852.703	21816
852.838	21637
852.973	21778
853.107	21675
853.242	21587
853.376	21564
853.511	21363
853.645	21538
853.78	21682
853.914	21469
854.048	21382
854.183	21416
854.317	21450
854.451	21641
854.585	21519
854.72	21412
854.854	21549
854.988	21523
855.122	21576
855.256	21492
855.39	21530
855.524	21614
855.658	21500
855.792	21488
855.926	21412
856.06	21591
856.194	21591
856.327	21378
856.461	21435
856.595	21408
856.729	21344
856.862	21515
856.996	21534
857.13	21629
857.263	21637
857.397	21614
857.53	21408
857.664	21568
857.797	21606
857.931	21542
858.064	21473
858.197	21644
858.331	21450
858.464	21538
858.597	21325
858.731	21447
858.864	21496
858.997	21447
859.13	21553
859.263	21564
859.396	21519
859.529	21405
859.662	21412
859.795	21405
859.928	21405
860.061	21701
860.194	21637
860.327	21663
860.46	21583
860.592	21568
860.725	21698
860.858	21583
860.99	21469
861.123	21317
861.256	21397
861.388	21389
861.521	22036
861.653	21332
861.786	21351
861.918	21405
862.05	21310
862.183	21332
862.315	21450
862.447	21382
862.58	21435
862.712	21195
862.844	21169
862.976	21264
863.108	21252
863.24	21561
863.372	21252
863.504	21161
863.636	21245
863.768	21272
863.9	21180
864.032	21077
864.164	21131
864.296	21279
864.428	21283
864.559	21218
864.691	21291
864.823	21226
864.954	21032
865.086	21199
865.217	21195
865.349	21058
865.48	21036
865.612	21142
865.743	21222
865.875	21104
866.006	20933
866.137	21077
866.269	21146
866.4	21096
866.531	21036
866.662	21066
866.793	20921
866.924	20960
867.055	20986
867.186	21032
867.317	21119
867.448	20982
867.579	20979
867.71	20944
867.841	20925
867.972	21017
868.103	20967
868.233	21066
868.364	21005
868.495	21100
868.625	21348
868.756	21374
868.886	21169
869.017	21237
869.147	21317
869.278	21268
869.408	21279
869.539	21199
869.669	21386
869.799	21336
869.929	21481
870.06	21283
870.19	21549
870.32	21492
870.45	21603
870.58	21713
870.71	21778
870.84	21819
870.97	21698
871.1	21641
871.23	21793
871.36	21819
871.489	21861
871.619	21701
871.749	21819
871.879	21857
872.008	21907
872.138	21953
872.267	21831
872.397	21606
872.526	21720
872.656	21648
872.785	21747
872.915	21846
873.044	21869
873.173	21861
873.303	21960
873.432	21880
873.561	21998
873.69	21804
873.819	21770
873.948	21895
874.077	21934
874.206	21964
874.335	21892
874.464	21949
874.593	22006
874.722	21987
874.851	22143
874.979	22093
875.108	22105
875.237	22059
875.365	21994
875.494	22131
875.623	22188
875.751	22055
875.88	22082
876.008	22284
876.136	22291
876.265	22531
876.393	22599
876.521	22554
876.65	22542
876.778	22596
876.906	22443
877.034	22493
877.162	22451
877.29	22462
877.418	22493
877.546	22379
877.674	22428
877.802	22413
877.93	22386
878.058	22390
878.185	22207
878.313	22352
878.441	22497
878.568	22291
878.696	22337
878.824	22493
878.951	22497
879.079	22565
879.206	22660
879.333	22603
879.461	22432
879.588	22607
879.715	22535
879.842	22626
879.97	22523
880.097	22348
880.224	22196
880.351	22265
880.478	22230
880.605	22093
880.732	22196
880.859	22519
880.986	22295
881.112	22253
881.239	22109
881.366	21972
881.493	21926
881.619	21850
881.746	21823
881.872	21766
881.999	21797
882.125	21679
882.252	21812
882.378	21797
882.505	21888
882.631	21656
882.757	21557
882.883	21698
883.01	21652
883.136	21523
883.262	21401
883.388	21389
883.514	21450
883.64	21538
883.766	21469
883.892	21302
884.018	21351
884.143	21378
884.269	21481
884.395	21264
884.52	21188
884.646	21089
884.772	21077
884.897	21066
885.023	21226
885.148	21249
885.274	21272
885.399	21355
885.524	21119
885.65	21150
885.775	21112
885.9	21062
886.025	21283
886.15	21192
886.275	21100
886.4	21108
886.525	21123
886.65	20994
886.775	20994
886.9	21188
887.025	21321
887.149	21020
887.274	20925
887.399	20899
887.523	20925
887.648	20963
887.773	20838
887.897	20929
888.021	20952
888.146	20925
888.27	20982
888.395	21055
888.519	21024
888.643	21032
888.767	21001
888.891	20876
889.015	20800
889.139	20754
889.263	20663
889.387	20861
889.511	20758
889.635	20861
889.759	20712
889.883	20705
890.006	20743
890.13	20788
890.254	20712
890.377	20712
890.501	20461
890.624	20457
890.748	20518
890.871	20263
890.995	20328
891.118	20305
891.241	20328
891.364	20294
891.488	20450
891.611	20237
891.734	20339
891.857	20377
891.98	20355
892.103	20408
892.226	20336
892.349	20199
892.471	20130
892.594	20145
892.717	20309
892.839	20278
892.962	20172
893.085	20259
893.207	20252
893.33	20187
893.452	20180
893.575	20256
893.697	20252
893.819	20339
893.941	20533
894.064	20412
894.186	20092
894.308	20084
894.43	20206
894.552	20400
894.674	20412
894.796	19982
894.918	20252
895.04	20130
895.161	20267
895.283	20240
895.405	20077
895.526	20122
895.648	20115
895.769	20142
895.891	20210
896.012	20210
896.134	20362
896.255	20221
896.376	20088
896.498	20172
896.619	20259
896.74	20115
896.861	20240
896.982	20598
897.103	20712
897.224	20332
897.345	20514
897.466	20393
897.587	20389
897.708	20530
897.828	20381
897.949	20324
898.07	20244
898.19	20396
898.311	20492
898.431	20434
898.552	20454
898.672	20355
898.792	20507
898.913	20541
899.033	20206
899.153	20240
899.273	20092
899.393	20233
899.513	20153
899.633	20267
899.753	20164
899.873	20157
899.993	20138
900.113	20138
900.232	20145
900.352	20058
900.472	19826
900.591	19818
900.711	19974
900.83	19879
900.95	19894
901.069	19955
901.189	19807
901.308	19632
901.427	19483
901.546	19578
901.665	19533
901.784	19514
901.904	19403
902.023	19221
902.141	19027
902.26	18989
902.379	19038
902.498	19065
902.617	19023
902.735	19061
902.854	18977
902.973	19004
903.091	18669
903.21	18681
903.328	18681
903.446	18612
903.565	18551
903.683	18498
903.801	18418
903.919	18464
904.038	18464
904.156	18350
904.274	18380
904.392	18300
904.51	18095
904.627	18273
904.745	18380
904.863	18262
904.981	18057
905.098	18019
905.216	17904
905.334	17988
905.451	17961
905.569	17927
905.686	18060
905.803	17931
905.921	17642
906.038	17836
906.155	17745
906.272	17558
906.389	17680
906.506	17474
906.623	17512
906.74	17471
906.857	17417
906.974	17299
907.091	17425
907.208	17425
907.324	17436
907.441	17318
907.557	17151
907.674	17147
907.79	17113
907.907	17193
908.023	17292
908.139	17223
908.256	17185
908.372	17102
908.488	17086
908.604	17003
908.72	16869
908.836	16946
908.952	16828
909.068	16923
909.184	16980
909.3	16900
909.415	16930
909.531	16854
909.647	16660
909.762	16672
909.878	16630
909.993	16565
910.108	16519
910.224	16516
910.339	16546
910.454	16470
910.57	16516
910.685	16360
910.8	16622
910.915	16565
911.03	16443
911.145	16291
911.259	16268
911.374	16143
911.489	16120
911.604	16044
911.718	15956
911.833	15876
911.947	15918
912.062	15880
912.176	15915
912.291	15949
912.405	15895
912.519	16090
912.633	16109
912.748	16002
912.862	15895
912.976	15823
913.09	15690
913.204	15705
913.318	15656
913.431	15953
913.545	15797
913.659	15838
913.772	15667
913.886	15606
914	15580
914.113	15633
914.226	15606
914.34	15629
914.453	15469
914.566	15591
914.68	15500
914.793	15428
914.906	15226
915.019	15192
915.132	15043
915.245	15131
915.358	15211
915.47	15146
915.583	15074
915.696	15226
915.809	15211
915.921	15245
916.034	15131
916.146	15039
916.259	15081
916.371	15173
916.483	15097
916.595	15058
916.708	15005
916.82	14933
916.932	14887
917.044	14914
917.156	14918
917.268	14804
917.38	14777
917.491	14750
917.603	14944
917.715	14872
917.826	14788
917.938	14743
918.049	14739
918.161	14708
918.272	14807
918.384	14902
918.495	14632
918.606	14655
918.717	14495
918.828	14568
918.939	14632
919.05	14507
919.161	14602
919.272	14355
919.383	14320
919.494	14667
919.604	14800
919.715	14556
919.826	14507
919.936	14533
920.047	14549
920.157	14526
920.267	14769
920.378	14552
920.488	14522
920.598	14590
920.708	14785
920.818	14689
920.928	14632
921.038	14880
921.148	14765
921.258	14461
921.368	14377
921.477	14313
921.587	14305
921.697	14183
921.806	14278
921.916	14130
922.025	13902
922.134	13799
922.244	13913
922.353	14065
922.462	13696
922.571	13746
922.68	13518
922.789	13658
922.898	13540
923.007	13445
923.116	13525
923.224	13548
923.333	13514
923.442	13464
923.55	13343
923.659	13502
923.767	13415
923.876	13240
923.984	13388
924.092	13312
924.201	13396
924.309	13278
924.417	13335
924.525	13236
924.633	13274
924.741	14233
924.849	13061
924.956	13156
925.064	13065
925.172	12935
925.279	12897
925.387	12989
925.494	12951
925.602	13046
925.709	12928
925.816	12905
925.924	12943
926.031	13019
926.138	12916
926.245	12920
926.352	12798
926.459	12970
926.566	12966
926.673	12783
926.779	12631
926.886	12738
926.993	12593
927.099	12544
927.206	12418
927.312	12494
927.419	12631
927.525	12574
927.631	12601
927.737	12403
927.843	12384
927.95	12209
928.056	12292
928.162	12330
928.267	12456
928.373	12894
928.479	12506
928.585	12266
928.69	12365
928.796	12330
928.901	12186
929.007	12114
929.112	12167
929.218	12186
929.323	12034
929.428	12015
929.533	12247
929.638	12060
929.743	11999
929.848	12083
929.953	12068
930.058	11878
930.163	11798
930.267	11760
930.372	11901
930.477	11760
930.581	11874
930.685	11859
930.79	11627
930.894	11695
930.998	11600
931.103	11786
931.207	11322
931.311	11315
931.415	11178
931.519	10923
931.623	11067
