Data from test_V78500241_3512.txt Node
Date: Fri Mar 25 15:34:18 CST 2022
User: usil
Spectrometer: V785-0024
Trigger mode: 0
Integration Time (sec): 4.000000E-1
Scans to average: 1
Nonlinearity correction enabled: false
Boxcar width: 0
Storing dark spectrum: false
XAxis mode: Wavelengths
Number of Pixels in Spectrum: 1024
>>>>>Begin Spectral Data<<<<<
801.071	27485
801.214	27199
801.356	27127
801.499	27116
801.641	26960
801.783	26872
801.926	26982
802.068	27001
802.211	26746
802.353	26823
802.496	26792
802.638	26705
802.78	26541
802.923	26499
803.065	26377
803.208	26328
803.35	26667
803.492	26587
803.635	26701
803.777	26617
803.919	26644
804.061	26994
804.204	26785
804.346	26716
804.488	26659
804.63	26674
804.773	26564
804.915	26689
805.057	26823
805.199	26629
805.341	26823
805.483	26804
805.626	26792
805.768	26655
805.91	26758
806.052	26769
806.194	26716
806.336	26956
806.478	26925
806.62	26842
806.762	26998
806.904	27009
807.046	27374
807.188	27138
807.33	27226
807.472	27283
807.614	27157
807.756	27112
807.898	27058
808.04	26944
808.182	26944
808.324	26952
808.465	27203
808.607	27298
808.749	27515
808.891	27488
809.033	27614
809.174	27427
809.316	27298
809.458	27329
809.6	27431
809.741	27462
809.883	27591
810.025	27743
810.166	27717
810.308	27713
810.45	27603
810.591	27580
810.733	27401
810.875	27466
811.016	27382
811.158	27310
811.299	27485
811.441	27591
811.582	27523
811.724	27355
811.865	27287
812.007	27393
812.148	27325
812.29	27427
812.431	27587
812.573	27701
812.714	27736
812.855	27903
812.997	27899
813.138	28166
813.279	28101
813.421	27876
813.562	27873
813.703	27728
813.845	27542
813.986	27294
814.127	27176
814.268	27131
814.41	27085
814.551	27028
814.692	27230
814.833	26921
814.974	27127
815.115	27093
815.256	26895
815.397	26971
815.539	26967
815.68	26910
815.821	26853
815.962	26914
816.103	26701
816.244	26697
816.385	26674
816.526	26575
816.666	26400
816.807	26301
816.948	26389
817.089	26499
817.23	26328
817.371	26221
817.512	26298
817.653	26240
817.793	26385
817.934	26237
818.075	26278
818.216	26434
818.356	26294
818.497	26183
818.638	26001
818.778	25978
818.919	26069
819.06	26065
819.2	26176
819.341	26271
819.481	26187
819.622	26579
819.762	26629
819.903	26743
820.043	26476
820.184	26415
820.324	26366
820.465	26408
820.605	26412
820.746	26434
820.886	26328
821.026	26252
821.167	26434
821.307	26537
821.447	26313
821.588	26233
821.728	26191
821.868	25970
822.008	25936
822.149	25868
822.289	25822
822.429	25556
822.569	25445
822.709	25491
822.849	25358
822.99	25301
823.13	25327
823.27	25278
823.41	25103
823.55	25053
823.69	25240
823.83	25141
823.97	25129
824.11	24958
824.25	24787
824.389	24962
824.529	24989
824.669	25061
824.809	25164
824.949	25114
825.089	25000
825.228	24962
825.368	24935
825.508	24806
825.648	24734
825.787	24890
825.927	24890
826.067	24764
826.206	24707
826.346	24783
826.485	25008
826.625	24802
826.765	24935
826.904	24920
827.044	24574
827.183	24608
827.323	24547
827.462	24635
827.601	24525
827.741	24658
827.88	24578
828.02	24369
828.159	24544
828.298	24418
828.437	24528
828.577	24433
828.716	24681
828.855	24483
828.994	24247
829.134	24315
829.273	24342
829.412	24159
829.551	24239
829.69	24224
829.829	24273
829.968	24323
830.107	24357
830.246	24224
830.385	24178
830.524	24091
830.663	24091
830.802	24003
830.941	23935
831.08	23863
831.219	23874
831.357	23984
831.496	24083
831.635	23802
831.774	23718
831.913	23649
832.051	23726
832.19	23581
832.329	23589
832.467	23471
832.606	23410
832.744	23551
832.883	23421
833.022	23425
833.16	23505
833.299	23570
833.437	23600
833.576	23585
833.714	23676
833.852	23661
833.991	23794
834.129	23638
834.267	23699
834.406	23691
834.544	23687
834.682	23596
834.821	23695
834.959	23729
835.097	23653
835.235	23585
835.373	23619
835.511	23642
835.65	23577
835.788	23505
835.926	23273
836.064	23250
836.202	23337
836.34	23448
836.478	23516
836.615	23330
836.753	23421
836.891	23486
837.029	23395
837.167	23414
837.305	23296
837.443	23341
837.58	23387
837.718	23307
837.856	23334
837.993	23299
838.131	23353
838.269	23181
838.406	23288
838.544	23143
838.681	23037
838.819	22881
838.956	22869
839.094	22782
839.231	22972
839.369	23060
839.506	23200
839.643	23064
839.781	22801
839.918	22854
840.055	22782
840.193	22763
840.33	22653
840.467	22660
840.604	22759
840.742	22999
840.879	22554
841.016	22649
841.153	22611
841.29	22843
841.427	22672
841.564	22675
841.701	22618
841.838	22656
841.975	22653
842.112	22611
842.249	22599
842.385	22527
842.522	22596
842.659	22546
842.796	22500
842.933	22455
843.069	22413
843.206	22405
843.343	22542
843.479	22596
843.616	22523
843.752	22276
843.889	22276
844.025	22375
844.162	22242
844.298	22291
844.435	22306
844.571	22276
844.708	22284
844.844	22478
844.98	22386
845.117	22230
845.253	22215
845.389	22021
845.525	22162
845.661	22139
845.798	21903
845.934	22128
846.07	21884
846.206	22044
846.342	22051
846.478	21991
846.614	21842
846.75	21766
846.886	21720
847.022	21759
847.158	21747
847.294	21728
847.429	21857
847.565	21713
847.701	21941
847.837	21519
847.972	21397
848.108	21561
848.244	21515
848.379	21389
848.515	21237
848.65	21260
848.786	21348
848.921	21408
849.057	21389
849.192	21329
849.328	21393
849.463	21154
849.598	21252
849.734	21100
849.869	21138
850.004	20899
850.14	21180
850.275	21051
850.41	20967
850.545	21009
850.68	21089
850.815	21081
850.95	21176
851.085	21268
851.22	21226
851.355	21081
851.49	21135
851.625	21028
851.76	21123
851.895	21032
852.03	20998
852.165	21104
852.299	21036
852.434	21047
852.569	21127
852.703	21047
852.838	21104
852.973	21230
853.107	21161
853.242	20929
853.376	20857
853.511	20781
853.645	20811
853.78	20929
853.914	20925
854.048	20777
854.183	20834
854.317	20956
854.451	20998
854.585	20998
854.72	20883
854.854	20872
854.988	20750
855.122	20956
855.256	20769
855.39	20929
855.524	20971
855.658	21009
855.792	20982
855.926	20906
856.06	20918
856.194	20986
856.327	20864
856.461	20819
856.595	20788
856.729	20834
856.862	20967
856.996	20925
857.13	21074
857.263	20960
857.397	20902
857.53	20960
857.664	20933
857.797	20929
857.931	20982
858.064	20853
858.197	20963
858.331	20963
858.464	20880
858.597	20826
858.731	20914
858.864	20815
858.997	20857
859.13	20929
859.263	21017
859.396	21005
859.529	20868
859.662	20956
859.795	20853
859.928	20891
860.061	21070
860.194	21138
860.327	20914
860.46	21028
860.592	21024
860.725	21055
860.858	20982
860.99	20910
861.123	20765
861.256	20914
861.388	20986
861.521	21618
861.653	20838
861.786	20697
861.918	20674
862.05	20815
862.183	20712
862.315	20807
862.447	20918
862.58	20689
862.712	20625
862.844	20651
862.976	20769
863.108	20731
863.24	21070
863.372	20454
863.504	20644
863.636	20644
863.768	20659
863.9	20564
864.032	20606
864.164	20514
864.296	20579
864.428	20640
864.559	20667
864.691	20697
864.823	20655
864.954	20701
865.086	20518
865.217	20594
865.349	20370
865.48	20484
865.612	20427
865.743	20613
865.875	20594
866.006	20438
866.137	20454
866.269	20549
866.4	20564
866.531	20541
866.662	20351
866.793	20400
866.924	20621
867.055	20514
867.186	20556
867.317	20415
867.448	20370
867.579	20377
867.71	20469
867.841	20271
867.972	20465
868.103	20526
868.233	20545
868.364	20457
868.495	20598
868.625	20655
868.756	20826
868.886	20735
869.017	20682
869.147	20796
869.278	20830
869.408	20568
869.539	20785
869.669	20750
869.799	20705
869.929	20830
870.06	20807
870.19	21077
870.32	20998
870.45	21074
870.58	21207
870.71	21226
870.84	21222
870.97	21066
871.1	21032
871.23	21237
871.36	21321
871.489	21173
871.619	21245
871.749	21329
871.879	21363
872.008	21370
872.138	21336
872.267	21264
872.397	21176
872.526	21077
872.656	21108
872.785	21226
872.915	21386
873.044	21298
873.173	21294
873.303	21268
873.432	21454
873.561	21443
873.69	21340
873.819	21287
873.948	21473
874.077	21275
874.206	21294
874.335	21252
874.464	21382
874.593	21572
874.722	21443
874.851	21667
874.979	21542
875.108	21561
875.237	21545
875.365	21367
875.494	21538
875.623	21553
875.751	21534
875.88	21694
876.008	21846
876.136	21827
876.265	21949
876.393	22032
876.521	22010
876.65	22086
876.778	21934
876.906	21873
877.034	21930
877.162	21937
877.29	21842
877.418	21960
877.546	21892
877.674	21873
877.802	22036
877.93	21865
878.058	21918
878.185	21766
878.313	21899
878.441	21972
878.568	21785
878.696	21816
878.824	21968
878.951	21979
879.079	22078
879.206	22196
879.333	22029
879.461	21865
879.588	22116
879.715	22070
879.842	22272
879.97	21987
880.097	21850
880.224	21759
880.351	21759
880.478	21812
880.605	21736
880.732	21747
880.859	22048
880.986	21762
881.112	21850
881.239	21599
881.366	21545
881.493	21291
881.619	21412
881.746	21359
881.872	21325
881.999	21332
882.125	21332
882.252	21447
882.378	21340
882.505	21469
882.631	21131
882.757	21100
882.883	21135
883.01	20990
883.136	20963
883.262	20994
883.388	20880
883.514	21211
883.64	21131
883.766	20902
883.892	20807
884.018	20823
884.143	21047
884.269	20941
884.395	20625
884.52	20659
884.646	20788
884.772	20651
884.897	20640
885.023	20708
885.148	20796
885.274	20765
885.399	20769
885.524	20781
885.65	20670
885.775	20705
885.9	20705
886.025	20876
886.15	20811
886.275	20644
886.4	20575
886.525	20720
886.65	20594
886.775	20598
886.9	20705
887.025	20864
887.149	20617
887.274	20507
887.399	20446
887.523	20434
887.648	20393
887.773	20324
887.897	20522
888.021	20499
888.146	20313
888.27	20651
888.395	20583
888.519	20617
888.643	20442
888.767	20423
888.891	20366
889.015	20248
889.139	20309
889.263	20259
889.387	20377
889.511	20423
889.635	20351
889.759	20214
889.883	20176
890.006	20237
890.13	20252
890.254	20195
890.377	20149
890.501	19993
890.624	19921
890.748	20077
890.871	19936
890.995	19784
891.118	19704
891.241	19879
891.364	19864
891.488	19955
891.611	19772
891.734	19833
891.857	19898
891.98	19932
892.103	19894
892.226	19822
892.349	19738
892.471	19674
892.594	19715
892.717	19822
892.839	19723
892.962	19685
893.085	19864
893.207	19788
893.33	19704
893.452	19719
893.575	19662
893.697	19571
893.819	19963
893.941	19906
894.064	19986
894.186	19689
894.308	19651
894.43	19830
894.552	19917
894.674	19795
894.796	19719
894.918	19780
895.04	19738
895.161	19833
895.283	19826
895.405	19746
895.526	19689
895.648	19738
895.769	19738
895.891	19750
896.012	19883
896.134	19845
896.255	19696
896.376	19685
896.498	19784
896.619	19750
896.74	19757
896.861	19788
896.982	20084
897.103	20191
897.224	20043
897.345	20005
897.466	20031
897.587	19906
897.708	20016
897.828	20043
897.949	19906
898.07	19791
898.19	19883
898.311	20077
898.431	20024
898.552	19986
898.672	20081
898.792	20024
898.913	20046
899.033	19883
899.153	19757
899.273	19685
899.393	19833
899.513	19719
899.633	19616
899.753	19712
899.873	19613
899.993	19772
900.113	19704
900.232	19689
900.352	19723
900.472	19521
900.591	19388
900.711	19510
900.83	19426
900.95	19601
901.069	19499
901.189	19430
901.308	19148
901.427	19175
901.546	19152
901.665	19076
901.784	19053
901.904	19046
902.023	19050
902.141	18669
902.26	18707
902.379	18798
902.498	18559
902.617	18452
902.735	18585
902.854	18601
902.973	18460
903.091	18342
903.21	18216
903.328	18399
903.446	18178
903.565	17999
903.683	18038
903.801	18015
903.919	17996
904.038	18057
904.156	17992
904.274	18011
904.392	17843
904.51	17863
904.627	17878
904.745	17927
904.863	17927
904.981	17638
905.098	17505
905.216	17547
905.334	17600
905.451	17642
905.569	17512
905.686	17653
905.803	17532
905.921	17334
906.038	17433
906.155	17356
906.272	17181
906.389	17212
906.506	17090
906.623	17102
906.74	17018
906.857	16927
906.974	17025
907.091	17060
907.208	17132
907.324	17128
907.441	17022
907.557	16850
907.674	16812
907.79	16706
907.907	16710
908.023	16820
908.139	16778
908.256	16698
908.372	16771
908.488	16668
908.604	16554
908.72	16580
908.836	16550
908.952	16478
909.068	16436
909.184	16630
909.3	16478
909.415	16447
909.531	16489
909.647	16162
909.762	16280
909.878	16223
909.993	16253
910.108	16200
910.224	16207
910.339	16177
910.454	16082
910.57	16074
910.685	15979
910.8	16299
910.915	16238
911.03	16013
911.145	15873
911.259	15720
911.374	15827
911.489	15804
911.604	15656
911.718	15652
911.833	15610
911.947	15500
912.062	15530
912.176	15557
912.291	15553
912.405	15637
912.519	15694
912.633	15842
912.748	15584
912.862	15481
912.976	15439
913.09	15313
913.204	15393
913.318	15405
913.431	15462
913.545	15450
913.659	15523
913.772	15359
913.886	15233
914	15283
914.113	15382
914.226	15207
914.34	15230
914.453	15081
914.566	15302
914.68	15116
914.793	15055
914.906	14918
915.019	14788
915.132	14739
915.245	14739
915.358	14823
915.47	14792
915.583	14727
915.696	14906
915.809	14975
915.921	14956
916.034	14769
916.146	14617
916.259	14682
916.371	14777
916.483	14743
916.595	14689
916.708	14693
916.82	14670
916.932	14583
917.044	14686
917.156	14556
917.268	14442
917.38	14476
917.491	14434
917.603	14530
917.715	14552
917.826	14705
917.938	14419
918.049	14339
918.161	14442
918.272	14579
918.384	14629
918.495	14423
918.606	14263
918.717	14248
918.828	14263
918.939	14336
919.05	14229
919.161	14195
919.272	13986
919.383	14035
919.494	14256
919.604	14473
919.715	14290
919.826	14142
919.936	14119
920.047	14275
920.157	14206
920.267	14427
920.378	14237
920.488	14187
920.598	14415
920.708	14480
920.818	14347
920.928	14412
921.038	14583
921.148	14602
921.258	14240
921.368	14065
921.477	13982
921.587	13917
921.697	13856
921.806	14008
921.916	13723
922.025	13636
922.134	13620
922.244	13597
922.353	13597
922.462	13483
922.571	13422
922.68	13350
922.789	13320
922.898	13190
923.007	13213
923.116	13320
923.224	13282
923.333	13244
923.442	13164
923.55	13065
923.659	13027
923.767	13110
923.876	13004
923.984	13171
924.092	12996
924.201	13023
924.309	12954
924.417	13034
924.525	13008
924.633	12970
924.741	13681
924.849	12677
924.956	12848
925.064	12757
925.172	12597
925.279	12635
925.387	12753
925.494	12658
925.602	12810
925.709	12787
925.816	12563
925.924	12585
926.031	12726
926.138	12707
926.245	12665
926.352	12521
926.459	12684
926.566	12696
926.673	12532
926.779	12483
926.886	12422
926.993	12285
927.099	12334
927.206	12216
927.312	12216
927.419	12289
927.525	12266
927.631	12273
927.737	12125
927.843	12098
927.95	11965
928.056	12041
928.162	12159
928.267	12155
928.373	12597
928.479	12155
928.585	11927
928.69	12087
928.796	12201
928.901	11939
929.007	11897
929.112	12041
929.218	11980
929.323	11832
929.428	11802
929.533	12022
929.638	11729
929.743	11809
929.848	11870
929.953	11771
930.058	11668
930.163	11528
930.267	11539
930.372	11676
930.477	11505
930.581	11668
930.685	11524
930.79	11452
930.894	11455
930.998	11376
931.103	11535
931.207	11193
931.311	11056
931.415	10942
931.519	10809
931.623	10812
