Data from test_V78500241_3410.txt Node
Date: Fri Mar 25 15:33:36 CST 2022
User: usil
Spectrometer: V785-0024
Trigger mode: 0
Integration Time (sec): 4.000000E-1
Scans to average: 1
Nonlinearity correction enabled: false
Boxcar width: 0
Storing dark spectrum: false
XAxis mode: Wavelengths
Number of Pixels in Spectrum: 1024
>>>>>Begin Spectral Data<<<<<
801.071	27203
801.214	27348
801.356	27112
801.499	26921
801.641	26785
801.783	26830
801.926	26857
802.068	26902
802.211	26716
802.353	26689
802.496	26530
802.638	26415
802.78	26438
802.923	26442
803.065	26408
803.208	26431
803.35	26545
803.492	26598
803.635	26621
803.777	26423
803.919	26552
804.061	26868
804.204	26644
804.346	26583
804.488	26583
804.63	26469
804.773	26362
804.915	26777
805.057	26712
805.199	26636
805.341	26758
805.483	26705
805.626	26746
805.768	26739
805.91	26750
806.052	26667
806.194	26644
806.336	26872
806.478	26712
806.62	26750
806.762	26727
806.904	27001
807.046	27169
807.188	27062
807.33	27161
807.472	27237
807.614	27116
807.756	26944
807.898	26834
808.04	26769
808.182	26921
808.324	26921
808.465	26933
808.607	27214
808.749	27275
808.891	27287
809.033	27458
809.174	27287
809.316	27203
809.458	27252
809.6	27218
809.741	27340
809.883	27397
810.025	27572
810.166	27629
810.308	27641
810.45	27549
810.591	27393
810.733	27230
810.875	27405
811.016	27184
811.158	27199
811.299	27485
811.441	27511
811.582	27393
811.724	27291
811.865	27188
812.007	27180
812.148	27211
812.29	27355
812.431	27378
812.573	27648
812.714	27637
812.855	27705
812.997	27770
813.138	28139
813.279	27895
813.421	27835
813.562	27663
813.703	27606
813.845	27496
813.986	27256
814.127	27032
814.268	27169
814.41	27039
814.551	26998
814.692	27146
814.833	26952
814.974	26967
815.115	26845
815.256	26849
815.397	26948
815.539	26849
815.68	26644
815.821	26678
815.962	26735
816.103	26693
816.244	26602
816.385	26609
816.526	26495
816.666	26328
816.807	26267
816.948	26290
817.089	26183
817.23	26278
817.371	26278
817.512	26153
817.653	26218
817.793	26142
817.934	26278
818.075	26259
818.216	26282
818.356	26142
818.497	26069
818.638	25860
818.778	25928
818.919	25898
819.06	25993
819.2	26016
819.341	26153
819.481	26294
819.622	26309
819.762	26549
819.903	26434
820.043	26594
820.184	26355
820.324	26305
820.465	26377
820.605	26237
820.746	26298
820.886	26309
821.026	26259
821.167	26385
821.307	26259
821.447	26328
821.588	26149
821.728	26005
821.868	25909
822.008	25586
822.149	25677
822.289	25658
822.429	25388
822.569	25396
822.709	25400
822.849	25202
822.99	25198
823.13	25080
823.27	25160
823.41	24973
823.55	24894
823.69	25008
823.83	24966
823.97	24935
824.11	24738
824.25	24707
824.389	24734
824.529	24897
824.669	24776
824.809	25145
824.949	24897
825.089	24916
825.228	24814
825.368	24677
825.508	24642
825.648	24726
825.787	24757
825.927	24901
826.067	24547
826.206	24711
826.346	24749
826.485	24760
826.625	24734
826.765	24776
826.904	24631
827.044	24422
827.183	24445
827.323	24346
827.462	24582
827.601	24563
827.741	24243
827.88	24483
828.02	24197
828.159	24464
828.298	24384
828.437	24479
828.577	24426
828.716	24486
828.855	24460
828.994	24216
829.134	24152
829.273	24144
829.412	24106
829.551	24045
829.69	24095
829.829	24110
829.968	24224
830.107	24292
830.246	24038
830.385	24129
830.524	24015
830.663	23851
830.802	23889
830.941	23687
831.08	23710
831.219	23745
831.357	23729
831.496	24041
831.635	23855
831.774	23676
831.913	23600
832.051	23634
832.19	23512
832.329	23547
832.467	23414
832.606	23417
832.744	23364
832.883	23315
833.022	23250
833.16	23288
833.299	23592
833.437	23478
833.576	23414
833.714	23455
833.852	23615
833.991	23531
834.129	23505
834.267	23634
834.406	23539
834.544	23551
834.682	23486
834.821	23429
834.959	23627
835.097	23391
835.235	23520
835.373	23520
835.511	23414
835.65	23448
835.788	23478
835.926	23227
836.064	23170
836.202	23189
836.34	23402
836.478	23474
836.615	23299
836.753	23212
836.891	23585
837.029	23337
837.167	23261
837.305	23200
837.443	23277
837.58	23117
837.718	23284
837.856	23174
837.993	23109
838.131	23296
838.269	23044
838.406	23037
838.544	22987
838.681	22889
838.819	22839
838.956	22641
839.094	22713
839.231	22649
839.369	22923
839.506	23121
839.643	22938
839.781	22782
839.918	22645
840.055	22668
840.193	22599
840.33	22550
840.467	22577
840.604	22664
840.742	22835
840.879	22565
841.016	22592
841.153	22440
841.29	22580
841.427	22577
841.564	22626
841.701	22656
841.838	22542
841.975	22531
842.112	22497
842.249	22497
842.385	22379
842.522	22611
842.659	22367
842.796	22344
842.933	22352
843.069	22341
843.206	22272
843.343	22485
843.479	22299
843.616	22417
843.752	22139
843.889	22207
844.025	22204
844.162	22112
844.298	22188
844.435	22135
844.571	22109
844.708	22207
844.844	22322
844.98	22246
845.117	22276
845.253	21949
845.389	22097
845.525	22120
845.661	21922
845.798	21926
845.934	21835
846.07	21861
846.206	22002
846.342	22029
846.478	21835
846.614	21812
846.75	21633
846.886	21583
847.022	21751
847.158	21496
847.294	21629
847.429	21675
847.565	21561
847.701	21751
847.837	21325
847.972	21310
848.108	21428
848.244	21488
848.379	21370
848.515	21222
848.65	21233
848.786	21085
848.921	21264
849.057	21386
849.192	21291
849.328	21131
849.463	21268
849.598	21180
849.734	21066
849.869	21020
850.004	21135
850.14	20986
850.275	20960
850.41	20891
850.545	20948
850.68	20853
850.815	21009
850.95	21055
851.085	21112
851.22	21020
851.355	21028
851.49	20956
851.625	20925
851.76	20906
851.895	20883
852.03	20880
852.165	20944
852.299	20998
852.434	21017
852.569	20929
852.703	21058
852.838	21039
852.973	21017
853.107	21070
853.242	20876
853.376	20838
853.511	20735
853.645	20735
853.78	20975
853.914	20823
854.048	20682
854.183	20819
854.317	20830
854.451	21058
854.585	20758
854.72	20876
854.854	20910
854.988	20800
855.122	20857
855.256	20689
855.39	20750
855.524	20899
855.658	20902
855.792	20868
855.926	20785
856.06	20883
856.194	20811
856.327	20746
856.461	20708
856.595	20773
856.729	20823
856.862	20906
856.996	20834
857.13	20880
857.263	20842
857.397	20796
857.53	20739
857.664	20842
857.797	20819
857.931	20941
858.064	20830
858.197	20941
858.331	20834
858.464	20807
858.597	20697
858.731	20838
858.864	20731
858.997	20838
859.13	20830
859.263	20792
859.396	20815
859.529	20754
859.662	20826
859.795	20902
859.928	20773
860.061	20887
860.194	20941
860.327	20826
860.46	20887
860.592	20868
860.725	20982
860.858	20883
860.99	20925
861.123	20674
861.256	20785
861.388	20804
861.521	21450
861.653	20750
861.786	20606
861.918	20674
862.05	20693
862.183	20640
862.315	20746
862.447	20834
862.58	20686
862.712	20530
862.844	20476
862.976	20594
863.108	20655
863.24	20982
863.372	20530
863.504	20629
863.636	20499
863.768	20667
863.9	20629
864.032	20465
864.164	20533
864.296	20617
864.428	20476
864.559	20632
864.691	20594
864.823	20598
864.954	20609
865.086	20400
865.217	20484
865.349	20298
865.48	20351
865.612	20339
865.743	20514
865.875	20431
866.006	20461
866.137	20381
866.269	20370
866.4	20374
866.531	20480
866.662	20244
866.793	20412
866.924	20423
867.055	20400
867.186	20366
867.317	20393
867.448	20339
867.579	20362
867.71	20355
867.841	20290
867.972	20328
868.103	20393
868.233	20358
868.364	20396
868.495	20442
868.625	20552
868.756	20594
868.886	20560
869.017	20575
869.147	20777
869.278	20678
869.408	20587
869.539	20629
869.669	20621
869.799	20583
869.929	20636
870.06	20785
870.19	20941
870.32	20921
870.45	20971
870.58	20963
870.71	21062
870.84	21176
870.97	20937
871.1	20944
871.23	21260
871.36	21184
871.489	21135
871.619	21207
871.749	21306
871.879	21283
872.008	21256
872.138	21310
872.267	21214
872.397	21081
872.526	21138
872.656	21211
872.785	20971
872.915	21363
873.044	21351
873.173	21188
873.303	21329
873.432	21412
873.561	21351
873.69	21214
873.819	21112
873.948	21252
874.077	21275
874.206	21184
874.335	21241
874.464	21283
874.593	21485
874.722	21454
874.851	21466
874.979	21580
875.108	21481
875.237	21389
875.365	21389
875.494	21428
875.623	21511
875.751	21458
875.88	21447
876.008	21576
876.136	21603
876.265	21873
876.393	21994
876.521	21846
876.65	21991
876.778	21903
876.906	21865
877.034	21865
877.162	21880
877.29	21759
877.418	21869
877.546	21846
877.674	21842
877.802	21975
877.93	21755
878.058	21762
878.185	21759
878.313	21736
878.441	21781
878.568	21728
878.696	21705
878.824	21751
878.951	21930
879.079	21960
879.206	22105
879.333	21994
879.461	21709
879.588	21983
879.715	21991
879.842	22249
879.97	21888
880.097	21637
880.224	21614
880.351	21808
880.478	21682
880.605	21576
880.732	21694
880.859	21945
880.986	21591
881.112	21690
881.239	21458
881.366	21458
881.493	21287
881.619	21283
881.746	21180
881.872	21230
881.999	21237
882.125	21127
882.252	21272
882.378	21245
882.505	21340
882.631	21081
882.757	20925
882.883	20971
883.01	20975
883.136	20864
883.262	20697
883.388	20769
883.514	20937
883.64	20975
883.766	20807
883.892	20861
884.018	20689
884.143	20864
884.269	21020
884.395	20731
884.52	20575
884.646	20674
884.772	20503
884.897	20400
885.023	20545
885.148	20568
885.274	20746
885.399	20754
885.524	20579
885.65	20689
885.775	20602
885.9	20651
886.025	20632
886.15	20689
886.275	20499
886.4	20629
886.525	20480
886.65	20480
886.775	20476
886.9	20613
887.025	20792
887.149	20636
887.274	20400
887.399	20336
887.523	20389
887.648	20313
887.773	20191
887.897	20366
888.021	20495
888.146	20237
888.27	20362
888.395	20537
888.519	20473
888.643	20278
888.767	20362
888.891	20366
889.015	20244
889.139	20206
889.263	20153
889.387	20214
889.511	20336
889.635	20275
889.759	20046
889.883	20138
890.006	20180
890.13	20237
890.254	20100
890.377	20084
890.501	19947
890.624	19879
890.748	20062
890.871	19841
890.995	19795
891.118	19639
891.241	19830
891.364	19689
891.488	19803
891.611	19723
891.734	19811
891.857	19761
891.98	19833
892.103	19712
892.226	19750
892.349	19693
892.471	19563
892.594	19677
892.717	19742
892.839	19472
892.962	19715
893.085	19693
893.207	19696
893.33	19480
893.452	19658
893.575	19753
893.697	19613
893.819	19807
893.941	19833
894.064	19826
894.186	19685
894.308	19499
894.43	19666
894.552	19811
894.674	19681
894.796	19556
894.918	19628
895.04	19674
895.161	19655
895.283	19780
895.405	19635
895.526	19734
895.648	19632
895.769	19753
895.891	19632
896.012	19666
896.134	19575
896.255	19693
896.376	19750
896.498	19674
896.619	19696
896.74	19601
896.861	19674
896.982	20012
897.103	20065
897.224	19902
897.345	19906
897.466	19795
897.587	19879
897.708	20016
897.828	19814
897.949	19814
898.07	19708
898.19	19807
898.311	20005
898.431	19860
898.552	19944
898.672	19947
898.792	20035
898.913	19856
899.033	19655
899.153	19643
899.273	19670
899.393	19632
899.513	19632
899.633	19616
899.753	19499
899.873	19514
899.993	19666
900.113	19613
900.232	19639
900.352	19586
900.472	19582
900.591	19320
900.711	19548
900.83	19373
900.95	19460
901.069	19567
901.189	19301
901.308	19103
901.427	19088
901.546	19046
901.665	18989
901.784	19095
901.904	18859
902.023	18715
902.141	18635
902.26	18566
902.379	18669
902.498	18593
902.617	18441
902.735	18658
902.854	18486
902.973	18410
903.091	18155
903.21	18190
903.328	18167
903.446	18106
903.565	18060
903.683	17992
903.801	17885
903.919	18007
904.038	17965
904.156	17904
904.274	17813
904.392	17691
904.51	17851
904.627	17703
904.745	17634
904.863	17805
904.981	17653
905.098	17490
905.216	17490
905.334	17467
905.451	17482
905.569	17345
905.686	17577
905.803	17421
905.921	17235
906.038	17471
906.155	17341
906.272	17162
906.389	17181
906.506	17136
906.623	17041
906.74	16968
906.857	16938
906.974	16812
907.091	17006
907.208	17155
907.324	17060
907.441	16889
907.557	16752
907.674	16710
907.79	16668
907.907	16748
908.023	16664
908.139	16653
908.256	16584
908.372	16584
908.488	16596
908.604	16561
908.72	16421
908.836	16424
908.952	16337
909.068	16489
909.184	16523
909.3	16470
909.415	16379
909.531	16402
909.647	16188
909.762	16192
909.878	16188
909.993	16158
910.108	16097
910.224	16090
910.339	16200
910.454	16074
910.57	15994
910.685	15907
910.8	16139
910.915	16097
911.03	15960
911.145	15865
911.259	15728
911.374	15736
911.489	15675
911.604	15660
911.718	15469
911.833	15466
911.947	15393
912.062	15351
912.176	15496
912.291	15606
912.405	15485
912.519	15675
912.633	15739
912.748	15526
912.862	15587
912.976	15359
913.09	15241
913.204	15275
913.318	15336
913.431	15435
913.545	15450
913.659	15431
913.772	15272
913.886	15173
914	15169
914.113	15169
914.226	15131
914.34	15207
914.453	15058
914.566	15119
914.68	15051
914.793	14929
914.906	14834
915.019	14739
915.132	14655
915.245	14632
915.358	14838
915.47	14777
915.583	14712
915.696	14731
915.809	14880
915.921	14834
916.034	14678
916.146	14613
916.259	14651
916.371	14750
916.483	14678
916.595	14575
916.708	14625
916.82	14594
916.932	14560
917.044	14488
917.156	14457
917.268	14419
917.38	14457
917.491	14427
917.603	14438
917.715	14514
917.826	14473
917.938	14336
918.049	14259
918.161	14358
918.272	14469
918.384	14495
918.495	14309
918.606	14206
918.717	14077
918.828	14229
918.939	14263
919.05	14092
919.161	14123
919.272	13967
919.383	13967
919.494	14218
919.604	14294
919.715	14252
919.826	14077
919.936	14252
920.047	14298
920.157	14107
920.267	14324
920.378	14191
920.488	14130
920.598	14377
920.708	14488
920.818	14332
920.928	14248
921.038	14415
921.148	14377
921.258	14142
921.368	13974
921.477	13909
921.587	13913
921.697	13788
921.806	13822
921.916	13780
922.025	13628
922.134	13559
922.244	13426
922.353	13632
922.462	13384
922.571	13411
922.68	13278
922.789	13122
922.898	13240
923.007	13206
923.116	13137
923.224	13156
923.333	13084
923.442	13027
923.55	12913
923.659	13031
923.767	13118
923.876	12977
923.984	13057
924.092	13034
924.201	12993
924.309	12962
924.417	12932
924.525	12825
924.633	12825
924.741	13845
924.849	12612
924.956	12787
925.064	12650
925.172	12532
925.279	12604
925.387	12631
925.494	12673
925.602	12768
925.709	12658
925.816	12464
925.924	12616
926.031	12612
926.138	12601
926.245	12665
926.352	12426
926.459	12662
926.566	12654
926.673	12559
926.779	12407
926.886	12342
926.993	12175
927.099	12175
927.206	12079
927.312	12220
927.419	12311
927.525	12243
927.631	12205
927.737	12129
927.843	11999
927.95	11920
928.056	12007
928.162	12121
928.267	12133
928.373	12563
928.479	12125
928.585	11870
928.69	11977
928.796	11999
928.901	11935
929.007	11714
929.112	11809
929.218	11901
929.323	11710
929.428	11775
929.533	11863
929.638	11688
929.743	11714
929.848	11764
929.953	11733
930.058	11672
930.163	11493
930.267	11455
930.372	11589
930.477	11478
930.581	11688
930.685	11581
930.79	11356
930.894	11387
930.998	11337
931.103	11501
931.207	11067
931.311	11014
931.415	10908
931.519	10790
931.623	10736
