Data from test_V78500241_2399.txt Node
Date: Fri Mar 25 15:26:33 CST 2022
User: usil
Spectrometer: V785-0024
Trigger mode: 0
Integration Time (sec): 4.000000E-1
Scans to average: 1
Nonlinearity correction enabled: false
Boxcar width: 0
Storing dark spectrum: false
XAxis mode: Wavelengths
Number of Pixels in Spectrum: 1024
>>>>>Begin Spectral Data<<<<<
801.071	27199
801.214	27112
801.356	26868
801.499	26777
801.641	26765
801.783	26644
801.926	26739
802.068	26621
802.211	26743
802.353	26598
802.496	26328
802.638	26446
802.78	26267
802.923	26271
803.065	26183
803.208	26298
803.35	26355
803.492	26457
803.635	26579
803.777	26442
803.919	26579
804.061	26895
804.204	26552
804.346	26488
804.488	26473
804.63	26453
804.773	26457
804.915	26518
805.057	26530
805.199	26442
805.341	26644
805.483	26583
805.626	26579
805.768	26469
805.91	26575
806.052	26651
806.194	26469
806.336	26686
806.478	26678
806.62	26537
806.762	26727
806.904	26830
807.046	27192
807.188	27055
807.33	26899
807.472	27131
807.614	27051
807.756	27074
807.898	26853
808.04	26750
808.182	26823
808.324	26842
808.465	26918
808.607	27039
808.749	27241
808.891	27287
809.033	27355
809.174	27268
809.316	27169
809.458	27245
809.6	27233
809.741	27249
809.883	27355
810.025	27473
810.166	27424
810.308	27507
810.45	27549
810.591	27256
810.733	27275
810.875	27055
811.016	27161
811.158	26921
811.299	27241
811.441	27161
811.582	27302
811.724	27093
811.865	27211
812.007	27108
812.148	27245
812.29	27226
812.431	27443
812.573	27538
812.714	27599
812.855	27724
812.997	27736
813.138	27880
813.279	27941
813.421	27709
813.562	27701
813.703	27496
813.845	27386
813.986	27192
814.127	27032
814.268	26792
814.41	26948
814.551	26956
814.692	26891
814.833	26819
814.974	26804
815.115	26944
815.256	26765
815.397	26720
815.539	26739
815.68	26697
815.821	26651
815.962	26651
816.103	26712
816.244	26514
816.385	26514
816.526	26320
816.666	26370
816.807	26081
816.948	26233
817.089	26339
817.23	26164
817.371	26240
817.512	26153
817.653	26290
817.793	25997
817.934	26142
818.075	26149
818.216	26164
818.356	26161
818.497	25936
818.638	25875
818.778	25864
818.919	25864
819.06	25932
819.2	26012
819.341	26016
819.481	26005
819.622	26218
819.762	26370
819.903	26317
820.043	26336
820.184	26187
820.324	26199
820.465	26153
820.605	26183
820.746	26180
820.886	26096
821.026	26153
821.167	26195
821.307	26202
821.447	26081
821.588	26153
821.728	26024
821.868	25788
822.008	25563
822.149	25483
822.289	25639
822.429	25320
822.569	25202
822.709	25236
822.849	24992
822.99	25027
823.13	25038
823.27	25015
823.41	24909
823.55	24837
823.69	24878
823.83	24840
823.97	24719
824.11	24627
824.25	24654
824.389	24677
824.529	24821
824.669	24547
824.809	24658
824.949	24677
825.089	24654
825.228	24738
825.368	24532
825.508	24494
825.648	24456
825.787	24776
825.927	24726
826.067	24517
826.206	24544
826.346	24578
826.485	24623
826.625	24418
826.765	24650
826.904	24692
827.044	24414
827.183	24330
827.323	24247
827.462	24285
827.601	24323
827.741	24346
827.88	24365
828.02	24155
828.159	24330
828.298	24213
828.437	24372
828.577	24148
828.716	24342
828.855	24289
828.994	24003
829.134	23939
829.273	24125
829.412	23885
829.551	23954
829.69	23882
829.829	23897
829.968	24022
830.107	24079
830.246	23969
830.385	23939
830.524	23908
830.663	23809
830.802	23714
830.941	23653
831.08	23463
831.219	23756
831.357	23775
831.496	23805
831.635	23691
831.774	23573
831.913	23417
832.051	23402
832.19	23471
832.329	23330
832.467	23303
832.606	23178
832.744	23296
832.883	23356
833.022	23189
833.16	23330
833.299	23356
833.437	23208
833.576	23250
833.714	23345
833.852	23402
833.991	23311
834.129	23463
834.267	23318
834.406	23360
834.544	23414
834.682	23414
834.821	23368
834.959	23509
835.097	23334
835.235	23368
835.373	23322
835.511	23292
835.65	23269
835.788	23086
835.926	23121
836.064	23117
836.202	23033
836.34	23208
836.478	23239
836.615	23140
836.753	23216
836.891	23227
837.029	23147
837.167	23121
837.305	23064
837.443	22965
837.58	23079
837.718	23140
837.856	23132
837.993	22831
838.131	23090
838.269	22885
838.406	22915
838.544	22877
838.681	22679
838.819	22573
838.956	22500
839.094	22474
839.231	22615
839.369	22584
839.506	22915
839.643	22786
839.781	22527
839.918	22436
840.055	22462
840.193	22443
840.33	22421
840.467	22508
840.604	22405
840.742	22679
840.879	22341
841.016	22455
841.153	22272
841.29	22596
841.427	22527
841.564	22508
841.701	22455
841.838	22363
841.975	22394
842.112	22386
842.249	22303
842.385	22177
842.522	22382
842.659	22276
842.796	22139
842.933	22158
843.069	22131
843.206	22188
843.343	22177
843.479	22185
843.616	22299
843.752	21979
843.889	21964
844.025	22059
844.162	21945
844.298	22048
844.435	21930
844.571	21956
844.708	21994
844.844	22074
844.98	22051
845.117	22105
845.253	21861
845.389	21835
845.525	21918
845.661	21701
845.798	21724
845.934	21804
846.07	21656
846.206	21591
846.342	21949
846.478	21694
846.614	21583
846.75	21428
846.886	21424
847.022	21553
847.158	21561
847.294	21405
847.429	21485
847.565	21580
847.701	21660
847.837	21104
847.972	21089
848.108	21378
848.244	21256
848.379	20960
848.515	21081
848.65	21009
848.786	21089
848.921	21062
849.057	21127
849.192	21203
849.328	21195
849.463	21028
849.598	20952
849.734	20842
849.869	20781
850.004	20918
850.14	20864
850.275	20800
850.41	20853
850.545	20720
850.68	20735
850.815	20765
850.95	20758
851.085	20902
851.22	20868
851.355	20823
851.49	20899
851.625	20693
851.76	20617
851.895	20758
852.03	20678
852.165	20701
852.299	20849
852.434	20785
852.569	20849
852.703	20762
852.838	20899
852.973	20823
853.107	20929
853.242	20872
853.376	20693
853.511	20571
853.645	20552
853.78	20712
853.914	20674
854.048	20503
854.183	20625
854.317	20598
854.451	20864
854.585	20625
854.72	20621
854.854	20655
854.988	20492
855.122	20724
855.256	20450
855.39	20644
855.524	20708
855.658	20617
855.792	20640
855.926	20708
856.06	20686
856.194	20712
856.327	20651
856.461	20533
856.595	20587
856.729	20644
856.862	20705
856.996	20754
857.13	20750
857.263	20853
857.397	20731
857.53	20640
857.664	20674
857.797	20674
857.931	20644
858.064	20602
858.197	20731
858.331	20480
858.464	20655
858.597	20488
858.731	20575
858.864	20556
858.997	20625
859.13	20617
859.263	20613
859.396	20743
859.529	20579
859.662	20613
859.795	20632
859.928	20636
860.061	20807
860.194	20842
860.327	20644
860.46	20777
860.592	20693
860.725	20724
860.858	20815
860.99	20670
861.123	20617
861.256	20674
861.388	20568
861.521	21131
861.653	20522
861.786	20370
861.918	20552
862.05	20556
862.183	20522
862.315	20606
862.447	20644
862.58	20514
862.712	20282
862.844	20233
862.976	20377
863.108	20492
863.24	20842
863.372	20259
863.504	20282
863.636	20358
863.768	20408
863.9	20355
864.032	20267
864.164	20396
864.296	20313
864.428	20415
864.559	20427
864.691	20355
864.823	20339
864.954	20412
865.086	20355
865.217	20301
865.349	20210
865.48	20332
865.612	20199
865.743	20324
865.875	20206
866.006	20275
866.137	20210
866.269	20237
866.4	20233
866.531	20176
866.662	20157
866.793	20088
866.924	20183
867.055	20107
867.186	20199
867.317	20119
867.448	20103
867.579	20225
867.71	20119
867.841	20111
867.972	20225
868.103	20168
868.233	20225
868.364	20191
868.495	20396
868.625	20476
868.756	20457
868.886	20374
869.017	20370
869.147	20473
869.278	20431
869.408	20465
869.539	20415
869.669	20495
869.799	20560
869.929	20488
870.06	20556
870.19	20686
870.32	20788
870.45	20773
870.58	20857
870.71	20921
870.84	20937
870.97	20842
871.1	20811
871.23	20979
871.36	21116
871.489	20906
871.619	21070
871.749	21013
871.879	21112
872.008	21142
872.138	21036
872.267	21192
872.397	20891
872.526	20731
872.656	20929
872.785	20872
872.915	21024
873.044	21161
873.173	21017
873.303	21119
873.432	21104
873.561	21218
873.69	21123
873.819	21081
873.948	21089
874.077	21150
874.206	21017
874.335	21081
874.464	21203
874.593	21275
874.722	21192
874.851	21428
874.979	21374
875.108	21329
875.237	21363
875.365	21195
875.494	21241
875.623	21382
875.751	21214
875.88	21203
876.008	21496
876.136	21458
876.265	21736
876.393	21831
876.521	21842
876.65	21789
876.778	21644
876.906	21637
877.034	21671
877.162	21587
877.29	21591
877.418	21587
877.546	21610
877.674	21682
877.802	21500
877.93	21679
878.058	21625
878.185	21500
878.313	21599
878.441	21656
878.568	21405
878.696	21599
878.824	21671
878.951	21720
879.079	21812
879.206	21983
879.333	21705
879.461	21633
879.588	21770
879.715	21812
879.842	21918
879.97	21648
880.097	21553
880.224	21515
880.351	21507
880.478	21591
880.605	21511
880.732	21477
880.859	21709
880.986	21526
881.112	21485
881.239	21462
881.366	21249
881.493	21104
881.619	20952
881.746	21207
881.872	21024
881.999	21001
882.125	21039
882.252	21043
882.378	20990
882.505	21081
882.631	20804
882.757	20861
882.883	20887
883.01	20765
883.136	20845
883.262	20670
883.388	20526
883.514	20807
883.64	20807
883.766	20667
883.892	20575
884.018	20587
884.143	20800
884.269	20857
884.395	20389
884.52	20415
884.646	20552
884.772	20271
884.897	20343
885.023	20457
885.148	20530
885.274	20533
885.399	20564
885.524	20320
885.65	20358
885.775	20454
885.9	20400
886.025	20480
886.15	20507
886.275	20396
886.4	20267
886.525	20423
886.65	20366
886.775	20343
886.9	20575
887.025	20560
887.149	20450
887.274	20180
887.399	20271
887.523	20142
887.648	20134
887.773	20054
887.897	20229
888.021	20229
888.146	20240
888.27	20237
888.395	20343
888.519	20229
888.643	20252
888.767	20286
888.891	20039
889.015	19993
889.139	20058
889.263	19932
889.387	19989
889.511	20172
889.635	20092
889.759	19944
889.883	20043
890.006	19955
890.13	20077
890.254	19982
890.377	19909
890.501	19776
890.624	19814
890.748	19780
890.871	19632
890.995	19544
891.118	19537
891.241	19624
891.364	19594
891.488	19742
891.611	19586
891.734	19464
891.857	19677
891.98	19556
892.103	19605
892.226	19521
892.349	19464
892.471	19301
892.594	19445
892.717	19601
892.839	19510
892.962	19460
893.085	19575
893.207	19480
893.33	19266
893.452	19487
893.575	19662
893.697	19499
893.819	19643
893.941	19738
894.064	19662
894.186	19381
894.308	19373
894.43	19571
894.552	19746
894.674	19575
894.796	19346
894.918	19548
895.04	19506
895.161	19613
895.283	19506
895.405	19403
895.526	19438
895.648	19575
895.769	19613
895.891	19438
896.012	19594
896.134	19483
896.255	19609
896.376	19495
896.498	19445
896.619	19460
896.74	19396
896.861	19586
896.982	19746
897.103	19955
897.224	19746
897.345	19689
897.466	19639
897.587	19780
897.708	19712
897.828	19685
897.949	19613
898.07	19655
898.19	19620
898.311	19890
898.431	19662
898.552	19704
898.672	19837
898.792	19803
898.913	19822
899.033	19647
899.153	19613
899.273	19415
899.393	19632
899.513	19514
899.633	19502
899.753	19411
899.873	19422
899.993	19480
900.113	19544
900.232	19445
900.352	19449
900.472	19244
900.591	19217
900.711	19316
900.83	19179
900.95	19282
901.069	19369
901.189	19213
901.308	18962
901.427	18798
901.546	18916
901.665	18810
901.784	18939
901.904	18802
902.023	18681
902.141	18532
902.26	18467
902.379	18521
902.498	18365
902.617	18300
902.735	18384
902.854	18323
902.973	18346
903.091	18091
903.21	18060
903.328	18057
903.446	18015
903.565	17863
903.683	17916
903.801	17798
903.919	17760
904.038	17760
904.156	17649
904.274	17703
904.392	17661
904.51	17627
904.627	17604
904.745	17752
904.863	17748
904.981	17436
905.098	17341
905.216	17395
905.334	17448
905.451	17254
905.569	17280
905.686	17334
905.803	17368
905.921	17193
906.038	17162
906.155	17090
906.272	16991
906.389	16984
906.506	16900
906.623	16831
906.74	16809
906.857	16774
906.974	16740
907.091	17010
907.208	16965
907.324	16862
907.441	16850
907.557	16546
907.674	16569
907.79	16470
907.907	16565
908.023	16664
908.139	16615
908.256	16478
908.372	16459
908.488	16451
908.604	16379
908.72	16394
908.836	16318
908.952	16276
909.068	16272
909.184	16390
909.3	16344
909.415	16348
909.531	16337
909.647	16071
909.762	16124
909.878	15972
909.993	16158
910.108	15937
910.224	15918
910.339	15968
910.454	15915
910.57	15781
910.685	15838
910.8	16078
910.915	15918
911.03	15918
911.145	15728
911.259	15652
911.374	15652
911.489	15584
911.604	15401
911.718	15389
911.833	15416
911.947	15268
912.062	15085
912.176	15325
912.291	15344
912.405	15272
912.519	15473
912.633	15557
912.748	15458
912.862	15370
912.976	15214
913.09	15116
913.204	15150
913.318	15233
913.431	15283
913.545	15268
913.659	15260
913.772	15123
913.886	15116
914	15051
914.113	14990
914.226	15013
914.34	15020
914.453	14921
914.566	15070
914.68	14944
914.793	14868
914.906	14731
915.019	14590
915.132	14526
915.245	14701
915.358	14625
915.47	14659
915.583	14621
915.696	14617
915.809	14727
915.921	14648
916.034	14541
916.146	14473
916.259	14530
916.371	14659
916.483	14636
916.595	14415
916.708	14427
916.82	14530
916.932	14442
917.044	14419
917.156	14408
917.268	14415
917.38	14412
917.491	14267
917.603	14370
917.715	14396
917.826	14339
917.938	14161
918.049	14100
918.161	14263
918.272	14362
918.384	14328
918.495	14199
918.606	14088
918.717	14005
918.828	14123
918.939	14142
919.05	13989
919.161	14084
919.272	13803
919.383	13852
919.494	14172
919.604	14256
919.715	14035
919.826	13951
919.936	14031
920.047	14172
920.157	14092
920.267	14218
920.378	14031
920.488	13967
920.598	14229
920.708	14389
920.818	14130
920.928	14271
921.038	14415
921.148	14233
921.258	13921
921.368	13860
921.477	13807
921.587	13761
921.697	13677
921.806	13765
921.916	13674
922.025	13563
922.134	13362
922.244	13464
922.353	13430
922.462	13343
922.571	13190
922.68	13160
922.789	13126
922.898	13149
923.007	13042
923.116	13141
923.224	13012
923.333	13072
923.442	12901
923.55	12947
923.659	12901
923.767	13019
923.876	12814
923.984	12966
924.092	12810
924.201	12909
924.309	12954
924.417	12814
924.525	12814
924.633	12810
924.741	13734
924.849	12604
924.956	12730
925.064	12547
925.172	12559
925.279	12452
925.387	12517
925.494	12521
925.602	12604
925.709	12635
925.816	12388
925.924	12521
926.031	12574
926.138	12418
926.245	12521
926.352	12334
926.459	12471
926.566	12555
926.673	12391
926.779	12323
926.886	12327
926.993	12159
927.099	12148
927.206	12087
927.312	12041
927.419	12133
927.525	12076
927.631	12045
927.737	12110
927.843	11992
927.95	11866
928.056	11916
928.162	11904
928.267	11980
928.373	12608
928.479	12041
928.585	11809
928.69	11908
928.796	11942
928.901	11821
929.007	11646
929.112	11764
929.218	11718
929.323	11767
929.428	11699
929.533	11855
929.638	11665
929.743	11634
929.848	11649
929.953	11657
930.058	11509
930.163	11383
930.267	11448
930.372	11490
930.477	11414
930.581	11627
930.685	11463
930.79	11334
930.894	11318
930.998	11258
931.103	11345
931.207	11025
931.311	10987
931.415	10869
931.519	10641
931.623	10675
