Data from test_V78500241_1.txt Node
Date: Fri Mar 25 15:09:52 CST 2022
User: usil
Spectrometer: V785-0024
Trigger mode: 0
Integration Time (sec): 4.000000E-1
Scans to average: 1
Nonlinearity correction enabled: false
Boxcar width: 0
Storing dark spectrum: false
XAxis mode: Wavelengths
Number of Pixels in Spectrum: 1024
>>>>>Begin Spectral Data<<<<<
801.071	27389
801.214	27363
801.356	27275
801.499	26990
801.641	26883
801.783	26998
801.926	26929
802.068	26899
802.211	26792
802.353	26899
802.496	26469
802.638	26518
802.78	26518
802.923	26469
803.065	26453
803.208	26328
803.35	26362
803.492	26522
803.635	26598
803.777	26446
803.919	26488
804.061	26800
804.204	26541
804.346	26450
804.488	26317
804.63	26412
804.773	26256
804.915	26244
805.057	26434
805.199	26393
805.341	26415
805.483	26412
805.626	26575
805.768	26438
805.91	26465
806.052	26457
806.194	26336
806.336	26682
806.478	26495
806.62	26381
806.762	26606
806.904	26598
807.046	26906
807.188	26826
807.33	26727
807.472	26861
807.614	26754
807.756	26708
807.898	26640
808.04	26453
808.182	26632
808.324	26560
808.465	26636
808.607	26655
808.749	26735
808.891	26891
809.033	27089
809.174	26956
809.316	26929
809.458	26910
809.6	26811
809.741	27051
809.883	26906
810.025	27024
810.166	27047
810.308	27108
810.45	27066
810.591	26971
810.733	26807
810.875	26845
811.016	26606
811.158	26541
811.299	26872
811.441	26929
811.582	26864
811.724	26762
811.865	26678
812.007	26667
812.148	26781
812.29	26743
812.431	26986
812.573	27028
812.714	27013
812.855	27203
812.997	27329
813.138	27553
813.279	27443
813.421	27233
813.562	27405
813.703	26944
813.845	26895
813.986	26575
814.127	26526
814.268	26389
814.41	26408
814.551	26164
814.692	26294
814.833	26157
814.974	26233
815.115	26256
815.256	26237
815.397	26153
815.539	26286
815.68	26214
815.821	25959
815.962	25986
816.103	25970
816.244	25864
816.385	25788
816.526	25757
816.666	25666
816.807	25327
816.948	25613
817.089	25681
817.23	25312
817.371	25407
817.512	25377
817.653	25419
817.793	25289
817.934	25453
818.075	25362
818.216	25312
818.356	25339
818.497	25156
818.638	24939
818.778	25171
818.919	24989
819.06	25183
819.2	25175
819.341	25369
819.481	25293
819.622	25411
819.762	25620
819.903	25586
820.043	25384
820.184	25369
820.324	25354
820.465	25544
820.605	25308
820.746	25365
820.886	25244
821.026	25320
821.167	25148
821.307	25403
821.447	25228
821.588	25038
821.728	24962
821.868	24795
822.008	24741
822.149	24661
822.289	24749
822.429	24528
822.569	24357
822.709	24281
822.849	24380
822.99	24178
823.13	24155
823.27	23988
823.41	24038
823.55	23893
823.69	24011
823.83	23977
823.97	23813
824.11	23642
824.25	23805
824.389	23684
824.529	23767
824.669	23714
824.809	23737
824.949	23771
825.089	23935
825.228	23798
825.368	23619
825.508	23596
825.648	23573
825.787	23543
825.927	23433
826.067	23512
826.206	23505
826.346	23524
826.485	23531
826.625	23444
826.765	23516
826.904	23577
827.044	23246
827.183	23227
827.323	23083
827.462	23239
827.601	23254
827.741	23083
827.88	23159
828.02	23083
828.159	23136
828.298	23193
828.437	23197
828.577	23174
828.716	23395
828.855	23052
828.994	22889
829.134	23044
829.273	22824
829.412	22854
829.551	22908
829.69	22736
829.829	22873
829.968	22892
830.107	22900
830.246	22904
830.385	22854
830.524	22812
830.663	22660
830.802	22519
830.941	22580
831.08	22379
831.219	22379
831.357	22493
831.496	22645
831.635	22382
831.774	22314
831.913	22272
832.051	22246
832.19	22063
832.329	22268
832.467	22036
832.606	22070
832.744	21991
832.883	22063
833.022	21964
833.16	22032
833.299	22013
833.437	22070
833.576	22090
833.714	22116
833.852	22070
833.991	22086
834.129	21983
834.267	22105
834.406	22025
834.544	22074
834.682	22013
834.821	22002
834.959	22211
835.097	21865
835.235	22082
835.373	22017
835.511	22067
835.65	21922
835.788	21895
835.926	21831
836.064	21717
836.202	21622
836.34	21873
836.478	22010
836.615	21770
836.753	21762
836.891	21865
837.029	21892
837.167	21892
837.305	21774
837.443	21766
837.58	21759
837.718	21751
837.856	21705
837.993	21625
838.131	21686
838.269	21481
838.406	21576
838.544	21519
838.681	21313
838.819	21344
838.956	21203
839.094	21112
839.231	21218
839.369	21351
839.506	21606
839.643	21424
839.781	21089
839.918	21173
840.055	21036
840.193	21089
840.33	21176
840.467	21047
840.604	21036
840.742	21260
840.879	20929
841.016	21017
841.153	20971
841.29	21150
841.427	20967
841.564	21077
841.701	21043
841.838	20994
841.975	20902
842.112	20861
842.249	20845
842.385	20758
842.522	20902
842.659	20777
842.796	20674
842.933	20693
843.069	20705
843.206	20697
843.343	20823
843.479	20750
843.616	20762
843.752	20526
843.889	20560
844.025	20621
844.162	20320
844.298	20522
844.435	20454
844.571	20400
844.708	20400
844.844	20533
844.98	20511
845.117	20705
845.253	20492
845.389	20263
845.525	20362
845.661	20370
845.798	20240
845.934	20214
846.07	20119
846.206	20278
846.342	20339
846.478	20225
846.614	19921
846.75	19860
846.886	19974
847.022	20065
847.158	19963
847.294	19959
847.429	19978
847.565	19925
847.701	20202
847.837	19674
847.972	19655
848.108	19685
848.244	19753
848.379	19506
848.515	19480
848.65	19552
848.786	19537
848.921	19510
849.057	19533
849.192	19594
849.328	19556
849.463	19415
849.598	19514
849.734	19419
849.869	19274
850.004	19255
850.14	19213
850.275	19240
850.41	19126
850.545	19183
850.68	19107
850.815	19168
850.95	19217
851.085	19278
851.22	19194
851.355	19228
851.49	19023
851.625	19129
851.76	19187
851.895	19050
852.03	19088
852.165	19133
852.299	19164
852.434	19266
852.569	19148
852.703	19084
852.838	19251
852.973	19213
853.107	19255
853.242	19133
853.376	18966
853.511	18970
853.645	19088
853.78	19053
853.914	19000
854.048	18993
854.183	18977
854.317	18970
854.451	19095
854.585	19012
854.72	18928
854.854	19099
854.988	18947
855.122	19004
855.256	18852
855.39	18886
855.524	19107
855.658	19004
855.792	18970
855.926	18947
856.06	18993
856.194	19171
856.327	18985
856.461	18970
856.595	18985
856.729	18928
856.862	19023
856.996	18970
857.13	19008
857.263	18989
857.397	19065
857.53	18909
857.664	19114
857.797	18954
857.931	19084
858.064	18894
858.197	19008
858.331	18939
858.464	18829
858.597	18833
858.731	18947
858.864	18821
858.997	18859
859.13	18951
859.263	18947
859.396	18924
859.529	18829
859.662	18867
859.795	18798
859.928	18966
860.061	19027
860.194	19095
860.327	18871
860.46	18867
860.592	18875
860.725	19038
860.858	18954
860.99	18924
861.123	18825
861.256	18741
861.388	18932
861.521	19445
861.653	18741
861.786	18738
861.918	18837
862.05	18848
862.183	18989
862.315	18954
862.447	19042
862.58	18996
862.712	18635
862.844	18627
862.976	18673
863.108	18707
863.24	19076
863.372	18570
863.504	18570
863.636	18536
863.768	18620
863.9	18597
864.032	18547
864.164	18627
864.296	18574
864.428	18639
864.559	18711
864.691	18650
864.823	18661
864.954	18658
865.086	18566
865.217	18437
865.349	18525
865.48	18536
865.612	18627
865.743	18635
865.875	18483
866.006	18391
866.137	18494
866.269	18547
866.4	18566
866.531	18498
866.662	18353
866.793	18410
866.924	18456
867.055	18536
867.186	18342
867.317	18517
867.448	18418
867.579	18380
867.71	18445
867.841	18384
867.972	18410
868.103	18388
868.233	18433
868.364	18445
868.495	18555
868.625	18658
868.756	18738
868.886	18604
869.017	18684
869.147	18745
869.278	18817
869.408	18703
869.539	18616
869.669	18776
869.799	18837
869.929	18798
870.06	18722
870.19	19034
870.32	19004
870.45	18966
870.58	19141
870.71	19133
870.84	19171
870.97	19217
871.1	19137
871.23	19175
871.36	19270
871.489	19251
871.619	19225
871.749	19282
871.879	19308
872.008	19335
872.138	19301
872.267	19285
872.397	19141
872.526	19095
872.656	19156
872.785	19213
872.915	19282
873.044	19434
873.173	19251
873.303	19373
873.432	19365
873.561	19449
873.69	19225
873.819	19308
873.948	19350
874.077	19411
874.206	19362
874.335	19331
874.464	19362
874.593	19632
874.722	19537
874.851	19719
874.979	19430
875.108	19563
875.237	19514
875.365	19514
875.494	19616
875.623	19841
875.751	19578
875.88	19658
876.008	19647
876.136	19845
876.265	19982
876.393	20161
876.521	20073
876.65	19951
876.778	20062
876.906	19902
877.034	19936
877.162	19864
877.29	19921
877.418	20008
877.546	20012
877.674	19947
877.802	19997
877.93	20008
878.058	19993
878.185	19936
878.313	19913
878.441	19852
878.568	19643
878.696	19940
878.824	19940
878.951	20016
879.079	20035
879.206	20339
879.333	20145
879.461	20069
879.588	20168
879.715	20290
879.842	20320
879.97	20122
880.097	19795
880.224	19765
880.351	19769
880.478	19772
880.605	19753
880.732	19807
880.859	19997
880.986	19818
881.112	19833
881.239	19666
881.366	19476
881.493	19381
881.619	19438
881.746	19438
881.872	19362
881.999	19381
882.125	19491
882.252	19449
882.378	19480
882.505	19499
882.631	19415
882.757	19156
882.883	19266
883.01	19183
883.136	19187
883.262	19122
883.388	19042
883.514	19118
883.64	19274
883.766	19042
883.892	18985
884.018	19088
884.143	19221
884.269	19346
884.395	18966
884.52	18844
884.646	18905
884.772	18787
884.897	18802
885.023	18795
885.148	18924
885.274	19038
885.399	18962
885.524	18745
885.65	18833
885.775	18837
885.9	18848
886.025	18939
886.15	18890
886.275	18817
886.4	18726
886.525	18802
886.65	18749
886.775	18673
886.9	18993
887.025	19012
887.149	18753
887.274	18639
887.399	18589
887.523	18578
887.648	18639
887.773	18525
887.897	18570
888.021	18703
888.146	18540
888.27	18696
888.395	18726
888.519	18639
888.643	18696
888.767	18627
888.891	18418
889.015	18380
889.139	18494
889.263	18391
889.387	18547
889.511	18661
889.635	18506
889.759	18323
889.883	18452
890.006	18391
890.13	18445
890.254	18304
890.377	18327
890.501	18292
890.624	18155
890.748	18213
890.871	18106
890.995	17988
891.118	17939
891.241	18057
891.364	18019
891.488	18034
891.611	18034
891.734	18125
891.857	18038
891.98	18030
892.103	18133
892.226	17980
892.349	17969
892.471	17764
892.594	17969
892.717	18034
892.839	17855
892.962	17946
893.085	18057
893.207	17927
893.33	17916
893.452	17897
893.575	17931
893.697	18015
893.819	18201
893.941	18201
894.064	18216
894.186	17973
894.308	17863
894.43	18011
894.552	18114
894.674	18102
894.796	17931
894.918	17988
895.04	18068
895.161	18095
895.283	17999
895.405	17946
895.526	18083
895.648	18121
895.769	17984
895.891	18022
896.012	18011
896.134	18091
896.255	18106
896.376	17992
896.498	17942
896.619	18159
896.74	18102
896.861	18148
896.982	18422
897.103	18559
897.224	18388
897.345	18243
897.466	18178
897.587	18144
897.708	18464
897.828	18445
897.949	18224
898.07	18167
898.19	18216
898.311	18289
898.431	18247
898.552	18308
898.672	18277
898.792	18232
898.913	18239
899.033	18129
899.153	18114
899.273	17901
899.393	17961
899.513	17980
899.633	18038
899.753	18060
899.873	18019
899.993	17950
900.113	17904
900.232	17912
900.352	17836
900.472	17901
900.591	17786
900.711	17908
900.83	17817
900.95	17996
901.069	17999
901.189	17771
901.308	17627
901.427	17520
901.546	17387
901.665	17497
901.784	17471
901.904	17322
902.023	17128
902.141	17098
902.26	17022
902.379	17086
902.498	17018
902.617	16930
902.735	16980
902.854	16999
902.973	16972
903.091	16710
903.21	16706
903.328	16641
903.446	16584
903.565	16455
903.683	16470
903.801	16421
903.919	16375
904.038	16348
904.156	16268
904.274	16299
904.392	16379
904.51	16230
904.627	16177
904.745	16242
904.863	16382
904.981	16059
905.098	15945
905.216	15930
905.334	15964
905.451	15949
905.569	15816
905.686	15934
905.803	15937
905.921	15641
906.038	15759
906.155	15663
906.272	15663
906.389	15515
906.506	15488
906.623	15572
906.74	15504
906.857	15256
906.974	15344
907.091	15523
907.208	15595
907.324	15504
907.441	15424
907.557	15192
907.674	15306
907.79	15062
907.907	15173
908.023	15165
908.139	15119
908.256	15161
908.372	15058
908.488	15047
908.604	14914
908.72	14826
908.836	14883
908.952	14849
909.068	14845
909.184	14933
909.3	14804
909.415	14864
909.531	14785
909.647	14625
909.762	14579
909.878	14522
909.993	14724
910.108	14583
910.224	14503
910.339	14568
910.454	14537
910.57	14465
910.685	14419
910.8	14689
910.915	14526
911.03	14393
911.145	14130
911.259	14195
911.374	14115
911.489	14168
911.604	14153
911.718	13826
911.833	13928
911.947	13925
912.062	13742
912.176	13879
912.291	13982
912.405	13944
912.519	14077
912.633	14145
912.748	13986
912.862	13978
912.976	13776
913.09	13552
913.204	13818
913.318	13750
913.431	13864
913.545	13856
913.659	13902
913.772	13814
913.886	13605
914	13628
914.113	13715
914.226	13677
914.34	13696
914.453	13499
914.566	13666
914.68	13616
914.793	13434
914.906	13350
915.019	13198
915.132	13202
915.245	13259
915.358	13358
915.47	13304
915.583	13312
915.696	13251
915.809	13346
915.921	13419
916.034	13171
916.146	13259
916.259	13183
916.371	13312
916.483	13327
916.595	13152
916.708	13202
916.82	13129
916.932	13179
917.044	13080
917.156	13152
917.268	13012
917.38	12970
917.491	12867
917.603	12970
917.715	13095
917.826	13065
917.938	12829
918.049	12833
918.161	12977
918.272	13046
918.384	13187
918.495	12958
918.606	12859
918.717	12795
918.828	12829
918.939	12825
919.05	12677
919.161	12703
919.272	12642
919.383	12639
919.494	12821
919.604	12962
919.715	12806
919.826	12753
919.936	12738
920.047	12844
920.157	12795
920.267	12985
920.378	12863
920.488	12741
920.598	12943
920.708	13038
920.818	12886
920.928	12810
921.038	13099
921.148	13004
921.258	12741
921.368	12692
921.477	12566
921.587	12597
921.697	12365
921.806	12475
921.916	12410
922.025	12167
922.134	12129
922.244	12114
922.353	12182
922.462	12026
922.571	12030
922.68	11798
922.789	11813
922.898	11847
923.007	11737
923.116	11840
923.224	11855
923.333	11798
923.442	11646
923.55	11668
923.659	11649
923.767	11843
923.876	11539
923.984	11710
924.092	11581
924.201	11543
924.309	11680
924.417	11596
924.525	11596
924.633	11543
924.741	12441
924.849	11376
924.956	11501
925.064	11360
925.172	11292
925.279	11299
925.387	11349
925.494	11452
925.602	11482
925.709	11349
925.816	11296
925.924	11341
926.031	11379
926.138	11376
926.245	11440
926.352	11235
926.459	11383
926.566	11406
926.673	11376
926.779	11166
926.886	11216
926.993	11079
927.099	11029
927.206	10953
927.312	10968
927.419	11022
927.525	10972
927.631	11041
927.737	10835
927.843	10835
927.95	10733
928.056	10778
928.162	10885
928.267	10828
928.373	11455
928.479	10881
928.585	10569
928.69	10759
928.796	10816
928.901	10668
929.007	10569
929.112	10668
929.218	10626
929.323	10615
929.428	10573
929.533	10725
929.638	10558
929.743	10569
929.848	10599
929.953	10508
930.058	10462
930.163	10314
930.267	10310
930.372	10432
930.477	10227
930.581	10462
930.685	10356
930.79	10169
930.894	10051
930.998	10185
931.103	10318
931.207	9964
931.311	9907
931.415	9778
931.519	9648
931.623	9561
