Data from test_V78500241_1666.txt Node
Date: Fri Mar 25 15:21:27 CST 2022
User: usil
Spectrometer: V785-0024
Trigger mode: 0
Integration Time (sec): 4.000000E-1
Scans to average: 1
Nonlinearity correction enabled: false
Boxcar width: 0
Storing dark spectrum: false
XAxis mode: Wavelengths
Number of Pixels in Spectrum: 1024
>>>>>Begin Spectral Data<<<<<
801.071	28074
801.214	28032
801.356	27724
801.499	27625
801.641	27500
801.783	27618
801.926	27557
802.068	27466
802.211	27473
802.353	27313
802.496	27306
802.638	27222
802.78	27332
802.923	27199
803.065	27058
803.208	27260
803.35	27077
803.492	27245
803.635	27359
803.777	27382
803.919	27473
804.061	27762
804.204	27416
804.346	27427
804.488	27325
804.63	27367
804.773	27298
804.915	27389
805.057	27454
805.199	27359
805.341	27386
805.483	27443
805.626	27492
805.768	27393
805.91	27462
806.052	27583
806.194	27466
806.336	27679
806.478	27420
806.62	27469
806.762	27599
806.904	27728
807.046	27998
807.188	27972
807.33	27937
807.472	27884
807.614	27922
807.756	27964
807.898	27660
808.04	27675
808.182	27797
808.324	27861
808.465	27861
808.607	28036
808.749	28337
808.891	28253
809.033	28291
809.174	28211
809.316	28211
809.458	28192
809.6	28109
809.741	28337
809.883	28280
810.025	28356
810.166	28504
810.308	28478
810.45	28436
810.591	28268
810.733	28196
810.875	28124
811.016	28204
811.158	27972
811.299	28207
811.441	28318
811.582	28291
811.724	28181
811.865	28226
812.007	28090
812.148	28166
812.29	28181
812.431	28516
812.573	28481
812.714	28702
812.855	28649
812.997	28748
813.138	28919
813.279	28790
813.421	28672
813.562	28508
813.703	28538
813.845	28432
813.986	28109
814.127	27998
814.268	27892
814.41	27873
814.551	27827
814.692	27911
814.833	27899
814.974	27804
815.115	27892
815.256	27937
815.397	27679
815.539	27838
815.68	27701
815.821	27637
815.962	27568
816.103	27648
816.244	27424
816.385	27458
816.526	27351
816.666	27184
816.807	27131
816.948	27192
817.089	27363
817.23	27184
817.371	27157
817.512	27150
817.653	27066
817.793	27055
817.934	27135
818.075	27104
818.216	27169
818.356	27089
818.497	26971
818.638	26838
818.778	26750
818.919	26880
819.06	27005
819.2	27001
819.341	27146
819.481	27264
819.622	27336
819.762	27492
819.903	27526
820.043	27427
820.184	27237
820.324	27085
820.465	27332
820.605	27287
820.746	27203
820.886	26948
821.026	27230
821.167	27207
821.307	27329
821.447	27127
821.588	27093
821.728	26944
821.868	26686
822.008	26682
822.149	26678
822.289	26621
822.429	26355
822.569	26305
822.709	26278
822.849	26195
822.99	26134
823.13	26039
823.27	26005
823.41	25959
823.55	25753
823.69	25928
823.83	25868
823.97	25978
824.11	25776
824.25	25784
824.389	25837
824.529	25837
824.669	25769
824.809	25712
824.949	25738
825.089	25757
825.228	25696
825.368	25620
825.508	25586
825.648	25582
825.787	25681
825.927	25761
826.067	25510
826.206	25479
826.346	25670
826.485	25655
826.625	25582
826.765	25719
826.904	25590
827.044	25358
827.183	25354
827.323	25327
827.462	25422
827.601	25396
827.741	25324
827.88	25293
828.02	25327
828.159	25339
828.298	25346
828.437	25392
828.577	25236
828.716	25365
828.855	25236
828.994	25095
829.134	25088
829.273	25057
829.412	24905
829.551	24985
829.69	25034
829.829	25061
829.968	24981
830.107	25084
830.246	25103
830.385	24856
830.524	24909
830.663	24783
830.802	24734
830.941	24711
831.08	24635
831.219	24787
831.357	24814
831.496	24810
831.635	24566
831.774	24593
831.913	24475
832.051	24505
832.19	24369
832.329	24410
832.467	24414
832.606	24254
832.744	24376
832.883	24350
833.022	24270
833.16	24277
833.299	24407
833.437	24277
833.576	24445
833.714	24308
833.852	24395
833.991	24418
834.129	24448
834.267	24403
834.406	24418
834.544	24315
834.682	24429
834.821	24300
834.959	24536
835.097	24315
835.235	24467
835.373	24429
835.511	24266
835.65	24117
835.788	24353
835.926	24083
836.064	23973
836.202	24034
836.34	24273
836.478	24330
836.615	24190
836.753	24289
836.891	24235
837.029	24129
837.167	24148
837.305	24152
837.443	24114
837.58	24117
837.718	24102
837.856	24167
837.993	23980
838.131	23973
838.269	23870
838.406	23950
838.544	23908
838.681	23741
838.819	23638
838.956	23668
839.094	23486
839.231	23520
839.369	23710
839.506	24095
839.643	23828
839.781	23501
839.918	23467
840.055	23535
840.193	23551
840.33	23448
840.467	23398
840.604	23429
840.742	23813
840.879	23299
841.016	23391
841.153	23345
841.29	23482
841.427	23372
841.564	23505
841.701	23474
841.838	23292
841.975	23307
842.112	23353
842.249	23307
842.385	23086
842.522	23490
842.659	23231
842.796	23132
842.933	23261
843.069	23170
843.206	23174
843.343	23200
843.479	23216
843.616	23029
843.752	22972
843.889	23041
844.025	23079
844.162	22976
844.298	23041
844.435	22968
844.571	23018
844.708	23006
844.844	23159
844.98	23071
845.117	22987
845.253	22908
845.389	22778
845.525	22847
845.661	22786
845.798	22744
845.934	22759
846.07	22713
846.206	22641
846.342	22763
846.478	22702
846.614	22489
846.75	22512
846.886	22500
847.022	22554
847.158	22481
847.294	22447
847.429	22493
847.565	22478
847.701	22668
847.837	22147
847.972	22284
848.108	22337
848.244	22223
848.379	22006
848.515	21941
848.65	21915
848.786	22021
848.921	22109
849.057	22116
849.192	22105
849.328	22093
849.463	21918
849.598	22021
849.734	21911
849.869	21800
850.004	21739
850.14	21941
850.275	21915
850.41	21797
850.545	21717
850.68	21701
850.815	21899
850.95	21781
851.085	21983
851.22	21907
851.355	21739
851.49	21785
851.625	21808
851.76	21557
851.895	21682
852.03	21679
852.165	21751
852.299	21808
852.434	21884
852.569	21838
852.703	21785
852.838	21804
852.973	21998
853.107	21941
853.242	21812
853.376	21622
853.511	21545
853.645	21568
853.78	21618
853.914	21667
854.048	21538
854.183	21553
854.317	21656
854.451	21854
854.585	21576
854.72	21534
854.854	21739
854.988	21542
855.122	21496
855.256	21519
855.39	21587
855.524	21705
855.658	21603
855.792	21595
855.926	21587
856.06	21747
856.194	21751
856.327	21515
856.461	21644
856.595	21637
856.729	21549
856.862	21599
856.996	21637
857.13	21728
857.263	21823
857.397	21614
857.53	21656
857.664	21705
857.797	21545
857.931	21728
858.064	21755
858.197	21800
858.331	21629
858.464	21511
858.597	21519
858.731	21599
858.864	21534
858.997	21507
859.13	21587
859.263	21587
859.396	21713
859.529	21564
859.662	21526
859.795	21637
859.928	21557
860.061	21663
860.194	21854
860.327	21762
860.46	21564
860.592	21709
860.725	21823
860.858	21686
860.99	21507
861.123	21553
861.256	21587
861.388	21572
861.521	22314
861.653	21481
861.786	21397
861.918	21367
862.05	21500
862.183	21622
862.315	21504
862.447	21599
862.58	21648
862.712	21252
862.844	21294
862.976	21359
863.108	21447
863.24	21732
863.372	21408
863.504	21317
863.636	21264
863.768	21321
863.9	21355
864.032	21359
864.164	21275
864.296	21272
864.428	21256
864.559	21275
864.691	21382
864.823	21310
864.954	21313
865.086	21165
865.217	21298
865.349	21264
865.48	21329
865.612	21195
865.743	21321
865.875	21230
866.006	21070
866.137	21264
866.269	21085
866.4	21184
866.531	21150
866.662	21119
866.793	21180
866.924	21100
867.055	21214
867.186	21138
867.317	21074
867.448	21062
867.579	21085
867.71	21085
867.841	21150
867.972	21093
868.103	21146
868.233	21077
868.364	21039
868.495	21252
868.625	21397
868.756	21443
868.886	21260
869.017	21332
869.147	21511
869.278	21496
869.408	21378
869.539	21336
869.669	21603
869.799	21507
869.929	21595
870.06	21542
870.19	21682
870.32	21644
870.45	21652
870.58	21743
870.71	21918
870.84	21823
870.97	21808
871.1	21747
871.23	21892
871.36	21979
871.489	22040
871.619	21953
871.749	21956
871.879	21991
872.008	22025
872.138	21842
872.267	21926
872.397	21850
872.526	21816
872.656	21785
872.785	21728
872.915	21991
873.044	22044
873.173	21972
873.303	22025
873.432	22120
873.561	22051
873.69	21998
873.819	21983
873.948	22112
874.077	21998
874.206	21987
874.335	21979
874.464	22040
874.593	22059
874.722	22166
874.851	22173
874.979	22154
875.108	22249
875.237	22215
875.365	22112
875.494	22150
875.623	22284
875.751	22154
875.88	22223
876.008	22291
876.136	22478
876.265	22630
876.393	22797
876.521	22577
876.65	22649
876.778	22622
876.906	22630
877.034	22584
877.162	22626
877.29	22523
877.418	22615
877.546	22736
877.674	22523
877.802	22508
877.93	22645
878.058	22455
878.185	22360
878.313	22466
878.441	22489
878.568	22265
878.696	22402
878.824	22493
878.951	22588
879.079	22744
879.206	22763
879.333	22706
879.461	22577
879.588	22710
879.715	22778
879.842	22790
879.97	22504
880.097	22367
880.224	22341
880.351	22538
880.478	22424
880.605	22398
880.732	22310
880.859	22672
880.986	22451
881.112	22379
881.239	22162
881.366	22131
881.493	22063
881.619	21915
881.746	22002
881.872	21903
881.999	21960
882.125	21918
882.252	21979
882.378	22002
882.505	22021
882.631	21739
882.757	21679
882.883	21709
883.01	21686
883.136	21701
883.262	21519
883.388	21507
883.514	21557
883.64	21656
883.766	21633
883.892	21363
884.018	21382
884.143	21553
884.269	21819
884.395	21363
884.52	21165
884.646	21275
884.772	21313
884.897	21176
885.023	21275
885.148	21283
885.274	21447
885.399	21492
885.524	21222
885.65	21241
885.775	21325
885.9	21211
886.025	21367
886.15	21355
886.275	21241
886.4	21199
886.525	21424
886.65	21173
886.775	21252
886.9	21439
887.025	21340
887.149	21237
887.274	21100
887.399	21074
887.523	21047
887.648	20975
887.773	20929
887.897	21173
888.021	21036
888.146	21009
888.27	21176
888.395	21039
888.519	21165
888.643	21157
888.767	21093
888.891	20929
889.015	20914
889.139	20925
889.263	20853
889.387	20971
889.511	21043
889.635	21032
889.759	20800
889.883	20861
890.006	20845
890.13	20788
890.254	20678
890.377	20629
890.501	20609
890.624	20590
890.748	20602
890.871	20457
890.995	20358
891.118	20347
891.241	20427
891.364	20370
891.488	20457
891.611	20332
891.734	20473
891.857	20385
891.98	20442
892.103	20476
892.226	20415
892.349	20332
892.471	20202
892.594	20442
892.717	20389
892.839	20473
892.962	20313
893.085	20320
893.207	20298
893.33	20290
893.452	20153
893.575	20431
893.697	20362
893.819	20518
893.941	20545
894.064	20328
894.186	20263
894.308	20202
894.43	20454
894.552	20511
894.674	20370
894.796	20157
894.918	20233
895.04	20214
895.161	20351
895.283	20412
895.405	20229
895.526	20355
895.648	20210
895.769	20370
895.891	20271
896.012	20328
896.134	20362
896.255	20328
896.376	20191
896.498	20324
896.619	20320
896.74	20195
896.861	20404
896.982	20579
897.103	20686
897.224	20499
897.345	20522
897.466	20518
897.587	20454
897.708	20568
897.828	20575
897.949	20503
898.07	20358
898.19	20480
898.311	20640
898.431	20423
898.552	20587
898.672	20560
898.792	20636
898.913	20511
899.033	20431
899.153	20259
899.273	20218
899.393	20244
899.513	20252
899.633	20389
899.753	20263
899.873	20119
899.993	20103
900.113	20157
900.232	20267
900.352	20077
900.472	20039
900.591	19947
900.711	20092
900.83	19940
900.95	20172
901.069	20069
901.189	19940
901.308	19742
901.427	19655
901.546	19540
901.665	19609
901.784	19780
901.904	19521
902.023	19396
902.141	19270
902.26	19129
902.379	19206
902.498	19148
902.617	19069
902.735	19171
902.854	19187
902.973	19034
903.091	18802
903.21	18821
903.328	18901
903.446	18696
903.565	18646
903.683	18585
903.801	18422
903.919	18578
904.038	18544
904.156	18467
904.274	18445
904.392	18319
904.51	18304
904.627	18372
904.745	18395
904.863	18369
904.981	18140
905.098	18049
905.216	18117
905.334	18072
905.451	18159
905.569	17866
905.686	18030
905.803	18045
905.921	17817
906.038	17840
906.155	17935
906.272	17805
906.389	17729
906.506	17611
906.623	17680
906.74	17497
906.857	17463
906.974	17463
907.091	17589
907.208	17676
907.324	17455
907.441	17459
907.557	17322
907.674	17330
907.79	17204
907.907	17204
908.023	17330
908.139	17197
908.256	17162
908.372	17117
908.488	17075
908.604	17090
908.72	17006
908.836	17045
908.952	16972
909.068	17014
909.184	17094
909.3	16908
909.415	16995
909.531	17022
909.647	16729
909.762	16771
909.878	16649
909.993	16717
910.108	16668
910.224	16603
910.339	16596
910.454	16611
910.57	16508
910.685	16371
910.8	16721
910.915	16580
911.03	16531
911.145	16341
911.259	16268
911.374	16230
911.489	16200
911.604	16200
911.718	16086
911.833	16120
911.947	15934
912.062	15876
912.176	16105
912.291	16006
912.405	15998
912.519	16131
912.633	16188
912.748	16013
912.862	15998
912.976	15880
913.09	15755
913.204	15808
913.318	15838
913.431	15918
913.545	15869
913.659	15892
913.772	15808
913.886	15648
914	15614
914.113	15587
914.226	15808
914.34	15705
914.453	15428
914.566	15648
914.68	15587
914.793	15500
914.906	15355
915.019	15249
915.132	15211
915.245	15252
915.358	15264
915.47	15321
915.583	15184
915.696	15222
915.809	15306
915.921	15389
916.034	15252
916.146	15104
916.259	15001
916.371	15230
916.483	15203
916.595	15093
916.708	15116
916.82	15119
916.932	14994
917.044	14975
917.156	15074
917.268	14842
917.38	14891
917.491	14876
917.603	14906
917.715	14994
917.826	14853
917.938	14811
918.049	14705
918.161	14804
918.272	14921
918.384	14960
918.495	14754
918.606	14663
918.717	14560
918.828	14648
918.939	14686
919.05	14560
919.161	14629
919.272	14446
919.383	14495
919.494	14678
919.604	14891
919.715	14499
919.826	14507
919.936	14575
920.047	14670
920.157	14655
920.267	14834
920.378	14629
920.488	14575
920.598	14777
920.708	14914
920.818	14708
920.928	14659
921.038	14956
921.148	14788
921.258	14587
921.368	14507
921.477	14377
921.587	14294
921.697	14183
921.806	14332
921.916	14221
922.025	14043
922.134	14016
922.244	13940
922.353	14005
922.462	13841
922.571	13837
922.68	13666
922.789	13662
922.898	13582
923.007	13548
923.116	13647
923.224	13597
923.333	13666
923.442	13476
923.55	13495
923.659	13441
923.767	13510
923.876	13419
923.984	13476
924.092	13293
924.201	13316
924.309	13362
924.417	13373
924.525	13251
924.633	13339
924.741	14119
924.849	13080
924.956	13171
925.064	13080
925.172	12981
925.279	13053
925.387	12996
925.494	13000
925.602	13187
925.709	13129
925.816	12958
925.924	12943
926.031	13126
926.138	13053
926.245	12905
926.352	12856
926.459	13038
926.566	12928
926.673	12905
926.779	12840
926.886	12859
926.993	12662
927.099	12593
927.206	12593
927.312	12429
927.419	12563
927.525	12608
927.631	12570
927.737	12517
927.843	12414
927.95	12285
928.056	12429
928.162	12486
928.267	12536
928.373	13141
928.479	12475
928.585	12258
928.69	12315
928.796	12475
928.901	12315
929.007	12228
929.112	12251
929.218	12292
929.323	12194
929.428	12072
929.533	12323
929.638	12110
929.743	12114
929.848	12053
929.953	12102
930.058	11996
930.163	11863
930.267	11847
930.372	12003
930.477	11794
930.581	12038
930.685	11908
930.79	11741
930.894	11707
930.998	11745
931.103	11752
931.207	11596
931.311	11417
931.415	11360
931.519	11105
931.623	11067
