Data from test_V78500241_3447.txt Node
Date: Fri Mar 25 15:33:51 CST 2022
User: usil
Spectrometer: V785-0024
Trigger mode: 0
Integration Time (sec): 4.000000E-1
Scans to average: 1
Nonlinearity correction enabled: false
Boxcar width: 0
Storing dark spectrum: false
XAxis mode: Wavelengths
Number of Pixels in Spectrum: 1024
>>>>>Begin Spectral Data<<<<<
801.071	27268
801.214	27154
801.356	27013
801.499	26929
801.641	26861
801.783	26925
801.926	26746
802.068	26914
802.211	26807
802.353	26765
802.496	26625
802.638	26511
802.78	26514
802.923	26427
803.065	26343
803.208	26271
803.35	26457
803.492	26617
803.635	26571
803.777	26552
803.919	26644
804.061	26891
804.204	26716
804.346	26587
804.488	26541
804.63	26609
804.773	26499
804.915	26556
805.057	26765
805.199	26617
805.341	26606
805.483	26739
805.626	26568
805.768	26621
805.91	26579
806.052	26686
806.194	26667
806.336	26895
806.478	26693
806.62	26731
806.762	26891
806.904	27043
807.046	27195
807.188	27074
807.33	27176
807.472	27150
807.614	27005
807.756	27169
807.898	26971
808.04	26914
808.182	26895
808.324	27036
808.465	27020
808.607	27260
808.749	27443
808.891	27427
809.033	27568
809.174	27306
809.316	27298
809.458	27389
809.6	27291
809.741	27473
809.883	27523
810.025	27633
810.166	27629
810.308	27736
810.45	27488
810.591	27443
810.733	27370
810.875	27283
811.016	27241
811.158	27218
811.299	27344
811.441	27466
811.582	27435
811.724	27466
811.865	27313
812.007	27260
812.148	27329
812.29	27424
812.431	27439
812.573	27618
812.714	27793
812.855	27743
812.997	27983
813.138	27960
813.279	28002
813.421	27895
813.562	27698
813.703	27530
813.845	27507
813.986	27207
814.127	27077
814.268	27013
814.41	26899
814.551	27028
814.692	27104
814.833	26895
814.974	26899
815.115	26994
815.256	26929
815.397	26921
815.539	26910
815.68	26800
815.821	26712
815.962	26617
816.103	26739
816.244	26731
816.385	26556
816.526	26526
816.666	26309
816.807	26400
816.948	26317
817.089	26389
817.23	26374
817.371	26298
817.512	26218
817.653	26271
817.793	26145
817.934	26290
818.075	26298
818.216	26202
818.356	26301
818.497	26081
818.638	25982
818.778	26012
818.919	26020
819.06	26020
819.2	26172
819.341	26244
819.481	26157
819.622	26492
819.762	26442
819.903	26461
820.043	26461
820.184	26514
820.324	26294
820.465	26381
820.605	26347
820.746	26328
820.886	26180
821.026	26343
821.167	26320
821.307	26278
821.447	26240
821.588	26248
821.728	26050
821.868	25833
822.008	25803
822.149	25750
822.289	25734
822.429	25449
822.569	25407
822.709	25304
822.849	25179
822.99	25263
823.13	25194
823.27	25293
823.41	25076
823.55	24981
823.69	25118
823.83	25099
823.97	24973
824.11	24863
824.25	24928
824.389	24844
824.529	24924
824.669	24943
824.809	25034
824.949	24989
825.089	25069
825.228	24882
825.368	24795
825.508	24795
825.648	24745
825.787	24726
825.927	24757
826.067	24772
826.206	24760
826.346	24753
826.485	24806
826.625	24852
826.765	24894
826.904	24833
827.044	24578
827.183	24654
827.323	24509
827.462	24490
827.601	24418
827.741	24494
827.88	24448
828.02	24277
828.159	24540
828.298	24601
828.437	24372
828.577	24460
828.716	24525
828.855	24300
828.994	24270
829.134	24114
829.273	24262
829.412	24178
829.551	24174
829.69	24159
829.829	24209
829.968	24277
830.107	24167
830.246	24140
830.385	24110
830.524	24091
830.663	24022
830.802	23939
830.941	23760
831.08	23737
831.219	23821
831.357	23821
831.496	23984
831.635	23832
831.774	23619
831.913	23756
832.051	23436
832.19	23501
832.329	23661
832.467	23531
832.606	23535
832.744	23471
832.883	23406
833.022	23307
833.16	23376
833.299	23615
833.437	23467
833.576	23543
833.714	23611
833.852	23455
833.991	23585
834.129	23661
834.267	23585
834.406	23554
834.544	23436
834.682	23570
834.821	23619
834.959	23726
835.097	23478
835.235	23634
835.373	23528
835.511	23554
835.65	23330
835.788	23421
835.926	23235
836.064	23284
836.202	23246
836.34	23436
836.478	23448
836.615	23303
836.753	23330
836.891	23436
837.029	23395
837.167	23288
837.305	23318
837.443	23372
837.58	23231
837.718	23280
837.856	23356
837.993	23216
838.131	23307
838.269	23147
838.406	23010
838.544	23014
838.681	22793
838.819	22816
838.956	22755
839.094	22656
839.231	22786
839.369	22809
839.506	23048
839.643	22946
839.781	22793
839.918	22752
840.055	22755
840.193	22713
840.33	22653
840.467	22592
840.604	22748
840.742	22881
840.879	22519
841.016	22645
841.153	22531
841.29	22828
841.427	22588
841.564	22691
841.701	22538
841.838	22596
841.975	22531
842.112	22504
842.249	22531
842.385	22379
842.522	22615
842.659	22466
842.796	22341
842.933	22417
843.069	22318
843.206	22398
843.343	22440
843.479	22318
843.616	22371
843.752	22287
843.889	22192
844.025	22371
844.162	22181
844.298	22265
844.435	22257
844.571	22226
844.708	22124
844.844	22337
844.98	22280
845.117	22097
845.253	22284
845.389	22074
845.525	22055
845.661	22010
845.798	21907
845.934	22010
846.07	21888
846.206	21907
846.342	22063
846.478	21949
846.614	21705
846.75	21770
846.886	21675
847.022	21793
847.158	21694
847.294	21720
847.429	21701
847.565	21622
847.701	21899
847.837	21344
847.972	21405
848.108	21473
848.244	21496
848.379	21195
848.515	21279
848.65	21268
848.786	21298
848.921	21294
849.057	21393
849.192	21431
849.328	21275
849.463	21230
849.598	21123
849.734	21142
849.869	21020
850.004	20998
850.14	21058
850.275	21055
850.41	20921
850.545	21028
850.68	20899
850.815	21039
850.95	21135
851.085	21169
851.22	21146
851.355	21028
851.49	20986
851.625	20971
851.76	20986
851.895	20975
852.03	20899
852.165	21036
852.299	21173
852.434	21024
852.569	21051
852.703	20929
852.838	21131
852.973	21135
853.107	21047
853.242	20963
853.376	20956
853.511	20720
853.645	20762
853.78	20944
853.914	20944
854.048	20845
854.183	20762
854.317	20853
854.451	21005
854.585	20868
854.72	20906
854.854	20838
854.988	20762
855.122	20906
855.256	20640
855.39	20876
855.524	20967
855.658	20792
855.792	20944
855.926	20769
856.06	20899
856.194	20826
856.327	20883
856.461	20746
856.595	20895
856.729	20659
856.862	20887
856.996	20872
857.13	20944
857.263	20948
857.397	20910
857.53	20773
857.664	20891
857.797	20857
857.931	20963
858.064	20826
858.197	20834
858.331	20693
858.464	20853
858.597	20648
858.731	20762
858.864	20720
858.997	20830
859.13	20804
859.263	20819
859.396	20899
859.529	20701
859.662	20785
859.795	20781
859.928	20834
860.061	20998
860.194	21081
860.327	20872
860.46	20743
860.592	20990
860.725	20967
860.858	20880
860.99	20910
861.123	20823
861.256	20735
861.388	20785
861.521	21405
861.653	20731
861.786	20640
861.918	20678
862.05	20739
862.183	20834
862.315	20834
862.447	20788
862.58	20609
862.712	20629
862.844	20537
862.976	20659
863.108	20655
863.24	21036
863.372	20587
863.504	20644
863.636	20480
863.768	20663
863.9	20552
864.032	20564
864.164	20488
864.296	20625
864.428	20579
864.559	20537
864.691	20636
864.823	20602
864.954	20446
865.086	20446
865.217	20590
865.349	20393
865.48	20507
865.612	20419
865.743	20541
865.875	20473
866.006	20552
866.137	20583
866.269	20408
866.4	20488
866.531	20351
866.662	20317
866.793	20385
866.924	20423
867.055	20317
867.186	20366
867.317	20396
867.448	20195
867.579	20396
867.71	20320
867.841	20343
867.972	20336
868.103	20457
868.233	20454
868.364	20385
868.495	20526
868.625	20629
868.756	20731
868.886	20617
869.017	20507
869.147	20765
869.278	20693
869.408	20651
869.539	20651
869.669	20754
869.799	20667
869.929	20754
870.06	20804
870.19	21028
870.32	20952
870.45	20925
870.58	20941
870.71	21157
870.84	21154
870.97	21009
871.1	20979
871.23	21207
871.36	21108
871.489	21112
871.619	21249
871.749	21199
871.879	21325
872.008	21363
872.138	21195
872.267	21302
872.397	21188
872.526	21005
872.656	21150
872.785	21089
872.915	21260
873.044	21302
873.173	21348
873.303	21275
873.432	21287
873.561	21291
873.69	21310
873.819	21272
873.948	21332
874.077	21279
874.206	21272
874.335	21249
874.464	21447
874.593	21454
874.722	21454
874.851	21481
874.979	21500
875.108	21564
875.237	21545
875.365	21466
875.494	21336
875.623	21595
875.751	21545
875.88	21473
876.008	21660
876.136	21709
876.265	21941
876.393	22109
876.521	22112
876.65	22051
876.778	21964
876.906	21846
877.034	21880
877.162	21785
877.29	21835
877.418	21800
877.546	21930
877.674	21861
877.802	21922
877.93	21747
878.058	21808
878.185	21755
878.313	21751
878.441	21823
878.568	21663
878.696	21743
878.824	21987
878.951	22025
879.079	22055
879.206	22051
879.333	22204
879.461	21846
879.588	21911
879.715	22025
879.842	22173
879.97	22006
880.097	21743
880.224	21827
880.351	21698
880.478	21747
880.605	21580
880.732	21526
880.859	21945
880.986	21648
881.112	21762
881.239	21561
881.366	21374
881.493	21332
881.619	21233
881.746	21355
881.872	21279
881.999	21173
882.125	21249
882.252	21249
882.378	21306
882.505	21359
882.631	21112
882.757	20963
882.883	21032
883.01	20921
883.136	21020
883.262	20765
883.388	20815
883.514	21005
883.64	21077
883.766	20785
883.892	20792
884.018	20800
884.143	20838
884.269	21005
884.395	20720
884.52	20518
884.646	20537
884.772	20613
884.897	20484
885.023	20568
885.148	20785
885.274	20792
885.399	20762
885.524	20613
885.65	20682
885.775	20670
885.9	20659
886.025	20826
886.15	20644
886.275	20541
886.4	20457
886.525	20526
886.65	20549
886.775	20667
886.9	20663
887.025	20731
887.149	20602
887.274	20503
887.399	20434
887.523	20408
887.648	20381
887.773	20259
887.897	20434
888.021	20336
888.146	20271
888.27	20427
888.395	20431
888.519	20400
888.643	20427
888.767	20404
888.891	20267
889.015	20214
889.139	20252
889.263	20142
889.387	20206
889.511	20366
889.635	20286
889.759	20187
889.883	20191
890.006	20115
890.13	20290
890.254	20035
890.377	20016
890.501	19913
890.624	19902
890.748	19955
890.871	19932
890.995	19765
891.118	19776
891.241	19833
891.364	19811
891.488	19963
891.611	19708
891.734	19753
891.857	19826
891.98	19849
892.103	19822
892.226	19772
892.349	19670
892.471	19639
892.594	19670
892.717	19738
892.839	19742
892.962	19681
893.085	19750
893.207	19685
893.33	19643
893.452	19594
893.575	19734
893.697	19662
893.819	19864
893.941	19909
894.064	19879
894.186	19708
894.308	19594
894.43	19826
894.552	19845
894.674	19750
894.796	19575
894.918	19601
895.04	19563
895.161	19742
895.283	19693
895.405	19651
895.526	19666
895.648	19620
895.769	19864
895.891	19647
896.012	19742
896.134	19890
896.255	19681
896.376	19613
896.498	19708
896.619	19734
896.74	19571
896.861	19727
896.982	20058
897.103	20187
897.224	19917
897.345	20054
897.466	19974
897.587	19959
897.708	20065
897.828	19921
897.949	19837
898.07	19811
898.19	19860
898.311	20050
898.431	19833
898.552	19864
898.672	19955
898.792	19970
898.913	19944
899.033	19738
899.153	19639
899.273	19651
899.393	19670
899.513	19685
899.633	19719
899.753	19582
899.873	19578
899.993	19769
900.113	19655
900.232	19708
900.352	19544
900.472	19415
900.591	19434
900.711	19472
900.83	19381
900.95	19483
901.069	19453
901.189	19327
901.308	19107
901.427	19015
901.546	19091
901.665	19050
901.784	19122
901.904	18882
902.023	18700
902.141	18631
902.26	18677
902.379	18658
902.498	18627
902.617	18448
902.735	18517
902.854	18566
902.973	18525
903.091	18262
903.21	18327
903.328	18194
903.446	18072
903.565	18060
903.683	17999
903.801	17931
903.919	17916
904.038	17992
904.156	17817
904.274	17946
904.392	17748
904.51	17710
904.627	17786
904.745	17859
904.863	17889
904.981	17532
905.098	17436
905.216	17360
905.334	17436
905.451	17539
905.569	17459
905.686	17570
905.803	17505
905.921	17216
906.038	17452
906.155	17216
906.272	17197
906.389	17189
906.506	17018
906.623	17029
906.74	16927
906.857	16915
906.974	16965
907.091	17018
907.208	17121
907.324	17022
907.441	16911
907.557	16809
907.674	16797
907.79	16733
907.907	16675
908.023	16900
908.139	16683
908.256	16717
908.372	16577
908.488	16535
908.604	16558
908.72	16386
908.836	16462
908.952	16478
909.068	16455
909.184	16554
909.3	16356
909.415	16474
909.531	16409
909.647	16219
909.762	16200
909.878	16086
909.993	16169
910.108	16166
910.224	16150
910.339	16173
910.454	16010
910.57	15911
910.685	15945
910.8	16257
910.915	16173
911.03	16036
911.145	15873
911.259	15781
911.374	15888
911.489	15717
911.604	15686
911.718	15572
911.833	15507
911.947	15523
912.062	15336
912.176	15584
912.291	15530
912.405	15542
912.519	15709
912.633	15660
912.748	15545
912.862	15382
912.976	15336
913.09	15218
913.204	15230
913.318	15329
913.431	15435
913.545	15382
913.659	15348
913.772	15252
913.886	15195
914	15154
914.113	15268
914.226	15275
914.34	15211
914.453	15100
914.566	15199
914.68	15047
914.793	15085
914.906	14864
915.019	14739
915.132	14792
915.245	14823
915.358	14811
915.47	14693
915.583	14861
915.696	14781
915.809	14864
915.921	14883
916.034	14651
916.146	14758
916.259	14587
916.371	14716
916.483	14815
916.595	14594
916.708	14587
916.82	14670
916.932	14484
917.044	14514
917.156	14473
917.268	14434
917.38	14434
917.491	14412
917.603	14461
917.715	14370
917.826	14526
917.938	14404
918.049	14328
918.161	14286
918.272	14480
918.384	14400
918.495	14454
918.606	14199
918.717	14145
918.828	14256
918.939	14210
919.05	14134
919.161	14259
919.272	13940
919.383	14130
919.494	14195
919.604	14328
919.715	14225
919.826	14142
919.936	14157
920.047	14278
920.157	14195
920.267	14336
920.378	14172
920.488	14134
920.598	14347
920.708	14438
920.818	14362
920.928	14233
921.038	14400
921.148	14396
921.258	14161
921.368	13955
921.477	14054
921.587	13913
921.697	13719
921.806	13864
921.916	13837
922.025	13609
922.134	13514
922.244	13449
922.353	13514
922.462	13426
922.571	13350
922.68	13259
922.789	13149
922.898	13183
923.007	13095
923.116	13304
923.224	13156
923.333	13213
923.442	12962
923.55	12981
923.659	13050
923.767	13084
923.876	13038
923.984	13080
924.092	12939
924.201	12985
924.309	12954
924.417	12943
924.525	12886
924.633	12935
924.741	13913
924.849	12696
924.956	12856
925.064	12642
925.172	12566
925.279	12654
925.387	12677
925.494	12654
925.602	12650
925.709	12662
925.816	12479
925.924	12582
926.031	12719
926.138	12574
926.245	12673
926.352	12528
926.459	12608
926.566	12673
926.673	12639
926.779	12422
926.886	12410
926.993	12273
927.099	12194
927.206	12213
927.312	12159
927.419	12270
927.525	12133
927.631	12209
927.737	12144
927.843	12114
927.95	11931
928.056	12060
928.162	12003
928.267	12102
928.373	12608
928.479	12060
928.585	11893
928.69	12034
928.796	12011
928.901	11996
929.007	11714
929.112	11904
929.218	11855
929.323	11836
929.428	11737
929.533	11874
929.638	11642
929.743	11775
929.848	11680
929.953	11737
930.058	11649
930.163	11455
930.267	11410
930.372	11573
930.477	11463
930.581	11676
930.685	11467
930.79	11379
930.894	11414
930.998	11395
931.103	11467
931.207	11201
931.311	11010
931.415	10980
931.519	10755
931.623	10702
