Data from test_V78500241_3217.txt Node
Date: Fri Mar 25 15:32:15 CST 2022
User: usil
Spectrometer: V785-0024
Trigger mode: 0
Integration Time (sec): 4.000000E-1
Scans to average: 1
Nonlinearity correction enabled: false
Boxcar width: 0
Storing dark spectrum: false
XAxis mode: Wavelengths
Number of Pixels in Spectrum: 1024
>>>>>Begin Spectral Data<<<<<
801.071	27173
801.214	27074
801.356	26880
801.499	26971
801.641	26678
801.783	26594
801.926	26712
802.068	26682
802.211	26644
802.353	26705
802.496	26374
802.638	26423
802.78	26309
802.923	26301
803.065	26187
803.208	26221
803.35	26366
803.492	26492
803.635	26514
803.777	26370
803.919	26442
804.061	26853
804.204	26651
804.346	26370
804.488	26370
804.63	26457
804.773	26385
804.915	26431
805.057	26625
805.199	26320
805.341	26629
805.483	26644
805.626	26587
805.768	26438
805.91	26587
806.052	26545
806.194	26541
806.336	26777
806.478	26632
806.62	26518
806.762	26708
806.904	26963
807.046	27009
807.188	26891
807.33	26952
807.472	27192
807.614	26914
807.756	26994
807.898	26910
808.04	26754
808.182	26788
808.324	26765
808.465	26842
808.607	26960
808.749	27283
808.891	27321
809.033	27310
809.174	27348
809.316	27199
809.458	27256
809.6	27081
809.741	27275
809.883	27336
810.025	27450
810.166	27435
810.308	27450
810.45	27351
810.591	27431
810.733	27233
810.875	27241
811.016	27074
811.158	27096
811.299	27287
811.441	27317
811.582	27313
811.724	27184
811.865	27176
812.007	27184
812.148	27085
812.29	27275
812.431	27386
812.573	27466
812.714	27591
812.855	27717
812.997	27739
813.138	27857
813.279	27827
813.421	27542
813.562	27698
813.703	27519
813.845	27279
813.986	27062
814.127	26979
814.268	26781
814.41	26849
814.551	26796
814.692	26933
814.833	26701
814.974	26815
815.115	26864
815.256	26701
815.397	26659
815.539	26762
815.68	26667
815.821	26594
815.962	26590
816.103	26621
816.244	26431
816.385	26374
816.526	26400
816.666	26145
816.807	26058
816.948	26164
817.089	26271
817.23	26278
817.371	26062
817.512	26069
817.653	26199
817.793	26142
817.934	26046
818.075	25974
818.216	26073
818.356	25997
818.497	25913
818.638	25818
818.778	25811
818.919	25689
819.06	26012
819.2	26065
819.341	26012
819.481	26001
819.622	26271
819.762	26469
819.903	26366
820.043	26286
820.184	26225
820.324	26149
820.465	26347
820.605	26103
820.746	26301
820.886	26126
821.026	26218
821.167	26107
821.307	26221
821.447	26073
821.588	25917
821.728	25906
821.868	25731
822.008	25643
822.149	25518
822.289	25613
822.429	25346
822.569	25202
822.709	25244
822.849	25103
822.99	25198
823.13	25019
823.27	24920
823.41	25015
823.55	24719
823.69	24840
823.83	24981
823.97	24875
824.11	24677
824.25	24601
824.389	24654
824.529	24905
824.669	24650
824.809	24783
824.949	24840
825.089	24719
825.228	24627
825.368	24692
825.508	24559
825.648	24597
825.787	24582
825.927	24547
826.067	24635
826.206	24669
826.346	24669
826.485	24585
826.625	24601
826.765	24719
826.904	24703
827.044	24300
827.183	24407
827.323	24239
827.462	24334
827.601	24361
827.741	24159
827.88	24296
828.02	24079
828.159	24292
828.298	24247
828.437	24357
828.577	24270
828.716	24243
828.855	24133
828.994	23992
829.134	23992
829.273	24102
829.412	23923
829.551	23927
829.69	23965
829.829	23996
829.968	24114
830.107	24129
830.246	23931
830.385	23988
830.524	23980
830.663	23798
830.802	23805
830.941	23585
831.08	23577
831.219	23608
831.357	23627
831.496	23950
831.635	23581
831.774	23566
831.913	23440
832.051	23364
832.19	23395
832.329	23421
832.467	23315
832.606	23189
832.744	23277
832.883	23337
833.022	23200
833.16	23364
833.299	23307
833.437	23239
833.576	23330
833.714	23379
833.852	23493
833.991	23376
834.129	23463
834.267	23505
834.406	23463
834.544	23440
834.682	23288
834.821	23459
834.959	23501
835.097	23337
835.235	23414
835.373	23231
835.511	23345
835.65	23140
835.788	23311
835.926	23067
836.064	23041
836.202	23071
836.34	23231
836.478	23223
836.615	23212
836.753	23235
836.891	23315
837.029	23197
837.167	23151
837.305	22999
837.443	23140
837.58	23094
837.718	23098
837.856	23124
837.993	23064
838.131	22968
838.269	22877
838.406	23071
838.544	22953
838.681	22759
838.819	22733
838.956	22538
839.094	22649
839.231	22500
839.369	22759
839.506	22961
839.643	22713
839.781	22641
839.918	22508
840.055	22500
840.193	22500
840.33	22329
840.467	22325
840.604	22424
840.742	22763
840.879	22424
841.016	22405
841.153	22352
841.29	22615
841.427	22436
841.564	22516
841.701	22497
841.838	22402
841.975	22242
842.112	22276
842.249	22284
842.385	22265
842.522	22436
842.659	22257
842.796	22211
842.933	22276
843.069	22238
843.206	22249
843.343	22253
843.479	22215
843.616	22284
843.752	22010
843.889	22086
844.025	22128
844.162	22040
844.298	22044
844.435	21975
844.571	21876
844.708	22074
844.844	22147
844.98	22169
845.117	22200
845.253	21994
845.389	21892
845.525	21930
845.661	21911
845.798	21694
845.934	21857
846.07	21732
846.206	21865
846.342	21854
846.478	21713
846.614	21523
846.75	21485
846.886	21500
847.022	21606
847.158	21393
847.294	21485
847.429	21523
847.565	21500
847.701	21701
847.837	21272
847.972	21173
848.108	21359
848.244	21298
848.379	21096
848.515	21112
848.65	21024
848.786	21131
848.921	20990
849.057	21081
849.192	21127
849.328	21142
849.463	21093
849.598	21032
849.734	20967
849.869	20921
850.004	20842
850.14	20868
850.275	20895
850.41	20849
850.545	20678
850.68	20941
850.815	20914
850.95	20678
851.085	20994
851.22	20975
851.355	20883
851.49	20773
851.625	20663
851.76	20724
851.895	20724
852.03	20708
852.165	20967
852.299	20842
852.434	20826
852.569	20880
852.703	20815
852.838	20876
852.973	20944
853.107	20967
853.242	20876
853.376	20769
853.511	20522
853.645	20629
853.78	20769
853.914	20651
854.048	20625
854.183	20632
854.317	20739
854.451	20804
854.585	20686
854.72	20602
854.854	20765
854.988	20674
855.122	20705
855.256	20511
855.39	20659
855.524	20800
855.658	20651
855.792	20640
855.926	20667
856.06	20743
856.194	20746
856.327	20621
856.461	20514
856.595	20590
856.729	20663
856.862	20769
856.996	20659
857.13	20674
857.263	20834
857.397	20739
857.53	20731
857.664	20727
857.797	20648
857.931	20777
858.064	20708
858.197	20701
858.331	20796
858.464	20617
858.597	20533
858.731	20526
858.864	20621
858.997	20750
859.13	20689
859.263	20724
859.396	20697
859.529	20689
859.662	20590
859.795	20625
859.928	20682
860.061	20796
860.194	20796
860.327	20727
860.46	20815
860.592	20754
860.725	20727
860.858	20716
860.99	20689
861.123	20651
861.256	20594
861.388	20655
861.521	21233
861.653	20518
861.786	20461
861.918	20507
862.05	20503
862.183	20659
862.315	20651
862.447	20598
862.58	20629
862.712	20358
862.844	20332
862.976	20290
863.108	20552
863.24	20727
863.372	20218
863.504	20492
863.636	20431
863.768	20415
863.9	20408
864.032	20355
864.164	20259
864.296	20400
864.428	20438
864.559	20465
864.691	20431
864.823	20385
864.954	20370
865.086	20431
865.217	20309
865.349	20233
865.48	20355
865.612	20244
865.743	20442
865.875	20370
866.006	20225
866.137	20332
866.269	20282
866.4	20248
866.531	20237
866.662	20138
866.793	20225
866.924	20256
867.055	20233
867.186	20275
867.317	20298
867.448	20115
867.579	20107
867.71	20271
867.841	20126
867.972	20221
868.103	20199
868.233	20199
868.364	20275
868.495	20393
868.625	20454
868.756	20564
868.886	20442
869.017	20450
869.147	20632
869.278	20598
869.408	20446
869.539	20454
869.669	20423
869.799	20457
869.929	20609
870.06	20469
870.19	20659
870.32	20842
870.45	20963
870.58	21013
870.71	21005
870.84	20902
870.97	20929
871.1	20891
871.23	21127
871.36	21089
871.489	20937
871.619	20952
871.749	21119
871.879	21157
872.008	21211
872.138	21051
872.267	21070
872.397	20902
872.526	20956
872.656	20956
872.785	20963
872.915	21100
873.044	21096
873.173	21001
873.303	21081
873.432	21070
873.561	21176
873.69	21066
873.819	21161
873.948	21233
874.077	21081
874.206	21081
874.335	21058
874.464	21077
874.593	21287
874.722	21252
874.851	21378
874.979	21256
875.108	21389
875.237	21431
875.365	21264
875.494	21336
875.623	21481
875.751	21313
875.88	21332
876.008	21485
876.136	21587
876.265	21717
876.393	21831
876.521	21736
876.65	21827
876.778	21698
876.906	21572
877.034	21656
877.162	21755
877.29	21690
877.418	21671
877.546	21709
877.674	21774
877.802	21698
877.93	21690
878.058	21660
878.185	21736
878.313	21682
878.441	21690
878.568	21580
878.696	21610
878.824	21698
878.951	21766
879.079	21903
879.206	21975
879.333	21781
879.461	21713
879.588	21751
879.715	21857
879.842	22036
879.97	21804
880.097	21618
880.224	21526
880.351	21648
880.478	21568
880.605	21526
880.732	21580
880.859	21690
880.986	21534
881.112	21523
881.239	21401
881.366	21211
881.493	21272
881.619	21161
881.746	21100
881.872	21146
881.999	21165
882.125	20918
882.252	21123
882.378	21112
882.505	21310
882.631	20952
882.757	20796
882.883	20891
883.01	20826
883.136	20746
883.262	20727
883.388	20743
883.514	20838
883.64	20853
883.766	20686
883.892	20648
884.018	20556
884.143	20739
884.269	20921
884.395	20663
884.52	20400
884.646	20461
884.772	20488
884.897	20434
885.023	20457
885.148	20522
885.274	20716
885.399	20632
885.524	20518
885.65	20393
885.775	20549
885.9	20465
886.025	20533
886.15	20530
886.275	20457
886.4	20408
886.525	20408
886.65	20469
886.775	20370
886.9	20594
887.025	20678
887.149	20389
887.274	20309
887.399	20218
887.523	20164
887.648	20142
887.773	20069
887.897	20400
888.021	20237
888.146	20176
888.27	20313
888.395	20374
888.519	20233
888.643	20199
888.767	20305
888.891	20164
889.015	20054
889.139	20107
889.263	20035
889.387	20153
889.511	20088
889.635	20145
889.759	20035
889.883	19967
890.006	20035
890.13	20180
890.254	20008
890.377	19902
890.501	19807
890.624	19731
890.748	19837
890.871	19685
890.995	19571
891.118	19518
891.241	19544
891.364	19803
891.488	19890
891.611	19537
891.734	19594
891.857	19693
891.98	19670
892.103	19670
892.226	19597
892.349	19609
892.471	19487
892.594	19495
892.717	19582
892.839	19525
892.962	19567
893.085	19651
893.207	19430
893.33	19529
893.452	19495
893.575	19518
893.697	19441
893.819	19704
893.941	19750
894.064	19658
894.186	19457
894.308	19472
894.43	19567
894.552	19712
894.674	19601
894.796	19453
894.918	19624
895.04	19457
895.161	19594
895.283	19578
895.405	19468
895.526	19495
895.648	19453
895.769	19518
895.891	19582
896.012	19609
896.134	19533
896.255	19658
896.376	19594
896.498	19556
896.619	19521
896.74	19521
896.861	19632
896.982	19875
897.103	20008
897.224	19837
897.345	19765
897.466	19708
897.587	19765
897.708	19807
897.828	19776
897.949	19704
898.07	19647
898.19	19677
898.311	19879
898.431	19746
898.552	19814
898.672	19807
898.792	19860
898.913	19761
899.033	19742
899.153	19548
899.273	19407
899.393	19567
899.513	19635
899.633	19559
899.753	19540
899.873	19480
899.993	19476
900.113	19510
900.232	19483
900.352	19537
900.472	19369
900.591	19259
900.711	19339
900.83	19244
900.95	19381
901.069	19449
901.189	19126
901.308	19015
901.427	18996
901.546	19000
901.665	18924
901.784	18897
901.904	18757
902.023	18677
902.141	18483
902.26	18429
902.379	18475
902.498	18498
902.617	18342
902.735	18422
902.854	18445
902.973	18380
903.091	18213
903.21	18072
903.328	18057
903.446	18072
903.565	17901
903.683	17878
903.801	17851
903.919	17901
904.038	17939
904.156	17684
904.274	17836
904.392	17722
904.51	17619
904.627	17672
904.745	17718
904.863	17764
904.981	17524
905.098	17391
905.216	17417
905.334	17444
905.451	17421
905.569	17322
905.686	17429
905.803	17288
905.921	17105
906.038	17246
906.155	17159
906.272	16980
906.389	17067
906.506	16858
906.623	17056
906.74	16850
906.857	16854
906.974	16649
907.091	16953
907.208	16965
907.324	16862
907.441	16736
907.557	16561
907.674	16569
907.79	16500
907.907	16603
908.023	16611
908.139	16637
908.256	16535
908.372	16542
908.488	16577
908.604	16382
908.72	16287
908.836	16329
908.952	16306
909.068	16390
909.184	16519
909.3	16398
909.415	16363
909.531	16268
909.647	16135
909.762	15983
909.878	16013
909.993	16025
910.108	16002
910.224	15949
910.339	16059
910.454	16006
910.57	15793
910.685	15816
910.8	16147
910.915	15960
911.03	15968
911.145	15736
911.259	15667
911.374	15686
911.489	15549
911.604	15534
911.718	15496
911.833	15416
911.947	15393
912.062	15310
912.176	15424
912.291	15454
912.405	15458
912.519	15652
912.633	15462
912.748	15492
912.862	15416
912.976	15283
913.09	15131
913.204	15264
913.318	15211
913.431	15351
913.545	15260
913.659	15374
913.772	15192
913.886	15116
914	15017
914.113	15093
914.226	15138
914.34	15089
914.453	14979
914.566	15089
914.68	14990
914.793	14746
914.906	14674
915.019	14693
915.132	14617
915.245	14610
915.358	14640
915.47	14716
915.583	14545
915.696	14640
915.809	14720
915.921	14849
916.034	14705
916.146	14568
916.259	14495
916.371	14735
916.483	14613
916.595	14457
916.708	14522
916.82	14393
916.932	14473
917.044	14488
917.156	14396
917.268	14400
917.38	14305
917.491	14347
917.603	14256
917.715	14415
917.826	14355
917.938	14324
918.049	14237
918.161	14328
918.272	14450
918.384	14404
918.495	14237
918.606	14039
918.717	14058
918.828	14145
918.939	14138
919.05	14043
919.161	14065
919.272	13932
919.383	13970
919.494	14164
919.604	14278
919.715	14142
919.826	13967
919.936	14001
920.047	14176
920.157	14043
920.267	14119
920.378	14058
920.488	14088
920.598	14153
920.708	14370
920.818	14233
920.928	14195
921.038	14419
921.148	14263
921.258	13982
921.368	13917
921.477	13879
921.587	13784
921.697	13803
921.806	13818
921.916	13575
922.025	13525
922.134	13537
922.244	13434
922.353	13441
922.462	13426
922.571	13266
922.68	13179
922.789	13129
922.898	13137
923.007	12993
923.116	13175
923.224	13084
923.333	13095
923.442	12951
923.55	12958
923.659	13031
923.767	13023
923.876	12901
923.984	12985
924.092	12852
924.201	12894
924.309	12905
924.417	12829
924.525	12837
924.633	12783
924.741	13700
924.849	12741
924.956	12741
925.064	12623
925.172	12448
925.279	12589
925.387	12665
925.494	12585
925.602	12604
925.709	12654
925.816	12513
925.924	12479
926.031	12536
926.138	12582
926.245	12555
926.352	12403
926.459	12608
926.566	12502
926.673	12486
926.779	12277
926.886	12292
926.993	12182
927.099	12072
927.206	12117
927.312	12098
927.419	12197
927.525	12136
927.631	12140
927.737	12072
927.843	12003
927.95	11847
928.056	12011
928.162	12022
928.267	11996
928.373	12635
928.479	12026
928.585	11813
928.69	11851
928.796	11939
928.901	11745
929.007	11676
929.112	11802
929.218	11809
929.323	11691
929.428	11707
929.533	11794
929.638	11649
929.743	11668
929.848	11733
929.953	11615
930.058	11501
930.163	11406
930.267	11296
930.372	11493
930.477	11330
930.581	11638
930.685	11379
930.79	11280
930.894	11417
930.998	11277
931.103	11482
931.207	11086
931.311	10866
931.415	10873
931.519	10668
931.623	10710
