Data from test_V78500241_2090.txt Node
Date: Fri Mar 25 15:24:24 CST 2022
User: usil
Spectrometer: V785-0024
Trigger mode: 0
Integration Time (sec): 4.000000E-1
Scans to average: 1
Nonlinearity correction enabled: false
Boxcar width: 0
Storing dark spectrum: false
XAxis mode: Wavelengths
Number of Pixels in Spectrum: 1024
>>>>>Begin Spectral Data<<<<<
801.071	27770
801.214	27804
801.356	27694
801.499	27519
801.641	27382
801.783	27374
801.926	27340
802.068	27431
802.211	27268
802.353	27222
802.496	27085
802.638	27074
802.78	27055
802.923	26940
803.065	26899
803.208	26975
803.35	26982
803.492	27066
803.635	27089
803.777	26967
803.919	27123
804.061	27568
804.204	27260
804.346	27192
804.488	27173
804.63	27348
804.773	27226
804.915	27230
805.057	27344
805.199	27211
805.341	27382
805.483	27272
805.626	27386
805.768	27382
805.91	27287
806.052	27287
806.194	27336
806.336	27485
806.478	27340
806.62	27462
806.762	27458
806.904	27637
807.046	27854
807.188	27679
807.33	27903
807.472	27857
807.614	27644
807.756	27701
807.898	27720
808.04	27610
808.182	27580
808.324	27701
808.465	27759
808.607	27930
808.749	28051
808.891	28078
809.033	28219
809.174	28166
809.316	27979
809.458	27998
809.6	27987
809.741	28051
809.883	28112
810.025	28360
810.166	28188
810.308	28276
810.45	28139
810.591	28230
810.733	28074
810.875	27911
811.016	27892
811.158	27899
811.299	27968
811.441	28070
811.582	28124
811.724	28036
811.865	27854
812.007	28021
812.148	27880
812.29	28090
812.431	28333
812.573	28299
812.714	28386
812.855	28432
812.997	28565
813.138	28793
813.279	28561
813.421	28592
813.562	28405
813.703	28291
813.845	28162
813.986	27937
814.127	27983
814.268	27606
814.41	27709
814.551	27603
814.692	27903
814.833	27622
814.974	27507
815.115	27705
815.256	27492
815.397	27477
815.539	27633
815.68	27348
815.821	27443
815.962	27431
816.103	27538
816.244	27252
816.385	27355
816.526	27176
816.666	27104
816.807	26975
816.948	27020
817.089	27055
817.23	27036
817.371	27051
817.512	26880
817.653	26944
817.793	26826
817.934	26895
818.075	26891
818.216	26967
818.356	26880
818.497	26880
818.638	26651
818.778	26636
818.919	26678
819.06	26746
819.2	26686
819.341	26929
819.481	26891
819.622	27051
819.762	27298
819.903	27195
820.043	27138
820.184	27032
820.324	27127
820.465	27108
820.605	27062
820.746	27005
820.886	26864
821.026	26948
821.167	26948
821.307	27009
821.447	26902
821.588	26811
821.728	26663
821.868	26541
822.008	26514
822.149	26530
822.289	26484
822.429	26191
822.569	26031
822.709	26103
822.849	25860
822.99	25894
823.13	25807
823.27	25822
823.41	25647
823.55	25753
823.69	25658
823.83	25731
823.97	25662
824.11	25479
824.25	25457
824.389	25426
824.529	25556
824.669	25510
824.809	25731
824.949	25647
825.089	25719
825.228	25521
825.368	25278
825.508	25434
825.648	25518
825.787	25457
825.927	25578
826.067	25525
826.206	25369
826.346	25499
826.485	25464
826.625	25502
826.765	25670
826.904	25491
827.044	25285
827.183	25225
827.323	25122
827.462	25274
827.601	25209
827.741	25171
827.88	25145
828.02	25084
828.159	24981
828.298	25088
828.437	25240
828.577	25034
828.716	25301
828.855	25065
828.994	24844
829.134	24897
829.273	24821
829.412	24837
829.551	24817
829.69	24734
829.829	24852
829.968	24943
830.107	24848
830.246	24779
830.385	24673
830.524	24738
830.663	24528
830.802	24604
830.941	24483
831.08	24502
831.219	24601
831.357	24623
831.496	24665
831.635	24422
831.774	24304
831.913	24243
832.051	24285
832.19	24292
832.329	24186
832.467	24098
832.606	24064
832.744	24057
832.883	24087
833.022	24083
833.16	24129
833.299	24110
833.437	24076
833.576	24213
833.714	24232
833.852	24258
833.991	24148
834.129	24273
834.267	24277
834.406	24205
834.544	24220
834.682	24155
834.821	24190
834.959	24380
835.097	24106
835.235	24133
835.373	24018
835.511	24095
835.65	23954
835.788	24034
835.926	23954
836.064	23745
836.202	23802
836.34	24030
836.478	24083
836.615	23904
836.753	24022
836.891	24114
837.029	23901
837.167	24026
837.305	23927
837.443	23863
837.58	23859
837.718	23897
837.856	23828
837.993	23805
838.131	23794
838.269	23733
838.406	23741
838.544	23684
838.681	23516
838.819	23554
838.956	23326
839.094	23318
839.231	23318
839.369	23581
839.506	23551
839.643	23417
839.781	23364
839.918	23250
840.055	23337
840.193	23250
840.33	23322
840.467	23242
840.604	23299
840.742	23505
840.879	23029
841.016	23128
841.153	23044
841.29	23334
841.427	23212
841.564	23216
841.701	23307
841.838	23151
841.975	23113
842.112	23037
842.249	22968
842.385	22961
842.522	23185
842.659	23003
842.796	22980
842.933	23010
843.069	22763
843.206	23083
843.343	22965
843.479	22904
843.616	22915
843.752	22596
843.889	22820
844.025	22904
844.162	22641
844.298	22809
844.435	22641
844.571	22672
844.708	22828
844.844	22839
844.98	22786
845.117	22809
845.253	22748
845.389	22569
845.525	22641
845.661	22542
845.798	22497
845.934	22538
846.07	22394
846.206	22531
846.342	22630
846.478	22478
846.614	22272
846.75	22226
846.886	22276
847.022	22276
847.158	22272
847.294	22242
847.429	22040
847.565	22166
847.701	22512
847.837	21873
847.972	21854
848.108	21953
848.244	21960
848.379	21892
848.515	21819
848.65	21717
848.786	21774
848.921	21846
849.057	21888
849.192	21915
849.328	21865
849.463	21819
849.598	21835
849.734	21728
849.869	21781
850.004	21519
850.14	21568
850.275	21652
850.41	21454
850.545	21374
850.68	21412
850.815	21568
850.95	21553
851.085	21713
851.22	21701
851.355	21679
851.49	21481
851.625	21450
851.76	21447
851.895	21542
852.03	21538
852.165	21466
852.299	21576
852.434	21629
852.569	21553
852.703	21572
852.838	21595
852.973	21648
853.107	21755
853.242	21614
853.376	21397
853.511	21313
853.645	21348
853.78	21469
853.914	21397
854.048	21237
854.183	21294
854.317	21393
854.451	21648
854.585	21435
854.72	21317
854.854	21534
854.988	21317
855.122	21454
855.256	21302
855.39	21473
855.524	21397
855.658	21389
855.792	21450
855.926	21545
856.06	21477
856.194	21488
856.327	21382
856.461	21367
856.595	21355
856.729	21332
856.862	21496
856.996	21431
857.13	21538
857.263	21481
857.397	21450
857.53	21336
857.664	21241
857.797	21382
857.931	21469
858.064	21428
858.197	21488
858.331	21351
858.464	21298
858.597	21203
858.731	21412
858.864	21363
858.997	21397
859.13	21386
859.263	21408
859.396	21386
859.529	21302
859.662	21397
859.795	21325
859.928	21393
860.061	21458
860.194	21507
860.327	21519
860.46	21370
860.592	21454
860.725	21504
860.858	21545
860.99	21393
861.123	21195
861.256	21287
861.388	21553
861.521	21956
861.653	21211
861.786	21108
861.918	21214
862.05	21192
862.183	21355
862.315	21329
862.447	21310
862.58	21348
862.712	21039
862.844	21013
862.976	21146
863.108	21157
863.24	21481
863.372	21047
863.504	21058
863.636	21222
863.768	21066
863.9	21104
864.032	21077
864.164	21036
864.296	21055
864.428	21256
864.559	21146
864.691	21127
864.823	21017
864.954	21020
865.086	21123
865.217	21066
865.349	20891
865.48	21135
865.612	21039
865.743	21051
865.875	21024
866.006	20982
866.137	21032
866.269	21047
866.4	20998
866.531	20944
866.662	20823
866.793	20868
866.924	20868
867.055	21024
867.186	20979
867.317	20868
867.448	20921
867.579	20975
867.71	20781
867.841	20838
867.972	20956
868.103	20864
868.233	20910
868.364	20937
868.495	21070
868.625	21135
868.756	21245
868.886	21074
869.017	21226
869.147	21252
869.278	21203
869.408	21192
869.539	21165
869.669	21272
869.799	21062
869.929	21256
870.06	21264
870.19	21580
870.32	21542
870.45	21580
870.58	21583
870.71	21644
870.84	21595
870.97	21583
871.1	21583
871.23	21724
871.36	21778
871.489	21736
871.619	21778
871.749	21732
871.879	21808
872.008	21816
872.138	21838
872.267	21717
872.397	21660
872.526	21576
872.656	21500
872.785	21751
872.915	21698
873.044	21770
873.173	21743
873.303	21793
873.432	21869
873.561	21964
873.69	21766
873.819	21709
873.948	21736
874.077	21774
874.206	21797
874.335	21701
874.464	21903
874.593	22051
874.722	21778
874.851	21934
874.979	22112
875.108	22128
875.237	21964
875.365	21911
875.494	21915
875.623	21983
875.751	22055
875.88	22086
876.008	22162
876.136	22169
876.265	22341
876.393	22493
876.521	22459
876.65	22500
876.778	22436
876.906	22398
877.034	22371
877.162	22371
877.29	22188
877.418	22272
877.546	22246
877.674	22219
877.802	22284
877.93	22375
878.058	22318
878.185	22162
878.313	22276
878.441	22253
878.568	22242
878.696	22386
878.824	22173
878.951	22341
879.079	22542
879.206	22615
879.333	22470
879.461	22287
879.588	22348
879.715	22470
879.842	22580
879.97	22451
880.097	22173
880.224	22143
880.351	22325
880.478	22234
880.605	22204
880.732	22215
880.859	22257
880.986	22276
881.112	22120
881.239	21964
881.366	21907
881.493	21804
881.619	21728
881.746	21831
881.872	21705
881.999	21679
882.125	21648
882.252	21800
882.378	21618
882.505	21739
882.631	21462
882.757	21492
882.883	21447
883.01	21469
883.136	21386
883.262	21317
883.388	21283
883.514	21370
883.64	21408
883.766	21306
883.892	21252
884.018	21268
884.143	21412
884.269	21412
884.395	21123
884.52	21081
884.646	21112
884.772	20994
884.897	20906
885.023	20986
885.148	21241
885.274	21283
885.399	21275
885.524	21123
885.65	21089
885.775	21150
885.9	21169
886.025	21222
886.15	21165
886.275	21043
886.4	21001
886.525	21138
886.65	21028
886.775	21093
886.9	21176
887.025	21116
887.149	21062
887.274	20845
887.399	20826
887.523	20853
887.648	20819
887.773	20838
887.897	20960
888.021	20971
888.146	20682
888.27	20971
888.395	21039
888.519	20902
888.643	20883
888.767	20880
888.891	20868
889.015	20644
889.139	20762
889.263	20670
889.387	20735
889.511	20754
889.635	20823
889.759	20545
889.883	20594
890.006	20648
890.13	20716
890.254	20625
890.377	20560
890.501	20419
890.624	20404
890.748	20507
890.871	20446
890.995	20282
891.118	20081
891.241	20218
891.364	20240
891.488	20400
891.611	20221
891.734	20256
891.857	20187
891.98	20206
892.103	20294
892.226	20187
892.349	20145
892.471	20084
892.594	20111
892.717	20191
892.839	20180
892.962	20088
893.085	20267
893.207	20081
893.33	19951
893.452	20115
893.575	20092
893.697	20103
893.819	20271
893.941	20240
894.064	20309
894.186	20164
894.308	20145
894.43	20324
894.552	20313
894.674	20126
894.796	20062
894.918	20199
895.04	20069
895.161	20172
895.283	20176
895.405	20145
895.526	20157
895.648	20149
895.769	20134
895.891	20176
896.012	20183
896.134	20168
896.255	20103
896.376	20115
896.498	20092
896.619	20092
896.74	20092
896.861	20256
896.982	20393
897.103	20442
897.224	20381
897.345	20427
897.466	20294
897.587	20286
897.708	20507
897.828	20465
897.949	20240
898.07	20191
898.19	20309
898.311	20317
898.431	20233
898.552	20244
898.672	20492
898.792	20393
898.913	20320
899.033	20259
899.153	20100
899.273	19993
899.393	20145
899.513	19967
899.633	20077
899.753	20054
899.873	19978
899.993	20054
900.113	19925
900.232	20005
900.352	20054
900.472	19947
900.591	19818
900.711	19788
900.83	19765
900.95	19967
901.069	19928
901.189	19723
901.308	19400
901.427	19483
901.546	19525
901.665	19434
901.784	19407
901.904	19301
902.023	19152
902.141	19114
902.26	19012
902.379	18962
902.498	19065
902.617	18932
902.735	18958
902.854	18833
902.973	18852
903.091	18681
903.21	18700
903.328	18684
903.446	18555
903.565	18384
903.683	18547
903.801	18327
903.919	18494
904.038	18243
904.156	18369
904.274	18304
904.392	18148
904.51	18254
904.627	18171
904.745	18289
904.863	18315
904.981	17988
905.098	17863
905.216	17939
905.334	17878
905.451	17920
905.569	17824
905.686	17916
905.803	17691
905.921	17805
906.038	17695
906.155	17604
906.272	17486
906.389	17665
906.506	17402
906.623	17497
906.74	17364
906.857	17341
906.974	17318
907.091	17440
907.208	17566
907.324	17474
907.441	17376
907.557	17140
907.674	17140
907.79	16972
907.907	17185
908.023	17121
908.139	17067
908.256	17102
908.372	17029
908.488	17060
908.604	16900
908.72	16771
908.836	16828
908.952	16801
909.068	16824
909.184	16942
909.3	16824
909.415	16881
909.531	16858
909.647	16577
909.762	16550
909.878	16474
909.993	16531
910.108	16481
910.224	16500
910.339	16466
910.454	16447
910.57	16356
910.685	16268
910.8	16497
910.915	16455
911.03	16329
911.145	16230
911.259	16150
911.374	16051
911.489	16067
911.604	15979
911.718	15873
911.833	15915
911.947	15823
912.062	15743
912.176	15838
912.291	15838
912.405	15816
912.519	16074
912.633	15998
912.748	16021
912.862	15804
912.976	15713
913.09	15515
913.204	15724
913.318	15679
913.431	15816
913.545	15804
913.659	15895
913.772	15648
913.886	15485
914	15534
914.113	15614
914.226	15526
914.34	15576
914.453	15416
914.566	15458
914.68	15370
914.793	15302
914.906	15332
915.019	15150
915.132	15077
915.245	15039
915.358	15154
915.47	15112
915.583	15169
915.696	15093
915.809	15192
915.921	15157
916.034	15081
916.146	15028
916.259	15077
916.371	15043
916.483	15085
916.595	15074
916.708	14941
916.82	15013
916.932	14918
917.044	14838
917.156	14918
917.268	14746
917.38	14724
917.491	14800
917.603	14842
917.715	14857
917.826	14895
917.938	14758
918.049	14564
918.161	14746
918.272	14815
918.384	14838
918.495	14697
918.606	14602
918.717	14530
918.828	14514
918.939	14556
919.05	14537
919.161	14488
919.272	14377
919.383	14366
919.494	14579
919.604	14746
919.715	14545
919.826	14533
919.936	14549
920.047	14469
920.157	14522
920.267	14602
920.378	14465
920.488	14438
920.598	14617
920.708	14785
920.818	14674
920.928	14571
921.038	14876
921.148	14648
921.258	14358
921.368	14366
921.477	14252
921.587	14259
921.697	14081
921.806	14267
921.916	14073
922.025	13864
922.134	13864
922.244	13788
922.353	13940
922.462	13670
922.571	13662
922.68	13499
922.789	13518
922.898	13502
923.007	13419
923.116	13483
923.224	13472
923.333	13438
923.442	13407
923.55	13415
923.659	13415
923.767	13419
923.876	13308
923.984	13308
924.092	13285
924.201	13278
924.309	13304
924.417	13312
924.525	13187
924.633	13137
924.741	13967
924.849	12905
924.956	13118
925.064	12996
925.172	12890
925.279	12848
925.387	12913
925.494	12939
925.602	13027
925.709	12890
925.816	12867
925.924	12901
926.031	13027
926.138	12837
926.245	12852
926.352	12734
926.459	12848
926.566	12951
926.673	12882
926.779	12631
926.886	12642
926.993	12445
927.099	12498
927.206	12422
927.312	12483
927.419	12563
927.525	12479
927.631	12475
927.737	12243
927.843	12365
927.95	12232
928.056	12296
928.162	12346
928.267	12372
928.373	12913
928.479	12323
928.585	12098
928.69	12194
928.796	12330
928.901	12201
929.007	12076
929.112	12190
929.218	12152
929.323	12030
929.428	12038
929.533	12159
929.638	12003
929.743	11958
929.848	12030
929.953	11923
930.058	11885
930.163	11707
930.267	11695
930.372	11843
930.477	11615
930.581	11954
930.685	11813
930.79	11585
930.894	11619
930.998	11623
931.103	11767
931.207	11440
931.311	11360
931.415	11223
931.519	11025
931.623	10904
