Data from test_V78500241_3554.txt Node
Date: Fri Mar 25 15:34:36 CST 2022
User: usil
Spectrometer: V785-0024
Trigger mode: 0
Integration Time (sec): 4.000000E-1
Scans to average: 1
Nonlinearity correction enabled: false
Boxcar width: 0
Storing dark spectrum: false
XAxis mode: Wavelengths
Number of Pixels in Spectrum: 1024
>>>>>Begin Spectral Data<<<<<
801.071	27237
801.214	27184
801.356	26872
801.499	26834
801.641	26880
801.783	26880
801.926	26864
802.068	26762
802.211	26746
802.353	26621
802.496	26556
802.638	26377
802.78	26324
802.923	26320
803.065	26347
803.208	26336
803.35	26374
803.492	26434
803.635	26568
803.777	26358
803.919	26415
804.061	26960
804.204	26670
804.346	26537
804.488	26651
804.63	26541
804.773	26374
804.915	26503
805.057	26651
805.199	26590
805.341	26568
805.483	26648
805.626	26598
805.768	26461
805.91	26720
806.052	26750
806.194	26697
806.336	26929
806.478	26613
806.62	26785
806.762	26731
806.904	26918
807.046	27321
807.188	27096
807.33	26990
807.472	27104
807.614	27055
807.756	27036
807.898	26815
808.04	26929
808.182	26663
808.324	26944
808.465	26937
808.607	27085
808.749	27214
808.891	27412
809.033	27458
809.174	27325
809.316	27268
809.458	27332
809.6	27203
809.741	27329
809.883	27504
810.025	27370
810.166	27523
810.308	27523
810.45	27447
810.591	27656
810.733	27397
810.875	27252
811.016	27173
811.158	27199
811.299	27447
811.441	27260
811.582	27526
811.724	27336
811.865	27039
812.007	27150
812.148	27211
812.29	27367
812.431	27473
812.573	27557
812.714	27652
812.855	27728
812.997	27800
813.138	28013
813.279	27873
813.421	27717
813.562	27690
813.703	27557
813.845	27359
813.986	27108
814.127	26967
814.268	27047
814.41	26910
814.551	26811
814.692	26979
814.833	26826
814.974	26933
815.115	26940
815.256	26731
815.397	26853
815.539	26800
815.68	26636
815.821	26667
815.962	26807
816.103	26568
816.244	26514
816.385	26434
816.526	26507
816.666	26240
816.807	26134
816.948	26358
817.089	26206
817.23	26305
817.371	26191
817.512	26233
817.653	26214
817.793	26142
817.934	26073
818.075	26259
818.216	26122
818.356	26050
818.497	26031
818.638	25978
818.778	25890
818.919	25997
819.06	25970
819.2	26138
819.341	26153
819.481	26221
819.622	26343
819.762	26469
819.903	26415
820.043	26488
820.184	26400
820.324	26240
820.465	26320
820.605	26275
820.746	26221
820.886	26161
821.026	26229
821.167	26126
821.307	26259
821.447	26103
821.588	26024
821.728	26039
821.868	25738
822.008	25719
822.149	25651
822.289	25681
822.429	25411
822.569	25301
822.709	25354
822.849	25118
822.99	25004
823.13	25053
823.27	25118
823.41	25027
823.55	24909
823.69	25038
823.83	24905
823.97	24878
824.11	24722
824.25	24768
824.389	24787
824.529	24909
824.669	24875
824.809	24863
824.949	24863
825.089	24871
825.228	24894
825.368	24601
825.508	24620
825.648	24604
825.787	24665
825.927	24692
826.067	24669
826.206	24688
826.346	24658
826.485	24722
826.625	24639
826.765	24768
826.904	24726
827.044	24532
827.183	24471
827.323	24369
827.462	24429
827.601	24308
827.741	24350
827.88	24300
828.02	24323
828.159	24327
828.298	24346
828.437	24384
828.577	24350
828.716	24426
828.855	24292
828.994	24102
829.134	24144
829.273	24148
829.412	24057
829.551	24030
829.69	24129
829.829	24079
829.968	24057
830.107	24254
830.246	24110
830.385	24148
830.524	24045
830.663	23889
830.802	23901
830.941	23794
831.08	23889
831.219	23794
831.357	23790
831.496	23965
831.635	23790
831.774	23627
831.913	23600
832.051	23478
832.19	23493
832.329	23459
832.467	23433
832.606	23337
832.744	23376
832.883	23364
833.022	23341
833.16	23402
833.299	23269
833.437	23452
833.576	23482
833.714	23353
833.852	23463
833.991	23509
834.129	23486
834.267	23539
834.406	23547
834.544	23505
834.682	23577
834.821	23425
834.959	23661
835.097	23406
835.235	23471
835.373	23573
835.511	23448
835.65	23341
835.788	23417
835.926	23227
836.064	23277
836.202	23109
836.34	23284
836.478	23395
836.615	23330
836.753	23200
836.891	23322
837.029	23277
837.167	23303
837.305	23231
837.443	23242
837.58	23166
837.718	23280
837.856	23193
837.993	23250
838.131	23216
838.269	22866
838.406	23044
838.544	22923
838.681	22793
838.819	22809
838.956	22713
839.094	22577
839.231	22603
839.369	22816
839.506	22949
839.643	22835
839.781	22630
839.918	22569
840.055	22774
840.193	22546
840.33	22523
840.467	22550
840.604	22561
840.742	22953
840.879	22500
841.016	22542
841.153	22432
841.29	22675
841.427	22664
841.564	22626
841.701	22569
841.838	22409
841.975	22436
842.112	22622
842.249	22481
842.385	22223
842.522	22561
842.659	22436
842.796	22322
842.933	22291
843.069	22382
843.206	22459
843.343	22363
843.479	22272
843.616	22405
843.752	22128
843.889	22177
844.025	22128
844.162	22082
844.298	22249
844.435	22177
844.571	22082
844.708	22196
844.844	22166
844.98	22211
845.117	22166
845.253	22048
845.389	22036
845.525	21991
845.661	21960
845.798	21907
845.934	21915
846.07	21831
846.206	21789
846.342	21953
846.478	21797
846.614	21713
846.75	21576
846.886	21519
847.022	21694
847.158	21603
847.294	21568
847.429	21583
847.565	21583
847.701	21842
847.837	21325
847.972	21298
848.108	21397
848.244	21378
848.379	21275
848.515	21199
848.65	21226
848.786	21207
848.921	21218
849.057	21241
849.192	21329
849.328	21230
849.463	21081
849.598	21085
849.734	21062
849.869	21154
850.004	20975
850.14	20998
850.275	21013
850.41	21036
850.545	20899
850.68	20891
850.815	20971
850.95	20910
851.085	21184
851.22	20960
851.355	21051
851.49	20986
851.625	20876
851.76	21017
851.895	20804
852.03	20876
852.165	20944
852.299	20979
852.434	20952
852.569	20902
852.703	20971
852.838	20918
852.973	20963
853.107	20986
853.242	20998
853.376	20773
853.511	20632
853.645	20792
853.78	20952
853.914	20845
854.048	20777
854.183	20815
854.317	20727
854.451	20963
854.585	20819
854.72	20815
854.854	20868
854.988	20731
855.122	20792
855.256	20590
855.39	20788
855.524	20807
855.658	20663
855.792	20830
855.926	20792
856.06	20918
856.194	20796
856.327	20872
856.461	20705
856.595	20731
856.729	20697
856.862	20823
856.996	20705
857.13	20842
857.263	20800
857.397	20861
857.53	20708
857.664	20731
857.797	20845
857.931	20777
858.064	20663
858.197	20762
858.331	20701
858.464	20777
858.597	20667
858.731	20705
858.864	20762
858.997	20796
859.13	20773
859.263	20781
859.396	20914
859.529	20800
859.662	20629
859.795	20609
859.928	20678
860.061	20899
860.194	20918
860.327	20834
860.46	20800
860.592	20929
860.725	21043
860.858	20872
860.99	20891
861.123	20724
861.256	20632
861.388	20727
861.521	21507
861.653	20754
861.786	20670
861.918	20678
862.05	20701
862.183	20663
862.315	20575
862.447	20842
862.58	20583
862.712	20454
862.844	20408
862.976	20537
863.108	20644
863.24	20899
863.372	20442
863.504	20522
863.636	20465
863.768	20537
863.9	20434
864.032	20469
864.164	20450
864.296	20412
864.428	20636
864.559	20518
864.691	20465
864.823	20457
864.954	20419
865.086	20434
865.217	20370
865.349	20328
865.48	20385
865.612	20461
865.743	20442
865.875	20400
866.006	20381
866.137	20476
866.269	20404
866.4	20393
866.531	20317
866.662	20267
866.793	20332
866.924	20263
867.055	20374
867.186	20408
867.317	20454
867.448	20225
867.579	20267
867.71	20183
867.841	20309
867.972	20336
868.103	20355
868.233	20305
868.364	20396
868.495	20465
868.625	20590
868.756	20720
868.886	20423
869.017	20552
869.147	20598
869.278	20686
869.408	20663
869.539	20590
869.669	20644
869.799	20640
869.929	20606
870.06	20716
870.19	20918
870.32	20937
870.45	20910
870.58	20960
870.71	21032
870.84	21005
870.97	21116
871.1	21020
871.23	21275
871.36	21218
871.489	21047
871.619	21123
871.749	21169
871.879	21214
872.008	21317
872.138	21268
872.267	21195
872.397	21096
872.526	21081
872.656	21093
872.785	21013
872.915	21298
873.044	21241
873.173	21192
873.303	21268
873.432	21249
873.561	21294
873.69	21256
873.819	21252
873.948	21226
874.077	21226
874.206	21226
874.335	21100
874.464	21439
874.593	21564
874.722	21310
874.851	21511
874.979	21458
875.108	21466
875.237	21340
875.365	21344
875.494	21382
875.623	21519
875.751	21370
875.88	21511
876.008	21564
876.136	21663
876.265	21937
876.393	21968
876.521	21956
876.65	21991
876.778	21915
876.906	21865
877.034	21812
877.162	21781
877.29	21736
877.418	21915
877.546	21747
877.674	21800
877.802	21922
877.93	21797
878.058	21732
878.185	21667
878.313	21728
878.441	21762
878.568	21747
878.696	21739
878.824	21873
878.951	21838
879.079	22010
879.206	22128
879.333	21918
879.461	21979
879.588	21930
879.715	21934
879.842	22219
879.97	21918
880.097	21724
880.224	21545
880.351	21648
880.478	21526
880.605	21454
880.732	21568
880.859	21800
880.986	21553
881.112	21591
881.239	21477
881.366	21348
881.493	21291
881.619	21291
881.746	21203
881.872	21195
881.999	21192
882.125	21195
882.252	21165
882.378	21214
882.505	21370
882.631	21051
882.757	20979
882.883	21032
883.01	20979
883.136	20800
883.262	20750
883.388	20792
883.514	20880
883.64	21036
883.766	20830
883.892	20739
884.018	20830
884.143	20773
884.269	20944
884.395	20655
884.52	20644
884.646	20552
884.772	20450
884.897	20495
885.023	20587
885.148	20731
885.274	20663
885.399	20655
885.524	20564
885.65	20522
885.775	20545
885.9	20480
886.025	20655
886.15	20518
886.275	20480
886.4	20522
886.525	20609
886.65	20442
886.775	20427
886.9	20651
887.025	20769
887.149	20514
887.274	20370
887.399	20347
887.523	20339
887.648	20275
887.773	20210
887.897	20358
888.021	20294
888.146	20317
888.27	20355
888.395	20465
888.519	20442
888.643	20442
888.767	20298
888.891	20237
889.015	20138
889.139	20161
889.263	20107
889.387	20237
889.511	20332
889.635	20305
889.759	20176
889.883	20233
890.006	20096
890.13	20221
890.254	20050
890.377	20111
890.501	19959
890.624	19784
890.748	19879
890.871	19647
890.995	19742
891.118	19639
891.241	19750
891.364	19784
891.488	19830
891.611	19647
891.734	19719
891.857	19647
891.98	19734
892.103	19830
892.226	19601
892.349	19670
892.471	19552
892.594	19552
892.717	19647
892.839	19651
892.962	19616
893.085	19715
893.207	19677
893.33	19537
893.452	19601
893.575	19658
893.697	19632
893.819	19674
893.941	19940
894.064	19837
894.186	19590
894.308	19556
894.43	19670
894.552	19818
894.674	19635
894.796	19609
894.918	19597
895.04	19674
895.161	19856
895.283	19635
895.405	19628
895.526	19628
895.648	19575
895.769	19647
895.891	19696
896.012	19666
896.134	19765
896.255	19613
896.376	19696
896.498	19635
896.619	19696
896.74	19658
896.861	19685
896.982	19986
897.103	20081
897.224	19936
897.345	19928
897.466	19841
897.587	19936
897.708	19913
897.828	19997
897.949	19890
898.07	19723
898.19	19780
898.311	19822
898.431	19841
898.552	19909
898.672	19902
898.792	19883
898.913	19868
899.033	19772
899.153	19575
899.273	19506
899.393	19586
899.513	19723
899.633	19567
899.753	19552
899.873	19597
899.993	19601
900.113	19590
900.232	19601
900.352	19529
900.472	19400
900.591	19472
900.711	19228
900.83	19308
900.95	19502
901.069	19441
901.189	19392
901.308	18977
901.427	18966
901.546	18924
901.665	19072
901.784	19027
901.904	18897
902.023	18684
902.141	18681
902.26	18464
902.379	18631
902.498	18551
902.617	18342
902.735	18471
902.854	18578
902.973	18365
903.091	18155
903.21	18209
903.328	18174
903.446	18057
903.565	17999
903.683	17988
903.801	17863
903.919	17954
904.038	17908
904.156	17748
904.274	17836
904.392	17790
904.51	17752
904.627	17729
904.745	17904
904.863	17824
904.981	17646
905.098	17440
905.216	17459
905.334	17539
905.451	17440
905.569	17410
905.686	17448
905.803	17421
905.921	17322
906.038	17284
906.155	17311
906.272	17151
906.389	17147
906.506	16961
906.623	16911
906.74	16953
906.857	16877
906.974	16885
907.091	17033
907.208	17098
907.324	16949
907.441	16809
907.557	16793
907.674	16721
907.79	16664
907.907	16615
908.023	16687
908.139	16698
908.256	16584
908.372	16527
908.488	16523
908.604	16462
908.72	16390
908.836	16493
908.952	16432
909.068	16432
909.184	16588
909.3	16356
909.415	16470
909.531	16394
909.647	16086
909.762	16177
909.878	16082
909.993	16116
910.108	16173
910.224	16116
910.339	16150
910.454	15922
910.57	15968
910.685	15865
910.8	16078
910.915	16036
911.03	15884
911.145	15812
911.259	15835
911.374	15675
911.489	15557
911.604	15584
911.718	15481
911.833	15481
911.947	15393
912.062	15340
912.176	15515
912.291	15488
912.405	15477
912.519	15656
912.633	15633
912.748	15488
912.862	15462
912.976	15370
913.09	15268
913.204	15207
913.318	15302
913.431	15313
913.545	15359
913.659	15397
913.772	15260
913.886	15203
914	15173
914.113	15169
914.226	15249
914.34	15108
914.453	15043
914.566	15142
914.68	15074
914.793	15005
914.906	14830
915.019	14758
915.132	14625
915.245	14693
915.358	14693
915.47	14697
915.583	14686
915.696	14746
915.809	14769
915.921	14937
916.034	14727
916.146	14575
916.259	14663
916.371	14724
916.483	14769
916.595	14518
916.708	14571
916.82	14575
916.932	14522
917.044	14541
917.156	14545
917.268	14415
917.38	14381
917.491	14396
917.603	14343
917.715	14454
917.826	14442
917.938	14294
918.049	14187
918.161	14336
918.272	14522
918.384	14511
918.495	14381
918.606	14278
918.717	14100
918.828	14123
918.939	14183
919.05	14073
919.161	14142
919.272	14016
919.383	14035
919.494	14145
919.604	14305
919.715	14050
919.826	14012
919.936	14134
920.047	14229
920.157	14039
920.267	14393
920.378	14259
920.488	14073
920.598	14309
920.708	14385
920.818	14309
920.928	14233
921.038	14454
921.148	14347
921.258	14050
921.368	14035
921.477	13932
921.587	13986
921.697	13696
921.806	13868
921.916	13613
922.025	13601
922.134	13578
922.244	13468
922.353	13582
922.462	13377
922.571	13289
922.68	13202
922.789	13194
922.898	13137
923.007	13171
923.116	13156
923.224	13122
923.333	13236
923.442	13027
923.55	12985
923.659	13000
923.767	13088
923.876	12935
923.984	13038
924.092	12894
924.201	12989
924.309	12875
924.417	12901
924.525	12890
924.633	12897
924.741	13677
924.849	12681
924.956	12848
925.064	12654
925.172	12574
925.279	12612
925.387	12658
925.494	12662
925.602	12753
925.709	12536
925.816	12464
925.924	12467
926.031	12696
926.138	12559
926.245	12616
926.352	12403
926.459	12631
926.566	12646
926.673	12528
926.779	12388
926.886	12426
926.993	12197
927.099	12224
927.206	12148
927.312	12228
927.419	12292
927.525	12209
927.631	12262
927.737	12045
927.843	12049
927.95	11973
928.056	12068
928.162	11996
928.267	12091
928.373	12544
928.479	12133
928.585	11885
928.69	11939
928.796	12015
928.901	11893
929.007	11748
929.112	11882
929.218	11836
929.323	11779
929.428	11813
929.533	11942
929.638	11684
929.743	11741
929.848	11775
929.953	11729
930.058	11558
930.163	11467
930.267	11543
930.372	11608
930.477	11455
930.581	11615
930.685	11581
930.79	11406
930.894	11330
930.998	11345
931.103	11463
931.207	11006
931.311	11022
931.415	10942
931.519	10702
931.623	10740
