Data from test_V78500241_801.txt Node
Date: Fri Mar 25 15:15:26 CST 2022
User: usil
Spectrometer: V785-0024
Trigger mode: 0
Integration Time (sec): 4.000000E-1
Scans to average: 1
Nonlinearity correction enabled: false
Boxcar width: 0
Storing dark spectrum: false
XAxis mode: Wavelengths
Number of Pixels in Spectrum: 1024
>>>>>Begin Spectral Data<<<<<
801.071	28280
801.214	28158
801.356	28036
801.499	27934
801.641	27861
801.783	27861
801.926	27789
802.068	27857
802.211	27717
802.353	27622
802.496	27504
802.638	27469
802.78	27564
802.923	27485
803.065	27557
803.208	27549
803.35	27473
803.492	27610
803.635	27530
803.777	27610
803.919	27694
804.061	27884
804.204	27759
804.346	27709
804.488	27644
804.63	27656
804.773	27564
804.915	27660
805.057	27873
805.199	27819
805.341	27576
805.483	27914
805.626	27922
805.768	27686
805.91	27831
806.052	27774
806.194	27762
806.336	28025
806.478	27774
806.62	27956
806.762	27964
806.904	28128
807.046	28394
807.188	28314
807.33	28223
807.472	28242
807.614	27994
807.756	28234
807.898	28070
808.04	28257
808.182	28147
808.324	28090
808.465	28196
808.607	28398
808.749	28519
808.891	28459
809.033	28645
809.174	28523
809.316	28474
809.458	28557
809.6	28428
809.741	28565
809.883	28740
810.025	28786
810.166	28691
810.308	28812
810.45	28801
810.591	28653
810.733	28588
810.875	28546
811.016	28497
811.158	28371
811.299	28645
811.441	28713
811.582	28691
811.724	28569
811.865	28299
812.007	28394
812.148	28447
812.29	28527
812.431	28888
812.573	28843
812.714	29010
812.855	29159
812.997	29216
813.138	29299
813.279	29296
813.421	29064
813.562	29018
813.703	29025
813.845	28767
813.986	28561
814.127	28318
814.268	28295
814.41	28226
814.551	28310
814.692	28325
814.833	28200
814.974	28261
815.115	28337
815.256	28021
815.397	28204
815.539	28139
815.68	28036
815.821	28040
815.962	28048
816.103	28090
816.244	27835
816.385	27865
816.526	27694
816.666	27743
816.807	27583
816.948	27572
817.089	27717
817.23	27629
817.371	27637
817.512	27526
817.653	27561
817.793	27637
817.934	27564
818.075	27504
818.216	27606
818.356	27481
818.497	27561
818.638	27237
818.778	27389
818.919	27397
819.06	27279
819.2	27443
819.341	27507
819.481	27553
819.622	27671
819.762	27991
819.903	27789
820.043	27720
820.184	27701
820.324	27709
820.465	27770
820.605	27747
820.746	27637
820.886	27580
821.026	27572
821.167	27648
821.307	27823
821.447	27599
821.588	27488
821.728	27370
821.868	27161
822.008	27047
822.149	26933
822.289	26937
822.429	26750
822.569	26769
822.709	26678
822.849	26469
822.99	26522
823.13	26446
823.27	26556
823.41	26393
823.55	26301
823.69	26336
823.83	26370
823.97	26412
824.11	26138
824.25	26290
824.389	26138
824.529	26187
824.669	26199
824.809	26473
824.949	26183
825.089	26453
825.228	26195
825.368	25936
825.508	25997
825.648	26065
825.787	26149
825.927	26252
826.067	25982
826.206	25944
826.346	26084
826.485	26050
826.625	26134
826.765	26119
826.904	26142
827.044	25849
827.183	25795
827.323	25746
827.462	25917
827.601	25742
827.741	25841
827.88	25791
828.02	25723
828.159	25719
828.298	25708
828.437	25715
828.577	25723
828.716	25913
828.855	25727
828.994	25468
829.134	25411
829.273	25483
829.412	25552
829.551	25331
829.69	25544
829.829	25525
829.968	25502
830.107	25483
830.246	25441
830.385	25422
830.524	25312
830.663	25228
830.802	25080
830.941	25050
831.08	24985
831.219	25168
831.357	25095
831.496	25327
831.635	24992
831.774	25038
831.913	24970
832.051	24749
832.19	24856
832.329	24886
832.467	24905
832.606	24719
832.744	24753
832.883	24738
833.022	24673
833.16	24700
833.299	24817
833.437	24776
833.576	24859
833.714	24711
833.852	24867
833.991	24913
834.129	24856
834.267	24932
834.406	24833
834.544	24897
834.682	24829
834.821	24795
834.959	24932
835.097	24760
835.235	24932
835.373	24772
835.511	24715
835.65	24559
835.788	24764
835.926	24475
836.064	24547
836.202	24551
836.34	24578
836.478	24681
836.615	24650
836.753	24673
836.891	24684
837.029	24753
837.167	24654
837.305	24521
837.443	24422
837.58	24570
837.718	24593
837.856	24471
837.993	24407
838.131	24410
838.269	24384
838.406	24460
838.544	24171
838.681	24087
838.819	24243
838.956	23863
839.094	23969
839.231	23901
839.369	24098
839.506	24258
839.643	24148
839.781	23920
839.918	23824
840.055	23980
840.193	23920
840.33	23847
840.467	23745
840.604	23931
840.742	24144
840.879	23764
841.016	23840
841.153	23703
841.29	23874
841.427	23798
841.564	23832
841.701	23828
841.838	23836
841.975	23764
842.112	23745
842.249	23649
842.385	23589
842.522	23836
842.659	23748
842.796	23695
842.933	23687
843.069	23554
843.206	23425
843.343	23680
843.479	23703
843.616	23714
843.752	23395
843.889	23486
844.025	23608
844.162	23353
844.298	23501
844.435	23398
844.571	23364
844.708	23459
844.844	23531
844.98	23501
845.117	23482
845.253	23356
845.389	23364
845.525	23303
845.661	23269
845.798	23132
845.934	23155
846.07	23086
846.206	23250
846.342	23261
846.478	23044
846.614	22930
846.75	22755
846.886	22759
847.022	22938
847.158	22843
847.294	22923
847.429	22850
847.565	22831
847.701	23025
847.837	22660
847.972	22683
848.108	22698
848.244	22637
848.379	22497
848.515	22424
848.65	22440
848.786	22440
848.921	22497
849.057	22478
849.192	22554
849.328	22527
849.463	22428
849.598	22428
849.734	22181
849.869	22306
850.004	22204
850.14	22204
850.275	22219
850.41	22090
850.545	22135
850.68	22169
850.815	22246
850.95	22112
851.085	22356
851.22	22356
851.355	22299
851.49	22181
851.625	22097
851.76	22188
851.895	22078
852.03	22040
852.165	22219
852.299	22234
852.434	22238
852.569	22318
852.703	22257
852.838	22284
852.973	22394
853.107	22226
853.242	22055
853.376	22013
853.511	21888
853.645	22013
853.78	22200
853.914	22048
854.048	21930
854.183	22025
854.317	22131
854.451	22242
854.585	22063
854.72	22010
854.854	22063
854.988	21937
855.122	22109
855.256	21869
855.39	22013
855.524	22029
855.658	22006
855.792	22078
855.926	22025
856.06	22105
856.194	22048
856.327	21934
856.461	21846
856.595	21899
856.729	22010
856.862	22181
856.996	22078
857.13	22124
857.263	22067
857.397	22074
857.53	22074
857.664	21964
857.797	22154
857.931	22105
858.064	21994
858.197	22215
858.331	22051
858.464	21949
858.597	21812
858.731	22040
858.864	21960
858.997	21865
859.13	22150
859.263	22006
859.396	22109
859.529	21895
859.662	21956
859.795	22025
859.928	22013
860.061	22101
860.194	22158
860.327	21945
860.46	21892
860.592	22101
860.725	22154
860.858	22215
860.99	22090
861.123	21994
861.256	21922
861.388	22048
861.521	22733
861.653	21960
861.786	21739
861.918	21857
862.05	21751
862.183	21876
862.315	21895
862.447	22006
862.58	21934
862.712	21644
862.844	21671
862.976	21800
863.108	21804
863.24	22177
863.372	21713
863.504	21766
863.636	21720
863.768	21812
863.9	21762
864.032	21644
864.164	21694
864.296	21770
864.428	21873
864.559	21755
864.691	21835
864.823	21762
864.954	21644
865.086	21686
865.217	21736
865.349	21583
865.48	21694
865.612	21599
865.743	21705
865.875	21633
866.006	21603
866.137	21686
866.269	21595
866.4	21568
866.531	21496
866.662	21542
866.793	21458
866.924	21564
867.055	21519
867.186	21431
867.317	21466
867.448	21428
867.579	21542
867.71	21462
867.841	21488
867.972	21629
868.103	21420
868.233	21534
868.364	21542
868.495	21675
868.625	21850
868.756	21907
868.886	21641
869.017	21713
869.147	21865
869.278	21903
869.408	21808
869.539	21793
869.669	21899
869.799	21850
869.929	21979
870.06	21915
870.19	22082
870.32	21998
870.45	22105
870.58	22063
870.71	22246
870.84	22200
870.97	22223
871.1	22162
871.23	22405
871.36	22360
871.489	22299
871.619	22230
871.749	22363
871.879	22497
872.008	22405
872.138	22363
872.267	22314
872.397	22185
872.526	22261
872.656	22162
872.785	22215
872.915	22470
873.044	22497
873.173	22344
873.303	22447
873.432	22413
873.561	22409
873.69	22379
873.819	22287
873.948	22344
874.077	22390
874.206	22318
874.335	22367
874.464	22413
874.593	22592
874.722	22478
874.851	22626
874.979	22637
875.108	22535
875.237	22512
875.365	22489
875.494	22523
875.623	22645
875.751	22542
875.88	22786
876.008	22755
876.136	22752
876.265	23079
876.393	23098
876.521	22991
876.65	23052
876.778	22850
876.906	22812
877.034	22828
877.162	22987
877.29	22866
877.418	22816
877.546	22946
877.674	22820
877.802	22987
877.93	22930
878.058	22820
878.185	22786
878.313	22843
878.441	22957
878.568	22717
878.696	22793
878.824	22938
878.951	22999
879.079	23151
879.206	23102
879.333	23014
879.461	22991
879.588	22961
879.715	23151
879.842	23277
879.97	22984
880.097	22809
880.224	22573
880.351	22820
880.478	22790
880.605	22687
880.732	22637
880.859	22869
880.986	22820
881.112	22793
881.239	22793
881.366	22459
881.493	22371
881.619	22310
881.746	22284
881.872	22276
881.999	22284
882.125	22272
882.252	22124
882.378	22234
882.505	22413
882.631	22276
882.757	22017
882.883	22063
883.01	21937
883.136	21975
883.262	21884
883.388	21701
883.514	21987
883.64	22006
883.766	21956
883.892	21720
884.018	21724
884.143	21865
884.269	22017
884.395	21675
884.52	21690
884.646	21739
884.772	21625
884.897	21580
885.023	21599
885.148	21663
885.274	21888
885.399	21618
885.524	21656
885.65	21690
885.775	21652
885.9	21667
886.025	21770
886.15	21778
886.275	21622
886.4	21671
886.525	21614
886.65	21701
886.775	21599
886.9	21854
887.025	21915
887.149	21679
887.274	21477
887.399	21370
887.523	21405
887.648	21439
887.773	21283
887.897	21511
888.021	21420
888.146	21363
888.27	21450
888.395	21405
888.519	21397
888.643	21367
888.767	21382
888.891	21272
889.015	21230
889.139	21283
889.263	21180
889.387	21374
889.511	21507
889.635	21302
889.759	21211
889.883	21165
890.006	21176
890.13	21272
890.254	21081
890.377	21112
890.501	21005
890.624	20914
890.748	21024
890.871	20769
890.995	20746
891.118	20625
891.241	20743
891.364	20792
891.488	20826
891.611	20788
891.734	20765
891.857	20796
891.98	20800
892.103	20777
892.226	20743
892.349	20819
892.471	20552
892.594	20632
892.717	20720
892.839	20583
892.962	20716
893.085	20674
893.207	20670
893.33	20499
893.452	20552
893.575	20750
893.697	20655
893.819	20811
893.941	20853
894.064	20735
894.186	20571
894.308	20427
894.43	20712
894.552	20796
894.674	20708
894.796	20583
894.918	20629
895.04	20518
895.161	20697
895.283	20480
895.405	20674
895.526	20575
895.648	20518
895.769	20655
895.891	20781
896.012	20648
896.134	20746
896.255	20655
896.376	20670
896.498	20549
896.619	20545
896.74	20587
896.861	20632
896.982	20952
897.103	21089
897.224	20952
897.345	20819
897.466	20807
897.587	20845
897.708	20895
897.828	20811
897.949	20834
898.07	20648
898.19	20727
898.311	20899
898.431	20724
898.552	20864
898.672	20902
898.792	20899
898.913	20849
899.033	20765
899.153	20499
899.273	20522
899.393	20606
899.513	20602
899.633	20526
899.753	20545
899.873	20583
899.993	20522
900.113	20613
900.232	20552
900.352	20412
900.472	20385
900.591	20214
900.711	20427
900.83	20252
900.95	20473
901.069	20408
901.189	20256
901.308	20062
901.427	19890
901.546	19940
901.665	19947
901.784	19986
901.904	19757
902.023	19723
902.141	19590
902.26	19464
902.379	19571
902.498	19373
902.617	19327
902.735	19422
902.854	19411
902.973	19354
903.091	19129
903.21	19152
903.328	19110
903.446	19023
903.565	18920
903.683	18966
903.801	18871
903.919	18768
904.038	18821
904.156	18639
904.274	18726
904.392	18749
904.51	18684
904.627	18646
904.745	18738
904.863	18730
904.981	18452
905.098	18323
905.216	18376
905.334	18342
905.451	18369
905.569	18300
905.686	18437
905.803	18380
905.921	18076
906.038	18194
906.155	18209
906.272	18019
906.389	18015
906.506	17828
906.623	17809
906.74	17847
906.857	17737
906.974	17722
907.091	17779
907.208	18064
907.324	17920
907.441	17680
907.557	17619
907.674	17516
907.79	17528
907.907	17524
908.023	17539
908.139	17562
908.256	17493
908.372	17414
908.488	17478
908.604	17383
908.72	17250
908.836	17307
908.952	17185
909.068	17292
909.184	17296
909.3	17277
909.415	17372
909.531	17273
909.647	17098
909.762	16999
909.878	16949
909.993	17056
910.108	17033
910.224	16999
910.339	16934
910.454	16889
910.57	16877
910.685	16771
910.8	16896
910.915	16923
911.03	16889
911.145	16687
911.259	16622
911.374	16538
911.489	16516
911.604	16504
911.718	16322
911.833	16291
911.947	16352
912.062	16086
912.176	16234
912.291	16291
912.405	16268
912.519	16421
912.633	16493
912.748	16299
912.862	16215
912.976	16211
913.09	15941
913.204	16154
913.318	16105
913.431	16215
913.545	16147
913.659	16135
913.772	16013
913.886	15846
914	16025
914.113	16082
914.226	16078
914.34	16055
914.453	15819
914.566	15964
914.68	15793
914.793	15937
914.906	15724
915.019	15519
915.132	15526
915.245	15496
915.358	15595
915.47	15591
915.583	15580
915.696	15572
915.809	15614
915.921	15732
916.034	15447
916.146	15412
916.259	15405
916.371	15507
916.483	15378
916.595	15374
916.708	15374
916.82	15355
916.932	15336
917.044	15367
917.156	15348
917.268	15173
917.38	15249
917.491	15188
917.603	15195
917.715	15233
917.826	15233
917.938	15214
918.049	15047
918.161	15123
918.272	15256
918.384	15302
918.495	15157
918.606	14994
918.717	14933
918.828	14880
918.939	14914
919.05	14823
919.161	14937
919.272	14792
919.383	14842
919.494	15009
919.604	15009
919.715	14880
919.826	14876
919.936	14933
920.047	14921
920.157	14857
920.267	15116
920.378	14929
920.488	14765
920.598	15024
920.708	15074
920.818	15024
920.928	14933
921.038	15184
921.148	15119
921.258	14914
921.368	14777
921.477	14640
921.587	14610
921.697	14511
921.806	14705
921.916	14579
922.025	14294
922.134	14294
922.244	14103
922.353	14267
922.462	14229
922.571	14027
922.68	13959
922.789	13917
922.898	13959
923.007	13822
923.116	13818
923.224	13928
923.333	13932
923.442	13712
923.55	13708
923.659	13742
923.767	13776
923.876	13658
923.984	13738
924.092	13616
924.201	13696
924.309	13651
924.417	13590
924.525	13491
924.633	13575
924.741	14271
924.849	13365
924.956	13441
925.064	13426
925.172	13274
925.279	13251
925.387	13373
925.494	13255
925.602	13381
925.709	13339
925.816	13285
925.924	13232
926.031	13312
926.138	13145
926.245	13312
926.352	13099
926.459	13289
926.566	13312
926.673	13095
926.779	13031
926.886	13027
926.993	12928
927.099	12954
927.206	12760
927.312	12730
927.419	12993
927.525	12848
927.631	12840
927.737	12692
927.843	12711
927.95	12532
928.056	12650
928.162	12711
928.267	12734
928.373	13297
928.479	12795
928.585	12464
928.69	12646
928.796	12578
928.901	12517
929.007	12414
929.112	12528
929.218	12498
929.323	12384
929.428	12361
929.533	12441
929.638	12266
929.743	12224
929.848	12388
929.953	12342
930.058	12209
930.163	12041
930.267	12007
930.372	12243
930.477	12034
930.581	12220
930.685	12163
930.79	11942
930.894	11931
930.998	11904
931.103	12068
931.207	11752
931.311	11630
931.415	11581
931.519	11337
931.623	11334
