Data from test_V78500241_1321.txt Node
Date: Fri Mar 25 15:19:03 CST 2022
User: usil
Spectrometer: V785-0024
Trigger mode: 0
Integration Time (sec): 4.000000E-1
Scans to average: 1
Nonlinearity correction enabled: false
Boxcar width: 0
Storing dark spectrum: false
XAxis mode: Wavelengths
Number of Pixels in Spectrum: 1024
>>>>>Begin Spectral Data<<<<<
801.071	28055
801.214	27922
801.356	27625
801.499	27625
801.641	27545
801.783	27488
801.926	27504
802.068	27393
802.211	27447
802.353	27291
802.496	27268
802.638	27195
802.78	27176
802.923	26990
803.065	27211
803.208	27165
803.35	27192
803.492	27291
803.635	27260
803.777	27329
803.919	27443
804.061	27785
804.204	27412
804.346	27272
804.488	27275
804.63	27275
804.773	27374
804.915	27378
805.057	27435
805.199	27272
805.341	27378
805.483	27690
805.626	27439
805.768	27431
805.91	27435
806.052	27496
806.194	27363
806.336	27701
806.478	27545
806.62	27557
806.762	27625
806.904	27781
807.046	27960
807.188	28105
807.33	27857
807.472	27899
807.614	27907
807.756	27941
807.898	27804
808.04	27732
808.182	27789
808.324	27835
808.465	27800
808.607	27934
808.749	28185
808.891	28242
809.033	28105
809.174	28265
809.316	28135
809.458	28173
809.6	28207
809.741	28424
809.883	28257
810.025	28497
810.166	28352
810.308	28462
810.45	28306
810.591	28344
810.733	28268
810.875	28162
811.016	28196
811.158	28040
811.299	28272
811.441	28226
811.582	28196
811.724	28272
811.865	28063
812.007	28086
812.148	27972
812.29	28405
812.431	28341
812.573	28550
812.714	28497
812.855	28660
812.997	28786
813.138	28888
813.279	28752
813.421	28892
813.562	28557
813.703	28481
813.845	28371
813.986	28112
814.127	28063
814.268	27759
814.41	27816
814.551	27671
814.692	27934
814.833	27835
814.974	27854
815.115	27835
815.256	27705
815.397	27781
815.539	27644
815.68	27667
815.821	27595
815.962	27709
816.103	27675
816.244	27462
816.385	27363
816.526	27313
816.666	27085
816.807	27058
816.948	27233
817.089	27283
817.23	27142
817.371	27119
817.512	27180
817.653	27218
817.793	27272
817.934	26990
818.075	27325
818.216	27055
818.356	27085
818.497	26895
818.638	26811
818.778	26861
818.919	26933
819.06	27001
819.2	27028
819.341	27043
819.481	27119
819.622	27294
819.762	27405
819.903	27443
820.043	27256
820.184	27363
820.324	27161
820.465	27192
820.605	27256
820.746	27275
820.886	27150
821.026	27214
821.167	27199
821.307	27279
821.447	27157
821.588	26990
821.728	26792
821.868	26731
822.008	26590
822.149	26590
822.289	26560
822.429	26393
822.569	26286
822.709	26267
822.849	26199
822.99	26142
823.13	26084
823.27	25997
823.41	26005
823.55	25776
823.69	25936
823.83	25993
823.97	25841
824.11	25727
824.25	25769
824.389	25719
824.529	25864
824.669	25753
824.809	25803
824.949	25845
825.089	25906
825.228	25791
825.368	25590
825.508	25658
825.648	25757
825.787	25727
825.927	25624
826.067	25563
826.206	25674
826.346	25620
826.485	25685
826.625	25578
826.765	25753
826.904	25693
827.044	25464
827.183	25335
827.323	25327
827.462	25441
827.601	25476
827.741	25403
827.88	25324
828.02	25282
828.159	25308
828.298	25339
828.437	25297
828.577	25259
828.716	25381
828.855	25251
828.994	25031
829.134	25103
829.273	25198
829.412	25046
829.551	24916
829.69	24943
829.829	25004
829.968	25114
830.107	25088
830.246	25053
830.385	24897
830.524	24947
830.663	24878
830.802	24764
830.941	24566
831.08	24616
831.219	24696
831.357	24772
831.496	24909
831.635	24555
831.774	24608
831.913	24677
832.051	24490
832.19	24486
832.329	24502
832.467	24357
832.606	24346
832.744	24342
832.883	24384
833.022	24311
833.16	24426
833.299	24361
833.437	24380
833.576	24426
833.714	24452
833.852	24445
833.991	24433
834.129	24551
834.267	24559
834.406	24433
834.544	24471
834.682	24403
834.821	24414
834.959	24452
835.097	24296
835.235	24388
835.373	24403
835.511	24414
835.65	24220
835.788	24239
835.926	24247
836.064	23950
836.202	24041
836.34	24171
836.478	24334
836.615	24254
836.753	24350
836.891	24342
837.029	24251
837.167	24254
837.305	24011
837.443	24148
837.58	24125
837.718	24076
837.856	24106
837.993	23916
838.131	24022
838.269	23946
838.406	24026
838.544	23920
838.681	23745
838.819	23638
838.956	23452
839.094	23554
839.231	23589
839.369	23608
839.506	23923
839.643	23817
839.781	23531
839.918	23490
840.055	23452
840.193	23425
840.33	23474
840.467	23512
840.604	23444
840.742	23748
840.879	23296
841.016	23223
841.153	23391
841.29	23539
841.427	23391
841.564	23452
841.701	23463
841.838	23444
841.975	23398
842.112	23235
842.249	23151
842.385	23170
842.522	23395
842.659	23292
842.796	23189
842.933	23242
843.069	23258
843.206	23143
843.343	23258
843.479	23204
843.616	23212
843.752	22980
843.889	22991
844.025	23204
844.162	22919
844.298	22942
844.435	22953
844.571	23121
844.708	23025
844.844	23067
844.98	23117
845.117	23105
845.253	22953
845.389	22892
845.525	22873
845.661	22733
845.798	22744
845.934	22679
846.07	22573
846.206	22782
846.342	22809
846.478	22622
846.614	22580
846.75	22382
846.886	22474
847.022	22596
847.158	22360
847.294	22550
847.429	22497
847.565	22375
847.701	22599
847.837	22177
847.972	22120
848.108	22196
848.244	22284
848.379	22032
848.515	22070
848.65	21979
848.786	22040
848.921	22090
849.057	22143
849.192	22029
849.328	22116
849.463	22010
849.598	21968
849.734	21956
849.869	21835
850.004	21823
850.14	21831
850.275	21850
850.41	21694
850.545	21705
850.68	21759
850.815	21880
850.95	21747
851.085	21956
851.22	21880
851.355	21823
851.49	21781
851.625	21728
851.76	21892
851.895	21781
852.03	21576
852.165	21671
852.299	21804
852.434	21808
852.569	21831
852.703	21884
852.838	21854
852.973	21835
853.107	21846
853.242	21884
853.376	21599
853.511	21637
853.645	21553
853.78	21774
853.914	21648
854.048	21519
854.183	21690
854.317	21595
854.451	21812
854.585	21622
854.72	21591
854.854	21591
854.988	21576
855.122	21622
855.256	21462
855.39	21557
855.524	21675
855.658	21545
855.792	21606
855.926	21637
856.06	21728
856.194	21652
856.327	21504
856.461	21496
856.595	21610
856.729	21576
856.862	21618
856.996	21698
857.13	21641
857.263	21606
857.397	21789
857.53	21614
857.664	21625
857.797	21648
857.931	21675
858.064	21633
858.197	21610
858.331	21504
858.464	21576
858.597	21462
858.731	21599
858.864	21606
858.997	21534
859.13	21660
859.263	21618
859.396	21781
859.529	21591
859.662	21523
859.795	21603
859.928	21698
860.061	21770
860.194	21789
860.327	21591
860.46	21603
860.592	21732
860.725	21831
860.858	21797
860.99	21732
861.123	21622
861.256	21500
861.388	21515
861.521	22337
861.653	21576
861.786	21363
861.918	21416
862.05	21477
862.183	21572
862.315	21447
862.447	21481
862.58	21443
862.712	21344
862.844	21245
862.976	21458
863.108	21386
863.24	21717
863.372	21241
863.504	21283
863.636	21275
863.768	21416
863.9	21306
864.032	21222
864.164	21131
864.296	21310
864.428	21534
864.559	21473
864.691	21237
864.823	21367
864.954	21332
865.086	21203
865.217	21188
865.349	21066
865.48	21222
865.612	21154
865.743	21367
865.875	21249
866.006	21188
866.137	21142
866.269	21252
866.4	21252
866.531	21123
866.662	21131
866.793	21074
866.924	21188
867.055	21104
867.186	21169
867.317	21009
867.448	21089
867.579	21173
867.71	21024
867.841	21043
867.972	21165
868.103	21127
868.233	21135
868.364	21108
868.495	21359
868.625	21325
868.756	21511
868.886	21260
869.017	21454
869.147	21443
869.278	21523
869.408	21325
869.539	21336
869.669	21591
869.799	21485
869.929	21530
870.06	21477
870.19	21599
870.32	21641
870.45	21732
870.58	21781
870.71	21842
870.84	21789
870.97	21660
871.1	21667
871.23	21888
871.36	21861
871.489	21888
871.619	21930
871.749	21911
871.879	21975
872.008	22086
872.138	21903
872.267	21915
872.397	21854
872.526	21819
872.656	21838
872.785	21926
872.915	22017
873.044	22147
873.173	21972
873.303	22040
873.432	22116
873.561	22070
873.69	22139
873.819	21998
873.948	22082
874.077	21968
874.206	21842
874.335	21926
874.464	22109
874.593	22154
874.722	22295
874.851	22204
874.979	22223
875.108	22280
875.237	22204
875.365	22162
875.494	22242
875.623	22291
875.751	22177
875.88	22196
876.008	22333
876.136	22295
876.265	22550
876.393	22675
876.521	22687
876.65	22694
876.778	22653
876.906	22493
877.034	22550
877.162	22459
877.29	22417
877.418	22691
877.546	22611
877.674	22554
877.802	22489
877.93	22481
878.058	22523
878.185	22367
878.313	22554
878.441	22519
878.568	22462
878.696	22478
878.824	22535
878.951	22611
879.079	22740
879.206	22725
879.333	22748
879.461	22565
879.588	22596
879.715	22725
879.842	22877
879.97	22603
880.097	22398
880.224	22386
880.351	22287
880.478	22447
880.605	22409
880.732	22211
880.859	22554
880.986	22443
881.112	22386
881.239	22207
881.366	21979
881.493	22135
881.619	21994
881.746	21854
881.872	22002
881.999	21857
882.125	21861
882.252	21865
882.378	21960
882.505	22029
882.631	21755
882.757	21660
882.883	21751
883.01	21713
883.136	21637
883.262	21534
883.388	21507
883.514	21580
883.64	21751
883.766	21523
883.892	21466
884.018	21386
884.143	21424
884.269	21606
884.395	21313
884.52	21279
884.646	21332
884.772	21268
884.897	21131
885.023	21283
885.148	21310
885.274	21431
885.399	21252
885.524	21173
885.65	21214
885.775	21317
885.9	21332
886.025	21473
886.15	21279
886.275	21093
886.4	21214
886.525	21230
886.65	21226
886.775	21214
886.9	21416
887.025	21473
887.149	21142
887.274	21047
887.399	21058
887.523	21085
887.648	21055
887.773	20918
887.897	21051
888.021	21058
888.146	21032
888.27	21146
888.395	21176
888.519	21058
888.643	21047
888.767	21036
888.891	20986
889.015	20883
889.139	20800
889.263	20868
889.387	20941
889.511	21146
889.635	21020
889.759	20872
889.883	20861
890.006	20792
890.13	20845
890.254	20872
890.377	20724
890.501	20541
890.624	20549
890.748	20609
890.871	20415
890.995	20301
891.118	20233
891.241	20408
891.364	20328
891.488	20503
891.611	20423
891.734	20362
891.857	20442
891.98	20457
892.103	20457
892.226	20503
892.349	20385
892.471	20252
892.594	20396
892.717	20294
892.839	20267
892.962	20347
893.085	20469
893.207	20332
893.33	20191
893.452	20221
893.575	20320
893.697	20324
893.819	20465
893.941	20454
894.064	20396
894.186	20206
894.308	20202
894.43	20358
894.552	20355
894.674	20438
894.796	20214
894.918	20267
895.04	20415
895.161	20385
895.283	20240
895.405	20221
895.526	20221
895.648	20271
895.769	20343
895.891	20377
896.012	20385
896.134	20431
896.255	20328
896.376	20221
896.498	20286
896.619	20294
896.74	20408
896.861	20457
896.982	20636
897.103	20705
897.224	20560
897.345	20408
897.466	20476
897.587	20522
897.708	20571
897.828	20629
897.949	20275
898.07	20355
898.19	20423
898.311	20568
898.431	20522
898.552	20431
898.672	20488
898.792	20522
898.913	20442
899.033	20431
899.153	20256
899.273	20263
899.393	20389
899.513	20317
899.633	20309
899.753	20248
899.873	20218
899.993	20332
900.113	20130
900.232	20301
900.352	20111
900.472	20065
900.591	20024
900.711	20054
900.83	19989
900.95	20100
901.069	20210
901.189	19890
901.308	19788
901.427	19651
901.546	19601
901.665	19693
901.784	19597
901.904	19601
902.023	19354
902.141	19206
902.26	19160
902.379	19251
902.498	19015
902.617	19057
902.735	19179
902.854	19031
902.973	19076
903.091	18966
903.21	18795
903.328	18821
903.446	18715
903.565	18604
903.683	18639
903.801	18506
903.919	18483
904.038	18509
904.156	18467
904.274	18391
904.392	18365
904.51	18330
904.627	18338
904.745	18346
904.863	18388
904.981	18155
905.098	18114
905.216	18038
905.334	18057
905.451	18095
905.569	18076
905.686	18091
905.803	18015
905.921	17710
906.038	17923
906.155	17805
906.272	17832
906.389	17687
906.506	17589
906.623	17600
906.74	17478
906.857	17349
906.974	17509
907.091	17566
907.208	17726
907.324	17505
907.441	17455
907.557	17307
907.674	17239
907.79	17246
907.907	17208
908.023	17322
908.139	17197
908.256	17239
908.372	17162
908.488	17170
908.604	17006
908.72	16938
908.836	17060
908.952	17018
909.068	17094
909.184	17170
909.3	16987
909.415	16957
909.531	16972
909.647	16812
909.762	16740
909.878	16740
909.993	16694
910.108	16706
910.224	16596
910.339	16755
910.454	16618
910.57	16546
910.685	16443
910.8	16706
910.915	16615
911.03	16561
911.145	16318
911.259	16360
911.374	16318
911.489	16325
911.604	16135
911.718	15998
911.833	15968
911.947	15880
912.062	15873
912.176	15972
912.291	15930
912.405	15960
912.519	16192
912.633	16223
912.748	16059
912.862	15987
912.976	15915
913.09	15804
913.204	15785
913.318	15857
913.431	15964
913.545	15804
913.659	15964
913.772	15759
913.886	15603
914	15694
914.113	15644
914.226	15751
914.34	15751
914.453	15606
914.566	15671
914.68	15534
914.793	15507
914.906	15336
915.019	15344
915.132	15123
915.245	15211
915.358	15298
915.47	15313
915.583	15252
915.696	15325
915.809	15317
915.921	15367
916.034	15127
916.146	15176
916.259	15100
916.371	15252
916.483	15154
916.595	15024
916.708	15085
916.82	15062
916.932	14994
917.044	14990
917.156	15051
917.268	14956
917.38	14902
917.491	14876
917.603	14868
917.715	15013
917.826	15020
917.938	14868
918.049	14667
918.161	14796
918.272	14986
918.384	14963
918.495	14800
918.606	14705
918.717	14594
918.828	14590
918.939	14655
919.05	14617
919.161	14693
919.272	14393
919.383	14450
919.494	14678
919.604	14781
919.715	14621
919.826	14594
919.936	14655
920.047	14682
920.157	14602
920.267	14811
920.378	14518
920.488	14526
920.598	14739
920.708	14956
920.818	14663
920.928	14773
921.038	14876
921.148	14853
921.258	14530
921.368	14393
921.477	14400
921.587	14366
921.697	14324
921.806	14298
921.916	14286
922.025	14027
922.134	13978
922.244	14046
922.353	14088
922.462	13856
922.571	13803
922.68	13696
922.789	13586
922.898	13742
923.007	13518
923.116	13696
923.224	13636
923.333	13605
923.442	13457
923.55	13502
923.659	13449
923.767	13628
923.876	13346
923.984	13548
924.092	13384
924.201	13449
924.309	13419
924.417	13343
924.525	13373
924.633	13392
924.741	14218
924.849	13031
924.956	13213
925.064	13145
925.172	12935
925.279	12981
925.387	13103
925.494	13015
925.602	13110
925.709	13050
925.816	13019
925.924	12989
926.031	13019
926.138	13027
926.245	13027
926.352	12897
926.459	13004
926.566	12981
926.673	12882
926.779	12829
926.886	12817
926.993	12639
927.099	12684
927.206	12589
927.312	12627
927.419	12639
927.525	12544
927.631	12563
927.737	12464
927.843	12528
927.95	12361
928.056	12410
928.162	12437
928.267	12490
928.373	13050
928.479	12486
928.585	12213
928.69	12452
928.796	12422
928.901	12330
929.007	12190
929.112	12258
929.218	12194
929.323	12136
929.428	12114
929.533	12292
929.638	12121
929.743	12216
929.848	12091
929.953	12125
930.058	12019
930.163	11855
930.267	11870
930.372	11969
930.477	11893
930.581	12015
930.685	11897
930.79	11779
930.894	11786
930.998	11581
931.103	11802
931.207	11482
931.311	11337
931.415	11292
931.519	11128
931.623	11090
