Data from test_V78500241_2206.txt Node
Date: Fri Mar 25 15:25:13 CST 2022
User: usil
Spectrometer: V785-0024
Trigger mode: 0
Integration Time (sec): 4.000000E-1
Scans to average: 1
Nonlinearity correction enabled: false
Boxcar width: 0
Storing dark spectrum: false
XAxis mode: Wavelengths
Number of Pixels in Spectrum: 1024
>>>>>Begin Spectral Data<<<<<
801.071	27873
801.214	27857
801.356	27618
801.499	27317
801.641	27348
801.783	27340
801.926	27519
802.068	27412
802.211	27241
802.353	27146
802.496	27058
802.638	27108
802.78	27017
802.923	27024
803.065	26868
803.208	26838
803.35	27093
803.492	27112
803.635	27287
803.777	27066
803.919	27260
804.061	27568
804.204	27412
804.346	27131
804.488	27123
804.63	27230
804.773	27104
804.915	27241
805.057	27283
805.199	27150
805.341	27329
805.483	27332
805.626	27340
805.768	27203
805.91	27363
806.052	27367
806.194	27275
806.336	27477
806.478	27466
806.62	27492
806.762	27549
806.904	27530
807.046	27857
807.188	27861
807.33	27880
807.472	27899
807.614	27652
807.756	27686
807.898	27603
808.04	27656
808.182	27408
808.324	27660
808.465	27618
808.607	27895
808.749	28109
808.891	28070
809.033	28177
809.174	27968
809.316	27781
809.458	27998
809.6	27972
809.741	28192
809.883	28086
810.025	28246
810.166	28207
810.308	28257
810.45	28120
810.591	28154
810.733	28013
810.875	27854
811.016	27679
811.158	27857
811.299	27964
811.441	28078
811.582	28181
811.724	27816
811.865	27884
812.007	27960
812.148	27884
812.29	27994
812.431	28051
812.573	28287
812.714	28474
812.855	28401
812.997	28561
813.138	28717
813.279	28512
813.421	28413
813.562	28306
813.703	28147
813.845	28162
813.986	27922
814.127	27884
814.268	27789
814.41	27739
814.551	27641
814.692	27568
814.833	27603
814.974	27637
815.115	27660
815.256	27496
815.397	27542
815.539	27576
815.68	27439
815.821	27348
815.962	27477
816.103	27351
816.244	27382
816.385	27218
816.526	27294
816.666	27127
816.807	26967
816.948	27001
817.089	27096
817.23	27001
817.371	26845
817.512	26986
817.653	26967
817.793	26807
817.934	26952
818.075	26933
818.216	26853
818.356	26944
818.497	26750
818.638	26632
818.778	26701
818.919	26762
819.06	26788
819.2	26750
819.341	26777
819.481	26914
819.622	27047
819.762	27382
819.903	27207
820.043	27047
820.184	26994
820.324	26940
820.465	27108
820.605	27009
820.746	26979
820.886	26944
821.026	26982
821.167	26979
821.307	26990
821.447	26906
821.588	26853
821.728	26629
821.868	26613
822.008	26423
822.149	26355
822.289	26282
822.429	26214
822.569	26069
822.709	26027
822.849	25928
822.99	25902
823.13	25966
823.27	25769
823.41	25677
823.55	25552
823.69	25624
823.83	25772
823.97	25582
824.11	25384
824.25	25457
824.389	25472
824.529	25548
824.669	25529
824.809	25685
824.949	25586
825.089	25571
825.228	25674
825.368	25377
825.508	25327
825.648	25369
825.787	25422
825.927	25312
826.067	25495
826.206	25346
826.346	25381
826.485	25643
826.625	25430
826.765	25483
826.904	25331
827.044	25145
827.183	25171
827.323	24962
827.462	25251
827.601	25187
827.741	25133
827.88	25110
828.02	24928
828.159	25053
828.298	25187
828.437	25179
828.577	25031
828.716	24977
828.855	25031
828.994	24821
829.134	24890
829.273	24730
829.412	24787
829.551	24681
829.69	24840
829.829	24852
829.968	24951
830.107	24871
830.246	24833
830.385	24669
830.524	24719
830.663	24589
830.802	24433
830.941	24486
831.08	24182
831.219	24494
831.357	24502
831.496	24719
831.635	24346
831.774	24197
831.913	24399
832.051	24174
832.19	24144
832.329	24277
832.467	24148
832.606	24003
832.744	24095
832.883	24026
833.022	24045
833.16	24136
833.299	24167
833.437	24068
833.576	24243
833.714	24182
833.852	24148
833.991	24178
834.129	24224
834.267	24182
834.406	24224
834.544	24072
834.682	24235
834.821	23977
834.959	24209
835.097	24114
835.235	24159
835.373	24171
835.511	24117
835.65	24060
835.788	23927
835.926	23942
836.064	23676
836.202	23722
836.34	24018
836.478	23863
836.615	23916
836.753	23798
836.891	24064
837.029	24026
837.167	23988
837.305	23916
837.443	23954
837.58	23885
837.718	23786
837.856	23809
837.993	23866
838.131	23756
838.269	23646
838.406	23627
838.544	23581
838.681	23414
838.819	23406
838.956	23299
839.094	23345
839.231	23284
839.369	23459
839.506	23630
839.643	23417
839.781	23315
839.918	23239
840.055	23208
840.193	23208
840.33	23216
840.467	23242
840.604	23265
840.742	23299
840.879	23056
841.016	23208
841.153	23121
841.29	23254
841.427	23102
841.564	23132
841.701	23258
841.838	23170
841.975	23044
842.112	22934
842.249	23022
842.385	22877
842.522	23170
842.659	22999
842.796	23003
842.933	23003
843.069	22831
843.206	22900
843.343	22919
843.479	22984
843.616	22953
843.752	22656
843.889	22831
844.025	22790
844.162	22702
844.298	22672
844.435	22565
844.571	22649
844.708	22740
844.844	22797
844.98	22866
845.117	22759
845.253	22717
845.389	22641
845.525	22618
845.661	22557
845.798	22424
845.934	22478
846.07	22352
846.206	22436
846.342	22497
846.478	22443
846.614	22325
846.75	22173
846.886	22181
847.022	22215
847.158	22150
847.294	22185
847.429	22310
847.565	22128
847.701	22333
847.837	21915
847.972	21804
848.108	22017
848.244	21968
848.379	21835
848.515	21705
848.65	21690
848.786	21732
848.921	21797
849.057	21816
849.192	21892
849.328	21774
849.463	21781
849.598	21629
849.734	21682
849.869	21557
850.004	21564
850.14	21587
850.275	21618
850.41	21428
850.545	21549
850.68	21435
850.815	21553
850.95	21488
851.085	21648
851.22	21709
851.355	21557
851.49	21641
851.625	21572
851.76	21492
851.895	21416
852.03	21443
852.165	21481
852.299	21553
852.434	21587
852.569	21500
852.703	21420
852.838	21553
852.973	21652
853.107	21614
853.242	21507
853.376	21515
853.511	21241
853.645	21382
853.78	21325
853.914	21355
854.048	21222
854.183	21332
854.317	21511
854.451	21485
854.585	21405
854.72	21325
854.854	21397
854.988	21252
855.122	21344
855.256	21233
855.39	21298
855.524	21310
855.658	21393
855.792	21412
855.926	21370
856.06	21557
856.194	21386
856.327	21458
856.461	21310
856.595	21272
856.729	21268
856.862	21405
856.996	21378
857.13	21389
857.263	21473
857.397	21462
857.53	21298
857.664	21321
857.797	21473
857.931	21466
858.064	21348
858.197	21367
858.331	21275
858.464	21340
858.597	21233
858.731	21344
858.864	21287
858.997	21302
859.13	21230
859.263	21348
859.396	21420
859.529	21294
859.662	21291
859.795	21195
859.928	21348
860.061	21591
860.194	21576
860.327	21294
860.46	21378
860.592	21504
860.725	21564
860.858	21401
860.99	21382
861.123	21294
861.256	21230
861.388	21233
861.521	22154
861.653	21214
861.786	21150
861.918	21051
862.05	21230
862.183	21351
862.315	21241
862.447	21252
862.58	21283
862.712	21039
862.844	20948
862.976	21218
863.108	21062
863.24	21363
863.372	21017
863.504	21093
863.636	21028
863.768	21173
863.9	20986
864.032	21020
864.164	21017
864.296	21104
864.428	21176
864.559	21108
864.691	21024
864.823	21081
864.954	20998
865.086	21055
865.217	20925
865.349	20899
865.48	20861
865.612	21039
865.743	21047
865.875	20963
866.006	20834
866.137	20864
866.269	21005
866.4	20982
866.531	20895
866.662	20823
866.793	20739
866.924	20849
867.055	20842
867.186	20834
867.317	20826
867.448	20868
867.579	20868
867.71	20807
867.841	20724
867.972	20876
868.103	20819
868.233	20902
868.364	20826
868.495	20967
868.625	21161
868.756	21218
868.886	21089
869.017	21157
869.147	21173
869.278	21252
869.408	21169
869.539	21188
869.669	21157
869.799	21165
869.929	21245
870.06	21207
870.19	21405
870.32	21469
870.45	21454
870.58	21454
870.71	21485
870.84	21496
870.97	21591
871.1	21591
871.23	21679
871.36	21698
871.489	21583
871.619	21663
871.749	21671
871.879	21713
872.008	21793
872.138	21705
872.267	21675
872.397	21545
872.526	21663
872.656	21526
872.785	21526
872.915	21793
873.044	21774
873.173	21747
873.303	21907
873.432	21823
873.561	21899
873.69	21785
873.819	21724
873.948	21812
874.077	21766
874.206	21679
874.335	21667
874.464	21816
874.593	21979
874.722	22006
874.851	22036
874.979	21964
875.108	21945
875.237	21895
875.365	21983
875.494	21907
875.623	21945
875.751	22036
875.88	21884
876.008	22101
876.136	22131
876.265	22291
876.393	22474
876.521	22519
876.65	22379
876.778	22303
876.906	22181
877.034	22280
877.162	22474
877.29	22371
877.418	22306
877.546	22329
877.674	22367
877.802	22154
877.93	22303
878.058	22310
878.185	22135
878.313	22204
878.441	22341
878.568	22086
878.696	22322
878.824	22295
878.951	22417
879.079	22382
879.206	22592
879.333	22550
879.461	22246
879.588	22500
879.715	22443
879.842	22694
879.97	22322
880.097	22101
880.224	22143
880.351	22204
880.478	22207
880.605	22078
880.732	21998
880.859	22363
880.986	22192
881.112	22131
881.239	22055
881.366	21831
881.493	21865
881.619	21846
881.746	21797
881.872	21732
881.999	21701
882.125	21618
882.252	21720
882.378	21682
882.505	21717
882.631	21500
882.757	21416
882.883	21450
883.01	21294
883.136	21386
883.262	21393
883.388	21245
883.514	21351
883.64	21450
883.766	21306
883.892	21195
884.018	21176
884.143	21264
884.269	21481
884.395	21146
884.52	21020
884.646	21043
884.772	20963
884.897	20921
885.023	21077
885.148	21138
885.274	21089
885.399	21157
885.524	20967
885.65	21081
885.775	21116
885.9	20899
886.025	21154
886.15	21165
886.275	20994
886.4	20941
886.525	20982
886.65	20944
886.775	21024
886.9	21051
887.025	21332
887.149	21176
887.274	20849
887.399	20857
887.523	20823
887.648	20731
887.773	20727
887.897	20899
888.021	20819
888.146	20788
888.27	20883
888.395	20895
888.519	20769
888.643	20838
888.767	20849
888.891	20659
889.015	20571
889.139	20701
889.263	20507
889.387	20765
889.511	20861
889.635	20800
889.759	20613
889.883	20621
890.006	20617
890.13	20693
890.254	20602
890.377	20564
890.501	20442
890.624	20206
890.748	20377
890.871	20218
890.995	20191
891.118	20252
891.241	20111
891.364	20225
891.488	20305
891.611	20126
891.734	20153
891.857	20199
891.98	20244
892.103	20237
892.226	20286
892.349	20092
892.471	19947
892.594	20161
892.717	20134
892.839	20065
892.962	20005
893.085	20020
893.207	19978
893.33	20001
893.452	19906
893.575	20039
893.697	19986
893.819	20176
893.941	20214
894.064	20191
894.186	19982
894.308	20062
894.43	20157
894.552	20206
894.674	20130
894.796	19951
894.918	20138
895.04	20077
895.161	20221
895.283	20142
895.405	20031
895.526	20145
895.648	20031
895.769	20031
895.891	20054
896.012	20168
896.134	20195
896.255	20115
896.376	19993
896.498	20020
896.619	20103
896.74	20062
896.861	20153
896.982	20419
897.103	20503
897.224	20282
897.345	20256
897.466	20324
897.587	20298
897.708	20450
897.828	20427
897.949	20214
898.07	20202
898.19	20187
898.311	20434
898.431	20298
898.552	20370
898.672	20305
898.792	20427
898.913	20366
899.033	20077
899.153	20069
899.273	20027
899.393	20008
899.513	20058
899.633	20142
899.753	20058
899.873	19925
899.993	20043
900.113	20058
900.232	20043
900.352	19978
900.472	19955
900.591	19845
900.711	19780
900.83	19795
900.95	19940
901.069	19772
901.189	19772
901.308	19544
901.427	19434
901.546	19430
901.665	19407
901.784	19384
901.904	19293
902.023	19225
902.141	18894
902.26	18985
902.379	19012
902.498	18973
902.617	18871
902.735	18943
902.854	18928
902.973	18985
903.091	18696
903.21	18555
903.328	18604
903.446	18513
903.565	18334
903.683	18304
903.801	18342
903.919	18289
904.038	18376
904.156	18205
904.274	18239
904.392	18201
904.51	18155
904.627	18171
904.745	18186
904.863	18266
904.981	17923
905.098	17889
905.216	17935
905.334	17931
905.451	17802
905.569	17946
905.686	17714
905.803	17840
905.921	17634
906.038	17573
906.155	17737
906.272	17474
906.389	17592
906.506	17410
906.623	17273
906.74	17307
906.857	17220
906.974	17368
907.091	17436
907.208	17509
907.324	17288
907.441	17341
907.557	17105
907.674	17147
907.79	16957
907.907	17075
908.023	17159
908.139	17136
908.256	16949
908.372	16999
908.488	17022
908.604	16778
908.72	16664
908.836	16790
908.952	16755
909.068	16972
909.184	16949
909.3	16790
909.415	16771
909.531	16809
909.647	16656
909.762	16561
909.878	16538
909.993	16538
910.108	16497
910.224	16504
910.339	16592
910.454	16424
910.57	16314
910.685	16268
910.8	16497
910.915	16462
911.03	16295
911.145	16131
911.259	16109
911.374	16135
911.489	16025
911.604	16021
911.718	15884
911.833	15857
911.947	15793
912.062	15629
912.176	15774
912.291	15861
912.405	15800
912.519	16082
912.633	15998
912.748	15827
912.862	15785
912.976	15671
913.09	15549
913.204	15606
913.318	15652
913.431	15766
913.545	15625
913.659	15774
913.772	15572
913.886	15389
914	15462
914.113	15515
914.226	15587
914.34	15534
914.453	15310
914.566	15500
914.68	15310
914.793	15283
914.906	15119
915.019	15135
915.132	15009
915.245	15047
915.358	15123
915.47	15032
915.583	15058
915.696	15074
915.809	15146
915.921	15165
916.034	15032
916.146	14998
916.259	14910
916.371	15032
916.483	15013
916.595	14982
916.708	14887
916.82	14933
916.932	14880
917.044	14937
917.156	14861
917.268	14686
917.38	14826
917.491	14701
917.603	14800
917.715	14811
917.826	14883
917.938	14667
918.049	14621
918.161	14674
918.272	14720
918.384	14880
918.495	14724
918.606	14575
918.717	14503
918.828	14560
918.939	14533
919.05	14450
919.161	14457
919.272	14381
919.383	14427
919.494	14469
919.604	14762
919.715	14492
919.826	14290
919.936	14393
920.047	14530
920.157	14404
920.267	14674
920.378	14522
920.488	14492
920.598	14602
920.708	14640
920.818	14526
920.928	14514
921.038	14758
921.148	14655
921.258	14355
921.368	14263
921.477	14267
921.587	14195
921.697	14081
921.806	14183
921.916	14043
922.025	13944
922.134	13879
922.244	13715
922.353	13822
922.462	13811
922.571	13639
922.68	13506
922.789	13430
922.898	13525
923.007	13457
923.116	13540
923.224	13480
923.333	13312
923.442	13354
923.55	13278
923.659	13400
923.767	13324
923.876	13221
923.984	13320
924.092	13282
924.201	13316
924.309	13217
924.417	13194
924.525	13152
924.633	13221
924.741	13890
924.849	12962
924.956	13099
925.064	13031
925.172	12897
925.279	12924
925.387	12890
925.494	12924
925.602	13000
925.709	12970
925.816	12776
925.924	12848
926.031	12897
926.138	12844
926.245	12875
926.352	12802
926.459	12913
926.566	12886
926.673	12776
926.779	12703
926.886	12608
926.993	12608
927.099	12509
927.206	12483
927.312	12422
927.419	12456
927.525	12536
927.631	12452
927.737	12353
927.843	12380
927.95	12201
928.056	12270
928.162	12304
928.267	12342
928.373	13008
928.479	12330
928.585	12148
928.69	12235
928.796	12270
928.901	12117
929.007	11980
929.112	12197
929.218	12251
929.323	12022
929.428	12038
929.533	12102
929.638	11950
929.743	11946
929.848	12072
929.953	11973
930.058	11866
930.163	11733
930.267	11661
930.372	11809
930.477	11638
930.581	11988
930.685	11718
930.79	11600
930.894	11600
930.998	11589
931.103	11668
931.207	11353
931.311	11269
931.415	11121
931.519	11014
931.623	10984
