Data from test_V78500241_1718.txt Node
Date: Fri Mar 25 15:21:49 CST 2022
User: usil
Spectrometer: V785-0024
Trigger mode: 0
Integration Time (sec): 4.000000E-1
Scans to average: 1
Nonlinearity correction enabled: false
Boxcar width: 0
Storing dark spectrum: false
XAxis mode: Wavelengths
Number of Pixels in Spectrum: 1024
>>>>>Begin Spectral Data<<<<<
801.071	27762
801.214	27717
801.356	27473
801.499	27485
801.641	27310
801.783	27283
801.926	27393
802.068	27260
802.211	27374
802.353	27252
802.496	26933
802.638	27066
802.78	27043
802.923	26868
803.065	26857
803.208	26910
803.35	26994
803.492	27123
803.635	27074
803.777	27070
803.919	27070
804.061	27443
804.204	27093
804.346	27096
804.488	27272
804.63	27268
804.773	27055
804.915	27313
805.057	27081
805.199	27146
805.341	27165
805.483	27367
805.626	27218
805.768	27146
805.91	27317
806.052	27340
806.194	27150
806.336	27424
806.478	27211
806.62	27260
806.762	27393
806.904	27580
807.046	27850
807.188	27648
807.33	27724
807.472	27911
807.614	27568
807.756	27739
807.898	27690
808.04	27523
808.182	27534
808.324	27591
808.465	27564
808.607	27755
808.749	28002
808.891	27960
809.033	28128
809.174	27968
809.316	27785
809.458	27987
809.6	27789
809.741	28013
809.883	28074
810.025	28223
810.166	28139
810.308	28128
810.45	28086
810.591	28109
810.733	27873
810.875	27865
811.016	27759
811.158	27800
811.299	27953
811.441	28124
811.582	28051
811.724	27914
811.865	27835
812.007	27991
812.148	27895
812.29	27994
812.431	28006
812.573	28223
812.714	28333
812.855	28455
812.997	28573
813.138	28599
813.279	28557
813.421	28447
813.562	28249
813.703	28242
813.845	28105
813.986	27926
814.127	27755
814.268	27595
814.41	27606
814.551	27507
814.692	27599
814.833	27572
814.974	27519
815.115	27561
815.256	27454
815.397	27447
815.539	27458
815.68	27462
815.821	27321
815.962	27443
816.103	27374
816.244	27348
816.385	27070
816.526	27055
816.666	26857
816.807	26815
816.948	26906
817.089	27093
817.23	26967
817.371	26956
817.512	26853
817.653	26800
817.793	26910
817.934	26842
818.075	26952
818.216	26708
818.356	26746
818.497	26765
818.638	26476
818.778	26693
818.919	26670
819.06	26735
819.2	26663
819.341	26788
819.481	26944
819.622	27058
819.762	27180
819.903	27005
820.043	27169
820.184	27039
820.324	27039
820.465	27123
820.605	27043
820.746	26960
820.886	26880
821.026	26944
821.167	26910
821.307	27051
821.447	26834
821.588	26765
821.728	26705
821.868	26571
822.008	26400
822.149	26453
822.289	26294
822.429	26161
822.569	26180
822.709	26073
822.849	25811
822.99	25913
823.13	25833
823.27	25731
823.41	25708
823.55	25616
823.69	25723
823.83	25662
823.97	25578
824.11	25400
824.25	25582
824.389	25556
824.529	25563
824.669	25540
824.809	25476
824.949	25624
825.089	25624
825.228	25529
825.368	25411
825.508	25282
825.648	25354
825.787	25335
825.927	25377
826.067	25308
826.206	25316
826.346	25415
826.485	25377
826.625	25407
826.765	25499
826.904	25369
827.044	25194
827.183	25088
827.323	25072
827.462	25069
827.601	25168
827.741	25091
827.88	25164
828.02	24951
828.159	25027
828.298	25141
828.437	25179
828.577	25012
828.716	25012
828.855	25023
828.994	24802
829.134	24741
829.273	24833
829.412	24760
829.551	24749
829.69	24673
829.829	24856
829.968	24867
830.107	24886
830.246	24897
830.385	24719
830.524	24791
830.663	24547
830.802	24566
830.941	24346
831.08	24346
831.219	24452
831.357	24460
831.496	24665
831.635	24509
831.774	24365
831.913	24327
832.051	24152
832.19	24129
832.329	24102
832.467	24068
832.606	24045
832.744	24034
832.883	23950
833.022	24003
833.16	24159
833.299	24110
833.437	24076
833.576	24041
833.714	24209
833.852	24213
833.991	24216
834.129	24338
834.267	24201
834.406	24083
834.544	24194
834.682	24289
834.821	24213
834.959	24330
835.097	24045
835.235	24213
835.373	24121
835.511	24060
835.65	24034
835.788	24034
835.926	23859
836.064	23805
836.202	23950
836.34	23942
836.478	23965
836.615	23973
836.753	24022
836.891	23954
837.029	23992
837.167	23908
837.305	23897
837.443	23882
837.58	23821
837.718	23779
837.856	23843
837.993	23855
838.131	23794
838.269	23729
838.406	23619
838.544	23726
838.681	23429
838.819	23528
838.956	23288
839.094	23269
839.231	23436
839.369	23364
839.506	23638
839.643	23649
839.781	23273
839.918	23296
840.055	23239
840.193	23269
840.33	23277
840.467	23189
840.604	23315
840.742	23429
840.879	22984
841.016	23113
841.153	23064
841.29	23334
841.427	23220
841.564	23273
841.701	23178
841.838	23048
841.975	23064
842.112	23151
842.249	22984
842.385	22904
842.522	23166
842.659	23022
842.796	23025
842.933	22968
843.069	22862
843.206	22862
843.343	23113
843.479	23086
843.616	22946
843.752	22618
843.889	22812
844.025	22866
844.162	22664
844.298	22801
844.435	22698
844.571	22713
844.708	22797
844.844	22961
844.98	22999
845.117	22835
845.253	22759
845.389	22577
845.525	22577
845.661	22615
845.798	22459
845.934	22497
846.07	22447
846.206	22588
846.342	22607
846.478	22500
846.614	22242
846.75	22128
846.886	22230
847.022	22379
847.158	22185
847.294	22074
847.429	22181
847.565	22196
847.701	22421
847.837	21975
847.972	21945
848.108	21960
848.244	22063
848.379	21819
848.515	21854
848.65	21816
848.786	21701
848.921	21804
849.057	21987
849.192	21888
849.328	21747
849.463	21766
849.598	21751
849.734	21720
849.869	21663
850.004	21568
850.14	21610
850.275	21637
850.41	21694
850.545	21469
850.68	21530
850.815	21595
850.95	21549
851.085	21671
851.22	21667
851.355	21614
851.49	21637
851.625	21511
851.76	21443
851.895	21408
852.03	21481
852.165	21564
852.299	21603
852.434	21523
852.569	21564
852.703	21587
852.838	21606
852.973	21709
853.107	21595
853.242	21538
853.376	21500
853.511	21393
853.645	21420
853.78	21466
853.914	21370
854.048	21283
854.183	21408
854.317	21344
854.451	21595
854.585	21351
854.72	21317
854.854	21351
854.988	21310
855.122	21420
855.256	21165
855.39	21382
855.524	21420
855.658	21424
855.792	21450
855.926	21424
856.06	21496
856.194	21500
856.327	21291
856.461	21382
856.595	21298
856.729	21370
856.862	21473
856.996	21462
857.13	21534
857.263	21485
857.397	21492
857.53	21233
857.664	21504
857.797	21511
857.931	21519
858.064	21397
858.197	21481
858.331	21367
858.464	21218
858.597	21131
858.731	21408
858.864	21401
858.997	21405
859.13	21321
859.263	21355
859.396	21450
859.529	21435
859.662	21344
859.795	21344
859.928	21458
860.061	21526
860.194	21511
860.327	21526
860.46	21386
860.592	21416
860.725	21572
860.858	21534
860.99	21431
861.123	21283
861.256	21268
861.388	21359
861.521	22173
861.653	21199
861.786	21150
861.918	21169
862.05	21237
862.183	21279
862.315	21268
862.447	21359
862.58	21340
862.712	21119
862.844	20952
862.976	21203
863.108	21096
863.24	21523
863.372	21096
863.504	21104
863.636	21036
863.768	21123
863.9	21176
864.032	21043
864.164	20998
864.296	21161
864.428	21184
864.559	21211
864.691	21169
864.823	21055
864.954	21146
865.086	21070
865.217	20948
865.349	20963
865.48	20933
865.612	20982
865.743	21211
865.875	20982
866.006	20960
866.137	21017
866.269	20979
866.4	20956
866.531	21020
866.662	20861
866.793	20842
866.924	20891
867.055	20933
867.186	20929
867.317	20998
867.448	20800
867.579	20845
867.71	20861
867.841	20864
867.972	20929
868.103	20975
868.233	20796
868.364	21047
868.495	20921
868.625	21131
868.756	21157
868.886	21085
869.017	21150
869.147	21340
869.278	21199
869.408	21230
869.539	21135
869.669	21256
869.799	21272
869.929	21150
870.06	21291
870.19	21473
870.32	21477
870.45	21523
870.58	21507
870.71	21679
870.84	21606
870.97	21523
871.1	21485
871.23	21819
871.36	21720
871.489	21603
871.619	21660
871.749	21766
871.879	21755
872.008	21804
872.138	21774
872.267	21789
872.397	21545
872.526	21553
872.656	21572
872.785	21587
872.915	21667
873.044	21838
873.173	21755
873.303	21797
873.432	21865
873.561	21770
873.69	21819
873.819	21743
873.948	21793
874.077	21766
874.206	21686
874.335	21705
874.464	21770
874.593	21960
874.722	21808
874.851	22010
874.979	21960
875.108	21991
875.237	21934
875.365	21812
875.494	21960
875.623	22158
875.751	21991
875.88	22029
876.008	22242
876.136	22200
876.265	22440
876.393	22565
876.521	22398
876.65	22470
876.778	22428
876.906	22360
877.034	22322
877.162	22443
877.29	22253
877.418	22409
877.546	22363
877.674	22333
877.802	22287
877.93	22405
878.058	22363
878.185	22147
878.313	22265
878.441	22272
878.568	22268
878.696	22131
878.824	22455
878.951	22409
879.079	22481
879.206	22561
879.333	22470
879.461	22295
879.588	22424
879.715	22478
879.842	22626
879.97	22462
880.097	22261
880.224	22116
880.351	22211
880.478	22116
880.605	22192
880.732	22120
880.859	22386
880.986	22166
881.112	22101
881.239	21953
881.366	21884
881.493	21880
881.619	21880
881.746	21888
881.872	21915
881.999	21660
882.125	21675
882.252	21720
882.378	21759
882.505	21789
882.631	21625
882.757	21473
882.883	21603
883.01	21367
883.136	21245
883.262	21272
883.388	21287
883.514	21363
883.64	21648
883.766	21291
883.892	21332
884.018	21218
884.143	21351
884.269	21454
884.395	21230
884.52	21051
884.646	21108
884.772	21036
884.897	21024
885.023	21142
885.148	21203
885.274	21173
885.399	21245
885.524	21017
885.65	21047
885.775	21100
885.9	20998
886.025	21165
886.15	21188
886.275	21043
886.4	21017
886.525	21066
886.65	21070
886.775	21032
886.9	21252
887.025	21325
887.149	21017
887.274	20914
887.399	20906
887.523	20906
887.648	20849
887.773	20769
887.897	20944
888.021	20998
888.146	20720
888.27	20990
888.395	20849
888.519	20830
888.643	20895
888.767	20883
888.891	20754
889.015	20727
889.139	20629
889.263	20686
889.387	20716
889.511	20754
889.635	20811
889.759	20583
889.883	20727
890.006	20659
890.13	20788
890.254	20674
890.377	20560
890.501	20454
890.624	20454
890.748	20492
890.871	20389
890.995	20305
891.118	20134
891.241	20263
891.364	20275
891.488	20309
891.611	20107
891.734	20263
891.857	20324
891.98	20301
892.103	20343
892.226	20161
892.349	20282
892.471	19978
892.594	20122
892.717	20164
892.839	20005
892.962	20130
893.085	20191
893.207	20191
893.33	19978
893.452	20001
893.575	20195
893.697	20142
893.819	20183
893.941	20282
894.064	20164
894.186	20050
894.308	19959
894.43	20286
894.552	20229
894.674	20161
894.796	20046
894.918	20145
895.04	20031
895.161	20088
895.283	20237
895.405	19963
895.526	20119
895.648	20134
895.769	20122
895.891	20111
896.012	20210
896.134	20237
896.255	20069
896.376	20100
896.498	20233
896.619	20172
896.74	20096
896.861	20180
896.982	20408
897.103	20564
897.224	20332
897.345	20374
897.466	20199
897.587	20286
897.708	20362
897.828	20320
897.949	20248
898.07	20103
898.19	20286
898.311	20434
898.431	20324
898.552	20336
898.672	20438
898.792	20457
898.913	20324
899.033	20256
899.153	20031
899.273	20005
899.393	20168
899.513	20103
899.633	20069
899.753	20100
899.873	19928
899.993	20149
900.113	20035
900.232	20065
900.352	19978
900.472	19986
900.591	19811
900.711	19822
900.83	19921
900.95	20069
901.069	19921
901.189	19685
901.308	19422
901.427	19487
901.546	19384
901.665	19487
901.784	19464
901.904	19419
902.023	19118
902.141	19065
902.26	19015
902.379	19091
902.498	18863
902.617	18916
902.735	18970
902.854	18920
902.973	18787
903.091	18814
903.21	18585
903.328	18616
903.446	18536
903.565	18391
903.683	18426
903.801	18384
903.919	18334
904.038	18422
904.156	18254
904.274	18281
904.392	18190
904.51	18167
904.627	18220
904.745	18300
904.863	18235
904.981	18011
905.098	17931
905.216	17817
905.334	17870
905.451	17832
905.569	17904
905.686	17931
905.803	17840
905.921	17581
906.038	17729
906.155	17676
906.272	17558
906.389	17497
906.506	17410
906.623	17463
906.74	17341
906.857	17391
906.974	17330
907.091	17490
907.208	17471
907.324	17433
907.441	17273
907.557	17083
907.674	17220
907.79	17010
907.907	17079
908.023	17143
908.139	17189
908.256	16957
908.372	17109
908.488	17105
908.604	16885
908.72	16797
908.836	16930
908.952	16873
909.068	16885
909.184	16938
909.3	16869
909.415	16938
909.531	16816
909.647	16660
909.762	16596
909.878	16512
909.993	16519
910.108	16596
910.224	16424
910.339	16497
910.454	16375
910.57	16394
910.685	16405
910.8	16592
910.915	16485
911.03	16329
911.145	16173
911.259	16162
911.374	16139
911.489	16059
911.604	16048
911.718	15838
911.833	15903
911.947	15770
912.062	15789
912.176	15789
912.291	15934
912.405	15838
912.519	16048
912.633	15975
912.748	15873
912.862	15873
912.976	15625
913.09	15587
913.204	15686
913.318	15797
913.431	15876
913.545	15789
913.659	15770
913.772	15618
913.886	15515
914	15496
914.113	15515
914.226	15599
914.34	15439
914.453	15321
914.566	15511
914.68	15351
914.793	15344
914.906	15108
915.019	15116
915.132	15051
915.245	15161
915.358	15093
915.47	15203
915.583	15104
915.696	15138
915.809	15169
915.921	15241
916.034	15047
916.146	15013
916.259	14975
916.371	15081
916.483	15039
916.595	14994
916.708	14975
916.82	14899
916.932	14902
917.044	14948
917.156	14864
917.268	14853
917.38	14895
917.491	14796
917.603	14750
917.715	14815
917.826	14895
917.938	14701
918.049	14659
918.161	14739
918.272	14834
918.384	14849
918.495	14716
918.606	14552
918.717	14454
918.828	14552
918.939	14484
919.05	14495
919.161	14503
919.272	14244
919.383	14389
919.494	14556
919.604	14651
919.715	14644
919.826	14415
919.936	14461
920.047	14545
920.157	14537
920.267	14765
920.378	14457
920.488	14442
920.598	14575
920.708	14788
920.818	14617
920.928	14617
921.038	14724
921.148	14701
921.258	14412
921.368	14339
921.477	14176
921.587	14149
921.697	14077
921.806	14195
921.916	14054
922.025	13879
922.134	13852
922.244	13772
922.353	13940
922.462	13677
922.571	13616
922.68	13495
922.789	13480
922.898	13525
923.007	13384
923.116	13449
923.224	13468
923.333	13480
923.442	13362
923.55	13392
923.659	13411
923.767	13331
923.876	13324
923.984	13251
924.092	13259
924.201	13225
924.309	13149
924.417	13247
924.525	13232
924.633	13179
924.741	13906
924.849	12954
924.956	13110
925.064	12981
925.172	12943
925.279	12852
925.387	12935
925.494	12890
925.602	13084
925.709	12947
925.816	12802
925.924	12859
926.031	12894
926.138	12886
926.245	12863
926.352	12642
926.459	12993
926.566	12844
926.673	12749
926.779	12734
926.886	12692
926.993	12582
927.099	12486
927.206	12448
927.312	12429
927.419	12582
927.525	12506
927.631	12437
927.737	12414
927.843	12334
927.95	12159
928.056	12319
928.162	12281
928.267	12395
928.373	13012
928.479	12410
928.585	12102
928.69	12300
928.796	12350
928.901	12190
929.007	12076
929.112	12159
929.218	12129
929.323	12125
929.428	12030
929.533	12163
929.638	11984
929.743	11954
929.848	11935
929.953	11984
930.058	11809
930.163	11726
930.267	11752
930.372	11843
930.477	11608
930.581	11885
930.685	11802
930.79	11585
930.894	11627
930.998	11535
931.103	11668
931.207	11425
931.311	11311
931.415	11204
931.519	11033
931.623	10953
