Data from test_V78500241_2822.txt Node
Date: Fri Mar 25 15:29:30 CST 2022
User: usil
Spectrometer: V785-0024
Trigger mode: 0
Integration Time (sec): 4.000000E-1
Scans to average: 1
Nonlinearity correction enabled: false
Boxcar width: 0
Storing dark spectrum: false
XAxis mode: Wavelengths
Number of Pixels in Spectrum: 1024
>>>>>Begin Spectral Data<<<<<
801.071	27195
801.214	27127
801.356	27036
801.499	26895
801.641	26788
801.783	26712
801.926	26838
802.068	26781
802.211	26693
802.353	26678
802.496	26552
802.638	26396
802.78	26457
802.923	26370
803.065	26457
803.208	26317
803.35	26377
803.492	26457
803.635	26469
803.777	26518
803.919	26564
804.061	26887
804.204	26556
804.346	26495
804.488	26613
804.63	26492
804.773	26328
804.915	26549
805.057	26579
805.199	26590
805.341	26552
805.483	26705
805.626	26640
805.768	26587
805.91	26613
806.052	26636
806.194	26640
806.336	26750
806.478	26670
806.62	26712
806.762	26724
806.904	26830
807.046	27195
807.188	27127
807.33	27108
807.472	27123
807.614	27055
807.756	26960
807.898	26986
808.04	26644
808.182	26857
808.324	26998
808.465	27005
808.607	27180
808.749	27184
808.891	27481
809.033	27576
809.174	27443
809.316	27256
809.458	27336
809.6	27275
809.741	27332
809.883	27348
810.025	27641
810.166	27580
810.308	27648
810.45	27644
810.591	27386
810.733	27348
810.875	27165
811.016	27096
811.158	27173
811.299	27466
811.441	27462
811.582	27393
811.724	27157
811.865	27207
812.007	27146
812.148	27283
812.29	27378
812.431	27435
812.573	27698
812.714	27660
812.855	27686
812.997	27941
813.138	27987
813.279	27857
813.421	27804
813.562	27705
813.703	27576
813.845	27469
813.986	27199
814.127	26982
814.268	26845
814.41	26845
814.551	26906
814.692	26963
814.833	26918
814.974	26800
815.115	26940
815.256	26838
815.397	26906
815.539	26762
815.68	26735
815.821	26537
815.962	26613
816.103	26716
816.244	26602
816.385	26640
816.526	26495
816.666	26358
816.807	26263
816.948	26351
817.089	26305
817.23	26065
817.371	26142
817.512	26157
817.653	26161
817.793	26229
817.934	26221
818.075	26164
818.216	26134
818.356	26100
818.497	26046
818.638	26016
818.778	25925
818.919	25822
819.06	26084
819.2	25997
819.341	26073
819.481	26263
819.622	26244
819.762	26362
819.903	26415
820.043	26336
820.184	26248
820.324	26153
820.465	26419
820.605	26275
820.746	26362
820.886	26191
821.026	26233
821.167	26214
821.307	26210
821.447	26229
821.588	26126
821.728	25852
821.868	25875
822.008	25571
822.149	25639
822.289	25616
822.429	25559
822.569	25438
822.709	25213
822.849	25168
822.99	25126
823.13	25057
823.27	25160
823.41	25012
823.55	24905
823.69	25004
823.83	24924
823.97	24970
824.11	24806
824.25	24798
824.389	24814
824.529	24814
824.669	24817
824.809	24913
824.949	24932
825.089	24814
825.228	24806
825.368	24574
825.508	24551
825.648	24730
825.787	24639
825.927	24661
826.067	24540
826.206	24734
826.346	24730
826.485	24768
826.625	24582
826.765	24642
826.904	24768
827.044	24414
827.183	24414
827.323	24323
827.462	24251
827.601	24376
827.741	24289
827.88	24403
828.02	24224
828.159	24365
828.298	24327
828.437	24403
828.577	24171
828.716	24559
828.855	24201
828.994	24018
829.134	24053
829.273	24121
829.412	23984
829.551	23996
829.69	24038
829.829	24053
829.968	24106
830.107	24072
830.246	24079
830.385	24026
830.524	23969
830.663	23771
830.802	23813
830.941	23585
831.08	23615
831.219	23691
831.357	23722
831.496	23893
831.635	23695
831.774	23497
831.913	23585
832.051	23376
832.19	23406
832.329	23528
832.467	23360
832.606	23296
832.744	23315
832.883	23296
833.022	23220
833.16	23341
833.299	23356
833.437	23296
833.576	23296
833.714	23258
833.852	23410
833.991	23493
834.129	23341
834.267	23376
834.406	23444
834.544	23356
834.682	23341
834.821	23273
834.959	23596
835.097	23414
835.235	23524
835.373	23330
835.511	23341
835.65	23292
835.788	23193
835.926	23124
836.064	22984
836.202	23060
836.34	23185
836.478	23212
836.615	23330
836.753	23162
836.891	23383
837.029	23284
837.167	23140
837.305	23048
837.443	23200
837.58	23117
837.718	23140
837.856	22980
837.993	22919
838.131	23006
838.269	22915
838.406	22877
838.544	22889
838.681	22710
838.819	22763
838.956	22443
839.094	22596
839.231	22603
839.369	22801
839.506	22961
839.643	22866
839.781	22634
839.918	22523
840.055	22474
840.193	22645
840.33	22363
840.467	22481
840.604	22474
840.742	22767
840.879	22261
841.016	22348
841.153	22257
841.29	22577
841.427	22413
841.564	22440
841.701	22367
841.838	22402
841.975	22344
842.112	22413
842.249	22371
842.385	22192
842.522	22382
842.659	22253
842.796	22325
842.933	22207
843.069	22192
843.206	22097
843.343	22363
843.479	22242
843.616	22261
843.752	22109
843.889	22040
844.025	22131
844.162	22124
844.298	21975
844.435	22021
844.571	21857
844.708	22109
844.844	22219
844.98	22036
845.117	21983
845.253	21949
845.389	21937
845.525	21899
845.661	21797
845.798	21667
845.934	21622
846.07	21682
846.206	21766
846.342	21911
846.478	21663
846.614	21416
846.75	21382
846.886	21424
847.022	21523
847.158	21355
847.294	21405
847.429	21519
847.565	21447
847.701	21648
847.837	21233
847.972	21176
848.108	21252
848.244	21359
848.379	21077
848.515	21036
848.65	20994
848.786	21062
848.921	21081
849.057	21108
849.192	21070
849.328	21123
849.463	21036
849.598	20986
849.734	20876
849.869	20998
850.004	20785
850.14	20891
850.275	20785
850.41	20686
850.545	20857
850.68	20785
850.815	20830
850.95	20682
851.085	20880
851.22	20925
851.355	20815
851.49	20887
851.625	20804
851.76	20800
851.895	20750
852.03	20670
852.165	20640
852.299	20842
852.434	20819
852.569	20861
852.703	20773
852.838	20899
852.973	20838
853.107	21024
853.242	20804
853.376	20754
853.511	20621
853.645	20579
853.78	20674
853.914	20640
854.048	20686
854.183	20571
854.317	20590
854.451	20849
854.585	20712
854.72	20625
854.854	20705
854.988	20606
855.122	20587
855.256	20457
855.39	20727
855.524	20659
855.658	20720
855.792	20712
855.926	20598
856.06	20693
856.194	20861
856.327	20731
856.461	20412
856.595	20629
856.729	20621
856.862	20727
856.996	20724
857.13	20708
857.263	20727
857.397	20796
857.53	20727
857.664	20750
857.797	20712
857.931	20807
858.064	20693
858.197	20701
858.331	20689
858.464	20530
858.597	20590
858.731	20629
858.864	20667
858.997	20545
859.13	20598
859.263	20800
859.396	20727
859.529	20609
859.662	20625
859.795	20579
859.928	20724
860.061	20876
860.194	20746
860.327	20522
860.46	20640
860.592	20705
860.725	20971
860.858	20845
860.99	20697
861.123	20556
861.256	20602
861.388	20606
861.521	21302
861.653	20423
861.786	20507
861.918	20461
862.05	20480
862.183	20568
862.315	20556
862.447	20670
862.58	20533
862.712	20362
862.844	20301
862.976	20473
863.108	20450
863.24	20815
863.372	20313
863.504	20374
863.636	20320
863.768	20370
863.9	20290
864.032	20259
864.164	20355
864.296	20526
864.428	20503
864.559	20473
864.691	20290
864.823	20294
864.954	20366
865.086	20347
865.217	20317
865.349	20183
865.48	20176
865.612	20381
865.743	20256
865.875	20324
866.006	20252
866.137	20210
866.269	20202
866.4	20195
866.531	20229
866.662	20172
866.793	20107
866.924	20202
867.055	20290
867.186	20100
867.317	20191
867.448	20168
867.579	20149
867.71	20149
867.841	20084
867.972	20195
868.103	20221
868.233	20210
868.364	20290
868.495	20370
868.625	20381
868.756	20556
868.886	20377
869.017	20412
869.147	20594
869.278	20552
869.408	20469
869.539	20461
869.669	20556
869.799	20522
869.929	20575
870.06	20568
870.19	20777
870.32	20785
870.45	20773
870.58	20902
870.71	21017
870.84	20941
870.97	20731
871.1	20864
871.23	20937
871.36	21093
871.489	21020
871.619	21009
871.749	20921
871.879	21062
872.008	21214
872.138	20967
872.267	20975
872.397	20887
872.526	20826
872.656	20819
872.785	20834
872.915	21157
873.044	21119
873.173	21116
873.303	21180
873.432	21108
873.561	21252
873.69	21077
873.819	21146
873.948	21165
874.077	21112
874.206	21028
874.335	20986
874.464	21211
874.593	21302
874.722	21351
874.851	21359
874.979	21252
875.108	21264
875.237	21252
875.365	21184
875.494	21222
875.623	21321
875.751	21264
875.88	21302
876.008	21458
876.136	21431
876.265	21671
876.393	21831
876.521	21785
876.65	21793
876.778	21797
876.906	21694
877.034	21549
877.162	21637
877.29	21690
877.418	21736
877.546	21701
877.674	21663
877.802	21580
877.93	21724
878.058	21576
878.185	21633
878.313	21530
878.441	21656
878.568	21454
878.696	21652
878.824	21778
878.951	21739
879.079	21751
879.206	21941
879.333	21800
879.461	21705
879.588	21743
879.715	21903
879.842	21960
879.97	21675
880.097	21511
880.224	21462
880.351	21500
880.478	21587
880.605	21408
880.732	21500
880.859	21694
880.986	21564
881.112	21595
881.239	21313
881.366	21279
881.493	21165
881.619	20990
881.746	21070
881.872	21047
881.999	21036
882.125	21005
882.252	21093
882.378	21036
882.505	21047
882.631	20929
882.757	20773
882.883	20864
883.01	20785
883.136	20769
883.262	20625
883.388	20632
883.514	20765
883.64	20872
883.766	20720
883.892	20514
884.018	20552
884.143	20560
884.269	20861
884.395	20442
884.52	20404
884.646	20541
884.772	20381
884.897	20343
885.023	20549
885.148	20537
885.274	20590
885.399	20499
885.524	20465
885.65	20419
885.775	20408
885.9	20507
886.025	20492
886.15	20545
886.275	20355
886.4	20336
886.525	20408
886.65	20336
886.775	20313
886.9	20518
887.025	20545
887.149	20408
887.274	20218
887.399	20237
887.523	20138
887.648	20153
887.773	20103
887.897	20317
888.021	20199
888.146	20122
888.27	20301
888.395	20183
888.519	20221
888.643	20248
888.767	20351
888.891	20103
889.015	20096
889.139	20252
889.263	20096
889.387	20050
889.511	20195
889.635	20096
889.759	19970
889.883	20016
890.006	20050
890.13	20088
890.254	19909
890.377	19883
890.501	19826
890.624	19704
890.748	19902
890.871	19776
890.995	19624
891.118	19628
891.241	19578
891.364	19533
891.488	19746
891.611	19495
891.734	19628
891.857	19594
891.98	19616
892.103	19693
892.226	19594
892.349	19445
892.471	19449
892.594	19529
892.717	19480
892.839	19620
892.962	19468
893.085	19651
893.207	19666
893.33	19506
893.452	19407
893.575	19552
893.697	19548
893.819	19670
893.941	19666
894.064	19601
894.186	19487
894.308	19354
894.43	19510
894.552	19651
894.674	19624
894.796	19343
894.918	19422
895.04	19464
895.161	19578
895.283	19518
895.405	19548
895.526	19434
895.648	19480
895.769	19476
895.891	19544
896.012	19632
896.134	19624
896.255	19487
896.376	19491
896.498	19506
896.619	19571
896.74	19525
896.861	19540
896.982	19788
897.103	20012
897.224	19814
897.345	19746
897.466	19753
897.587	19780
897.708	19951
897.828	19811
897.949	19776
898.07	19537
898.19	19712
898.311	19780
898.431	19719
898.552	19734
898.672	19795
898.792	19757
898.913	19727
899.033	19776
899.153	19708
899.273	19578
899.393	19506
899.513	19521
899.633	19590
899.753	19586
899.873	19434
899.993	19514
900.113	19540
900.232	19400
900.352	19491
900.472	19335
900.591	19297
900.711	19384
900.83	19206
900.95	19365
901.069	19415
901.189	19148
901.308	18958
901.427	18833
901.546	18947
901.665	18905
901.784	18905
901.904	18795
902.023	18757
902.141	18620
902.26	18407
902.379	18433
902.498	18384
902.617	18380
902.735	18426
902.854	18407
902.973	18365
903.091	18053
903.21	18095
903.328	18041
903.446	17916
903.565	17855
903.683	17961
903.801	17779
903.919	17836
904.038	17817
904.156	17672
904.274	17790
904.392	17729
904.51	17611
904.627	17699
904.745	17665
904.863	17687
904.981	17433
905.098	17318
905.216	17235
905.334	17356
905.451	17330
905.569	17273
905.686	17337
905.803	17322
905.921	17159
906.038	17273
906.155	17143
906.272	17041
906.389	17052
906.506	16923
906.623	16911
906.74	16896
906.857	16816
906.974	16744
907.091	16923
907.208	16980
907.324	16908
907.441	16820
907.557	16592
907.674	16615
907.79	16546
907.907	16554
908.023	16611
908.139	16607
908.256	16584
908.372	16508
908.488	16523
908.604	16352
908.72	16280
908.836	16318
908.952	16238
909.068	16318
909.184	16344
909.3	16402
909.415	16379
909.531	16363
909.647	16116
909.762	16006
909.878	15968
909.993	15991
910.108	15930
910.224	16116
910.339	16013
910.454	15819
910.57	15823
910.685	15785
910.8	16040
910.915	16040
911.03	15797
911.145	15625
911.259	15587
911.374	15660
911.489	15542
911.604	15663
911.718	15496
911.833	15428
911.947	15351
912.062	15329
912.176	15519
912.291	15466
912.405	15530
912.519	15663
912.633	15576
912.748	15485
912.862	15389
912.976	15279
913.09	15077
913.204	15055
913.318	15154
913.431	15230
913.545	15291
913.659	15298
913.772	15135
913.886	15058
914	15039
914.113	15104
914.226	15089
914.34	15089
914.453	14830
914.566	14982
914.68	14895
914.793	14998
914.906	14815
915.019	14613
915.132	14648
915.245	14705
915.358	14689
915.47	14640
915.583	14689
915.696	14739
915.809	14746
915.921	14792
916.034	14552
916.146	14457
916.259	14575
916.371	14606
916.483	14583
916.595	14473
916.708	14518
916.82	14476
916.932	14415
917.044	14370
917.156	14385
917.268	14313
917.38	14381
917.491	14320
917.603	14370
917.715	14355
917.826	14347
917.938	14126
918.049	14134
918.161	14393
918.272	14465
918.384	14400
918.495	14210
918.606	14142
918.717	14008
918.828	14073
918.939	14229
919.05	13974
919.161	14054
919.272	13864
919.383	13860
919.494	14123
919.604	14278
919.715	14084
919.826	13967
919.936	13947
920.047	14073
920.157	14111
920.267	14180
920.378	14096
920.488	14016
920.598	14237
920.708	14355
920.818	14199
920.928	14130
921.038	14290
921.148	14218
921.258	14043
921.368	13959
921.477	13715
921.587	13818
921.697	13803
921.806	13803
921.916	13594
922.025	13514
922.134	13445
922.244	13301
922.353	13510
922.462	13316
922.571	13335
922.68	13110
922.789	13137
922.898	13168
923.007	13031
923.116	13122
923.224	13057
923.333	13103
923.442	13008
923.55	12928
923.659	12875
923.767	13023
923.876	12867
923.984	12981
924.092	12863
924.201	12852
924.309	12833
924.417	12905
924.525	12791
924.633	12856
924.741	13559
924.849	12604
924.956	12703
925.064	12490
925.172	12509
925.279	12433
925.387	12551
925.494	12574
925.602	12738
925.709	12540
925.816	12460
925.924	12509
926.031	12544
926.138	12498
926.245	12589
926.352	12388
926.459	12513
926.566	12570
926.673	12456
926.779	12247
926.886	12300
926.993	12148
927.099	12155
927.206	11942
927.312	12072
927.419	12197
927.525	12144
927.631	12140
927.737	11999
927.843	12026
927.95	11855
928.056	11999
928.162	12034
928.267	12022
928.373	12578
928.479	11992
928.585	11752
928.69	11790
928.796	11893
928.901	11828
929.007	11684
929.112	11802
929.218	11817
929.323	11695
929.428	11672
929.533	11756
929.638	11520
929.743	11615
929.848	11668
929.953	11623
930.058	11547
930.163	11398
930.267	11383
930.372	11490
930.477	11318
930.581	11585
930.685	11417
930.79	11273
930.894	11280
930.998	11265
931.103	11387
931.207	11086
931.311	11003
931.415	10877
931.519	10660
931.623	10672
