Data from test_V78500241_2993.txt Node
Date: Fri Mar 25 15:30:42 CST 2022
User: usil
Spectrometer: V785-0024
Trigger mode: 0
Integration Time (sec): 4.000000E-1
Scans to average: 1
Nonlinearity correction enabled: false
Boxcar width: 0
Storing dark spectrum: false
XAxis mode: Wavelengths
Number of Pixels in Spectrum: 1024
>>>>>Begin Spectral Data<<<<<
801.071	27363
801.214	27237
801.356	27013
801.499	26948
801.641	26895
801.783	26807
801.926	26826
802.068	26727
802.211	26792
802.353	26632
802.496	26594
802.638	26343
802.78	26518
802.923	26309
803.065	26294
803.208	26358
803.35	26351
803.492	26404
803.635	26377
803.777	26492
803.919	26560
804.061	26902
804.204	26746
804.346	26473
804.488	26450
804.63	26549
804.773	26408
804.915	26583
805.057	26590
805.199	26495
805.341	26625
805.483	26785
805.626	26693
805.768	26769
805.91	26674
806.052	26689
806.194	26693
806.336	26861
806.478	26686
806.62	26667
806.762	26739
806.904	26982
807.046	27275
807.188	27119
807.33	27013
807.472	27317
807.614	27055
807.756	27051
807.898	26994
808.04	26838
808.182	26887
808.324	26994
808.465	26982
808.607	27173
808.749	27245
808.891	27332
809.033	27439
809.174	27359
809.316	27203
809.458	27264
809.6	27260
809.741	27294
809.883	27405
810.025	27507
810.166	27622
810.308	27675
810.45	27466
810.591	27439
810.733	27435
810.875	27275
811.016	27249
811.158	27237
811.299	27416
811.441	27606
811.582	27424
811.724	27283
811.865	27260
812.007	27298
812.148	27176
812.29	27344
812.431	27481
812.573	27644
812.714	27728
812.855	27698
812.997	27709
813.138	28048
813.279	27937
813.421	27850
813.562	27625
813.703	27530
813.845	27488
813.986	27173
814.127	26940
814.268	27005
814.41	26975
814.551	26872
814.692	26982
814.833	26857
814.974	26967
815.115	27036
815.256	26868
815.397	26960
815.539	26849
815.68	26811
815.821	26682
815.962	26773
816.103	26861
816.244	26530
816.385	26473
816.526	26317
816.666	26457
816.807	26077
816.948	26229
817.089	26358
817.23	26358
817.371	26176
817.512	26199
817.653	26210
817.793	26157
817.934	26103
818.075	26256
818.216	26233
818.356	26225
818.497	26119
818.638	25951
818.778	25772
818.919	25906
819.06	26103
819.2	26046
819.341	26298
819.481	26187
819.622	26362
819.762	26537
819.903	26457
820.043	26362
820.184	26157
820.324	26374
820.465	26332
820.605	26332
820.746	26275
820.886	26199
821.026	26263
821.167	26320
821.307	26343
821.447	26027
821.588	26237
821.728	26027
821.868	25875
822.008	25734
822.149	25784
822.289	25601
822.429	25403
822.569	25392
822.709	25350
822.849	25194
822.99	25175
823.13	25274
823.27	25034
823.41	24890
823.55	24787
823.69	25107
823.83	25034
823.97	24863
824.11	24677
824.25	24722
824.389	24741
824.529	24856
824.669	24886
824.809	24905
824.949	24764
825.089	24943
825.228	24840
825.368	24620
825.508	24631
825.648	24582
825.787	24840
825.927	24749
826.067	24620
826.206	24654
826.346	24688
826.485	24681
826.625	24589
826.765	24768
826.904	24783
827.044	24429
827.183	24483
827.323	24315
827.462	24532
827.601	24422
827.741	24330
827.88	24407
828.02	24228
828.159	24350
828.298	24361
828.437	24384
828.577	24323
828.716	24426
828.855	24262
828.994	24144
829.134	24049
829.273	23942
829.412	24072
829.551	24110
829.69	23958
829.829	24182
829.968	23980
830.107	24144
830.246	24030
830.385	23954
830.524	24117
830.663	23889
830.802	23752
830.941	23710
831.08	23684
831.219	23752
831.357	23718
831.496	24079
831.635	23672
831.774	23566
831.913	23551
832.051	23505
832.19	23414
832.329	23471
832.467	23356
832.606	23368
832.744	23269
832.883	23227
833.022	23280
833.16	23288
833.299	23395
833.437	23402
833.576	23448
833.714	23459
833.852	23455
833.991	23516
834.129	23490
834.267	23433
834.406	23398
834.544	23478
834.682	23387
834.821	23360
834.959	23531
835.097	23326
835.235	23478
835.373	23433
835.511	23474
835.65	23269
835.788	23261
835.926	23060
836.064	22999
836.202	23159
836.34	23299
836.478	23356
836.615	23239
836.753	23181
836.891	23395
837.029	23273
837.167	23136
837.305	23155
837.443	23029
837.58	23033
837.718	23121
837.856	23200
837.993	23098
838.131	23033
838.269	22896
838.406	23014
838.544	22847
838.681	22782
838.819	22767
838.956	22611
839.094	22607
839.231	22656
839.369	22809
839.506	22927
839.643	22710
839.781	22592
839.918	22333
840.055	22512
840.193	22478
840.33	22512
840.467	22478
840.604	22527
840.742	22664
840.879	22424
841.016	22432
841.153	22352
841.29	22554
841.427	22485
841.564	22550
841.701	22497
841.838	22459
841.975	22291
842.112	22417
842.249	22344
842.385	22337
842.522	22508
842.659	22333
842.796	22143
842.933	22120
843.069	22219
843.206	22246
843.343	22173
843.479	22230
843.616	22230
843.752	21953
843.889	22044
844.025	22215
844.162	21907
844.298	22139
844.435	22074
844.571	22074
844.708	22063
844.844	22135
844.98	22070
845.117	22109
845.253	22013
845.389	21884
845.525	21873
845.661	21850
845.798	21663
845.934	21785
846.07	21686
846.206	21785
846.342	21880
846.478	21660
846.614	21553
846.75	21466
846.886	21355
847.022	21561
847.158	21553
847.294	21473
847.429	21504
847.565	21507
847.701	21595
847.837	21241
847.972	21207
848.108	21313
848.244	21325
848.379	21081
848.515	21001
848.65	21039
848.786	21062
848.921	21074
849.057	21195
849.192	21096
849.328	21096
849.463	20994
849.598	21028
849.734	21024
849.869	20948
850.004	20823
850.14	20815
850.275	20792
850.41	20625
850.545	20845
850.68	20746
850.815	20887
850.95	20914
851.085	21017
851.22	20929
851.355	20853
851.49	20895
851.625	20746
851.76	20830
851.895	20697
852.03	20720
852.165	20792
852.299	20861
852.434	20895
852.569	20861
852.703	20804
852.838	21017
852.973	21017
853.107	21074
853.242	20777
853.376	20663
853.511	20495
853.645	20583
853.78	20804
853.914	20667
854.048	20670
854.183	20590
854.317	20617
854.451	21009
854.585	20735
854.72	20629
854.854	20651
854.988	20526
855.122	20682
855.256	20571
855.39	20575
855.524	20758
855.658	20678
855.792	20648
855.926	20689
856.06	20655
856.194	20754
856.327	20575
856.461	20598
856.595	20602
856.729	20739
856.862	20815
856.996	20792
857.13	20678
857.263	20861
857.397	20651
857.53	20724
857.664	20834
857.797	20724
857.931	20887
858.064	20746
858.197	20727
858.331	20625
858.464	20598
858.597	20522
858.731	20640
858.864	20579
858.997	20625
859.13	20621
859.263	20735
859.396	20686
859.529	20731
859.662	20560
859.795	20594
859.928	20686
860.061	20743
860.194	20826
860.327	20659
860.46	20750
860.592	20758
860.725	20834
860.858	20845
860.99	20568
861.123	20617
861.256	20632
861.388	20785
861.521	21268
861.653	20511
861.786	20564
861.918	20537
862.05	20549
862.183	20560
862.315	20606
862.447	20655
862.58	20511
862.712	20351
862.844	20309
862.976	20537
863.108	20503
863.24	20910
863.372	20267
863.504	20469
863.636	20343
863.768	20343
863.9	20351
864.032	20305
864.164	20381
864.296	20351
864.428	20434
864.559	20537
864.691	20377
864.823	20446
864.954	20267
865.086	20347
865.217	20267
865.349	20187
865.48	20351
865.612	20298
865.743	20404
865.875	20256
866.006	20138
866.137	20393
866.269	20336
866.4	20218
866.531	20298
866.662	20225
866.793	20221
866.924	20183
867.055	20263
867.186	20187
867.317	20176
867.448	20202
867.579	20263
867.71	20240
867.841	20145
867.972	20248
868.103	20221
868.233	20153
868.364	20168
868.495	20275
868.625	20438
868.756	20518
868.886	20396
869.017	20495
869.147	20434
869.278	20564
869.408	20480
869.539	20549
869.669	20556
869.799	20606
869.929	20537
870.06	20545
870.19	20811
870.32	20731
870.45	20811
870.58	20899
870.71	21100
870.84	20918
870.97	20815
871.1	20937
871.23	21081
871.36	21028
871.489	20963
871.619	21127
871.749	21150
871.879	21154
872.008	21173
872.138	20982
872.267	21047
872.397	20872
872.526	20883
872.656	20986
872.785	20944
872.915	21024
873.044	21180
873.173	21157
873.303	21093
873.432	21138
873.561	21233
873.69	21100
873.819	21138
873.948	21180
874.077	21195
874.206	21013
874.335	21226
874.464	21256
874.593	21340
874.722	21310
874.851	21344
874.979	21279
875.108	21325
875.237	21237
875.365	21264
875.494	21230
875.623	21428
875.751	21272
875.88	21355
876.008	21332
876.136	21656
876.265	21709
876.393	21895
876.521	21854
876.65	21800
876.778	21823
876.906	21739
877.034	21690
877.162	21682
877.29	21698
877.418	21800
877.546	21633
877.674	21793
877.802	21759
877.93	21606
878.058	21644
878.185	21557
878.313	21629
878.441	21690
878.568	21519
878.696	21599
878.824	21831
878.951	21701
879.079	21960
879.206	21975
879.333	21816
879.461	21739
879.588	21686
879.715	21793
879.842	21998
879.97	21747
880.097	21637
880.224	21424
880.351	21523
880.478	21755
880.605	21416
880.732	21614
880.859	21705
880.986	21481
881.112	21701
881.239	21469
881.366	21294
881.493	21173
881.619	21184
881.746	21043
881.872	21081
881.999	21032
882.125	21020
882.252	21085
882.378	21135
882.505	21146
882.631	20914
882.757	20830
882.883	20845
883.01	20788
883.136	20712
883.262	20674
883.388	20480
883.514	20777
883.64	20845
883.766	20682
883.892	20579
884.018	20617
884.143	20670
884.269	20883
884.395	20670
884.52	20488
884.646	20450
884.772	20415
884.897	20267
885.023	20423
885.148	20526
885.274	20518
885.399	20579
885.524	20480
885.65	20522
885.775	20393
885.9	20454
886.025	20583
886.15	20564
886.275	20377
886.4	20377
886.525	20412
886.65	20313
886.775	20336
886.9	20533
887.025	20545
887.149	20381
887.274	20248
887.399	20259
887.523	20202
887.648	20206
887.773	20020
887.897	20301
888.021	20214
888.146	20206
888.27	20343
888.395	20263
888.519	20324
888.643	20267
888.767	20298
888.891	20100
889.015	20062
889.139	20134
889.263	19967
889.387	20195
889.511	20176
889.635	20191
889.759	20020
889.883	20058
890.006	20035
890.13	20183
890.254	19982
890.377	20001
890.501	19917
890.624	19658
890.748	19944
890.871	19727
890.995	19548
891.118	19556
891.241	19700
891.364	19613
891.488	19727
891.611	19586
891.734	19597
891.857	19628
891.98	19597
892.103	19521
892.226	19689
892.349	19506
892.471	19438
892.594	19525
892.717	19601
892.839	19514
892.962	19609
893.085	19590
893.207	19529
893.33	19396
893.452	19510
893.575	19571
893.697	19480
893.819	19670
893.941	19674
894.064	19590
894.186	19487
894.308	19460
894.43	19556
894.552	19620
894.674	19597
894.796	19651
894.918	19712
895.04	19518
895.161	19575
895.283	19674
895.405	19495
895.526	19525
895.648	19502
895.769	19632
895.891	19586
896.012	19510
896.134	19499
896.255	19620
896.376	19533
896.498	19529
896.619	19582
896.74	19487
896.861	19658
896.982	19951
897.103	19917
897.224	19757
897.345	19753
897.466	19632
897.587	19734
897.708	19830
897.828	19807
897.949	19723
898.07	19601
898.19	19715
898.311	19708
898.431	19761
898.552	19830
898.672	19955
898.792	19970
898.913	19852
899.033	19715
899.153	19544
899.273	19483
899.393	19552
899.513	19578
899.633	19476
899.753	19635
899.873	19460
899.993	19578
900.113	19533
900.232	19499
900.352	19464
900.472	19400
900.591	19171
900.711	19232
900.83	19240
900.95	19430
901.069	19430
901.189	19259
901.308	18928
901.427	18928
901.546	18863
901.665	18966
901.784	18894
901.904	18817
902.023	18665
902.141	18528
902.26	18502
902.379	18502
902.498	18418
902.617	18388
902.735	18407
902.854	18353
902.973	18330
903.091	18129
903.21	18129
903.328	18110
903.446	18102
903.565	17988
903.683	17870
903.801	17786
903.919	17965
904.038	17855
904.156	17764
904.274	17802
904.392	17668
904.51	17714
904.627	17638
904.745	17714
904.863	17798
904.981	17505
905.098	17372
905.216	17383
905.334	17360
905.451	17296
905.569	17326
905.686	17360
905.803	17337
905.921	17204
906.038	17258
906.155	17197
906.272	17033
906.389	17086
906.506	16934
906.623	16930
906.74	16968
906.857	16858
906.974	16892
907.091	16972
907.208	17041
907.324	17010
907.441	16824
907.557	16561
907.674	16607
907.79	16599
907.907	16542
908.023	16641
908.139	16588
908.256	16584
908.372	16565
908.488	16466
908.604	16451
908.72	16424
908.836	16356
908.952	16257
909.068	16344
909.184	16474
909.3	16291
909.415	16306
909.531	16207
909.647	16105
909.762	15983
909.878	16017
909.993	16017
910.108	15903
910.224	15994
910.339	16017
910.454	15873
910.57	15854
910.685	15724
910.8	16139
910.915	15972
911.03	15789
911.145	15660
911.259	15709
911.374	15671
911.489	15603
911.604	15496
911.718	15340
911.833	15325
911.947	15348
912.062	15268
912.176	15443
912.291	15515
912.405	15523
912.519	15587
912.633	15557
912.748	15370
912.862	15389
912.976	15370
913.09	15093
913.204	15150
913.318	15249
913.431	15306
913.545	15332
913.659	15367
913.772	15180
913.886	15047
914	15005
914.113	15131
914.226	15230
914.34	15051
914.453	14998
914.566	15051
914.68	14906
914.793	14967
914.906	14754
915.019	14659
915.132	14632
915.245	14655
915.358	14598
915.47	14625
915.583	14655
915.696	14689
915.809	14781
915.921	14830
916.034	14648
916.146	14507
916.259	14415
916.371	14629
916.483	14587
916.595	14606
916.708	14503
916.82	14434
916.932	14446
917.044	14503
917.156	14377
917.268	14282
917.38	14343
917.491	14225
917.603	14317
917.715	14358
917.826	14366
917.938	14278
918.049	14168
918.161	14271
918.272	14476
918.384	14339
918.495	14275
918.606	14092
918.717	14054
918.828	14088
918.939	14130
919.05	14024
919.161	14138
919.272	13871
919.383	13849
919.494	14107
919.604	14271
919.715	14058
919.826	14008
919.936	14008
920.047	14111
920.157	14107
920.267	14263
920.378	14145
920.488	13951
920.598	14248
920.708	14282
920.818	14176
920.928	14271
921.038	14339
921.148	14286
921.258	14016
921.368	13997
921.477	13860
921.587	13833
921.697	13750
921.806	13795
921.916	13674
922.025	13582
922.134	13483
922.244	13453
922.353	13499
922.462	13396
922.571	13312
922.68	13160
922.789	13122
922.898	13122
923.007	13038
923.116	13156
923.224	13103
923.333	13061
923.442	13019
923.55	12890
923.659	13031
923.767	13072
923.876	12943
923.984	12909
924.092	12844
924.201	12871
924.309	12825
924.417	12840
924.525	12806
924.633	12772
924.741	13578
924.849	12574
924.956	12669
925.064	12639
925.172	12517
925.279	12559
925.387	12608
925.494	12608
925.602	12726
925.709	12662
925.816	12429
925.924	12410
926.031	12654
926.138	12376
926.245	12589
926.352	12407
926.459	12471
926.566	12620
926.673	12429
926.779	12319
926.886	12304
926.993	12186
927.099	12171
927.206	12171
927.312	12034
927.419	12163
927.525	12091
927.631	12213
927.737	12079
927.843	12038
927.95	11824
928.056	11942
928.162	11988
928.267	11999
928.373	12639
928.479	12117
928.585	11794
928.69	11954
928.796	11954
928.901	11863
929.007	11691
929.112	11813
929.218	11908
929.323	11760
929.428	11710
929.533	11794
929.638	11619
929.743	11665
929.848	11665
929.953	11741
930.058	11562
930.163	11444
930.267	11410
930.372	11528
930.477	11387
930.581	11665
930.685	11512
930.79	11311
930.894	11337
930.998	11269
931.103	11417
931.207	11109
931.311	11003
931.415	10949
931.519	10748
931.623	10645
