Data from test_V78500241_2132.txt Node
Date: Fri Mar 25 15:24:42 CST 2022
User: usil
Spectrometer: V785-0024
Trigger mode: 0
Integration Time (sec): 4.000000E-1
Scans to average: 1
Nonlinearity correction enabled: false
Boxcar width: 0
Storing dark spectrum: false
XAxis mode: Wavelengths
Number of Pixels in Spectrum: 1024
>>>>>Begin Spectral Data<<<<<
801.071	27667
801.214	27644
801.356	27302
801.499	27199
801.641	27165
801.783	27100
801.926	27287
802.068	27173
802.211	27074
802.353	27077
802.496	26891
802.638	26956
802.78	26891
802.923	26864
803.065	26705
803.208	26823
803.35	26872
803.492	27055
803.635	27062
803.777	26948
803.919	26998
804.061	27321
804.204	27161
804.346	26956
804.488	27093
804.63	27207
804.773	27062
804.915	27066
805.057	27165
805.199	27070
805.341	27112
805.483	27184
805.626	27199
805.768	27020
805.91	27154
806.052	27203
806.194	26956
806.336	27397
806.478	27294
806.62	27233
806.762	27226
806.904	27416
807.046	27724
807.188	27709
807.33	27633
807.472	27667
807.614	27538
807.756	27530
807.898	27359
808.04	27466
808.182	27504
808.324	27256
808.465	27526
808.607	27637
808.749	27838
808.891	27873
809.033	27876
809.174	27960
809.316	27804
809.458	27751
809.6	27770
809.741	27918
809.883	27945
810.025	28021
810.166	28093
810.308	28219
810.45	27991
810.591	27831
810.733	27785
810.875	27759
811.016	27641
811.158	27660
811.299	27918
811.441	27934
811.582	27991
811.724	27797
811.865	27690
812.007	27774
812.148	27770
812.29	27781
812.431	27861
812.573	28101
812.714	28219
812.855	28386
812.997	28360
813.138	28478
813.279	28424
813.421	28375
813.562	28318
813.703	28147
813.845	28017
813.986	27743
814.127	27583
814.268	27454
814.41	27496
814.551	27500
814.692	27682
814.833	27469
814.974	27393
815.115	27637
815.256	27378
815.397	27252
815.539	27336
815.68	27146
815.821	27119
815.962	27211
816.103	27256
816.244	27169
816.385	27203
816.526	27036
816.666	26944
816.807	26629
816.948	26735
817.089	26834
817.23	26743
817.371	26716
817.512	26720
817.653	26636
817.793	26602
817.934	26693
818.075	26849
818.216	26651
818.356	26613
818.497	26602
818.638	26507
818.778	26640
818.919	26678
819.06	26450
819.2	26564
819.341	26724
819.481	26754
819.622	26861
819.762	27051
819.903	26921
820.043	26819
820.184	26842
820.324	26815
820.465	26861
820.605	26864
820.746	26868
820.886	26625
821.026	26708
821.167	26758
821.307	26788
821.447	26781
821.588	26708
821.728	26625
821.868	26347
822.008	26248
822.149	26126
822.289	26218
822.429	25890
822.569	25883
822.709	25651
822.849	25765
822.99	25674
823.13	25674
823.27	25575
823.41	25578
823.55	25422
823.69	25407
823.83	25537
823.97	25472
824.11	25225
824.25	25354
824.389	25175
824.529	25373
824.669	25285
824.809	25396
824.949	25460
825.089	25529
825.228	25384
825.368	25126
825.508	25156
825.648	25190
825.787	25148
825.927	25339
826.067	25183
826.206	25194
826.346	25236
826.485	25141
826.625	25213
826.765	25263
826.904	25244
827.044	25000
827.183	24966
827.323	24837
827.462	24992
827.601	24852
827.741	24863
827.88	24981
828.02	24703
828.159	24909
828.298	24920
828.437	24939
828.577	24897
828.716	24973
828.855	24806
828.994	24631
829.134	24582
829.273	24665
829.412	24597
829.551	24414
829.69	24528
829.829	24589
829.968	24654
830.107	24589
830.246	24570
830.385	24570
830.524	24566
830.663	24399
830.802	24285
830.941	24224
831.08	24194
831.219	24182
831.357	24300
831.496	24292
831.635	24011
831.774	24007
831.913	23999
832.051	23916
832.19	23980
832.329	24095
832.467	23832
832.606	23786
832.744	23790
832.883	23813
833.022	23923
833.16	23950
833.299	23847
833.437	23912
833.576	23942
833.714	23923
833.852	23988
833.991	24022
834.129	24053
834.267	24072
834.406	23950
834.544	23961
834.682	23954
834.821	23901
834.959	24087
835.097	23809
835.235	24079
835.373	23935
835.511	23840
835.65	23733
835.788	23665
835.926	23642
836.064	23554
836.202	23551
836.34	23836
836.478	23897
836.615	23756
836.753	23589
836.891	23843
837.029	23733
837.167	23619
837.305	23695
837.443	23623
837.58	23592
837.718	23695
837.856	23611
837.993	23566
838.131	23592
838.269	23452
838.406	23406
838.544	23440
838.681	23299
838.819	23223
838.956	23105
839.094	23083
839.231	23067
839.369	23307
839.506	23436
839.643	23181
839.781	22980
839.918	23056
840.055	23044
840.193	23079
840.33	22991
840.467	22980
840.604	23025
840.742	23178
840.879	22816
841.016	22980
841.153	22889
841.29	23143
841.427	23003
841.564	22984
841.701	22987
841.838	22812
841.975	22904
842.112	22839
842.249	22755
842.385	22687
842.522	22968
842.659	22706
842.796	22767
842.933	22820
843.069	22698
843.206	22702
843.343	22710
843.479	22744
843.616	22717
843.752	22565
843.889	22573
844.025	22763
844.162	22440
844.298	22565
844.435	22478
844.571	22565
844.708	22622
844.844	22641
844.98	22615
845.117	22626
845.253	22409
845.389	22535
845.525	22504
845.661	22356
845.798	22379
845.934	22261
846.07	22238
846.206	22337
846.342	22428
846.478	22306
846.614	22074
846.75	21823
846.886	21899
847.022	22013
847.158	21998
847.294	22055
847.429	22040
847.565	21975
847.701	22135
847.837	21698
847.972	21759
848.108	21778
848.244	21717
848.379	21720
848.515	21625
848.65	21473
848.786	21523
848.921	21557
849.057	21625
849.192	21614
849.328	21614
849.463	21564
849.598	21507
849.734	21447
849.869	21389
850.004	21336
850.14	21344
850.275	21241
850.41	21245
850.545	21283
850.68	21287
850.815	21313
850.95	21382
851.085	21523
851.22	21367
851.355	21317
851.49	21306
851.625	21272
851.76	21294
851.895	21252
852.03	21321
852.165	21374
852.299	21336
852.434	21321
852.569	21298
852.703	21355
852.838	21279
852.973	21507
853.107	21431
853.242	21195
853.376	21039
853.511	21127
853.645	21066
853.78	21317
853.914	21169
854.048	21169
854.183	21138
854.317	21233
854.451	21279
854.585	21100
854.72	21249
854.854	21332
854.988	21055
855.122	21241
855.256	21032
855.39	21070
855.524	21161
855.658	21272
855.792	21081
855.926	21180
856.06	21184
856.194	21150
856.327	21100
856.461	21135
856.595	21195
856.729	21157
856.862	21298
856.996	21195
857.13	21329
857.263	21226
857.397	21279
857.53	21264
857.664	21199
857.797	21203
857.931	21355
858.064	21275
858.197	21127
858.331	21161
858.464	21195
858.597	20925
858.731	21039
858.864	21093
858.997	21043
859.13	21184
859.263	21214
859.396	21264
859.529	21119
859.662	21104
859.795	21032
859.928	21150
860.061	21416
860.194	21405
860.327	21268
860.46	21192
860.592	21272
860.725	21313
860.858	21268
860.99	21154
861.123	20986
861.256	21081
861.388	21096
861.521	21789
861.653	20956
861.786	20819
861.918	21070
862.05	20975
862.183	20994
862.315	21127
862.447	21142
862.58	21085
862.712	20891
862.844	20811
862.976	20960
863.108	20941
863.24	21283
863.372	20743
863.504	21051
863.636	20807
863.768	20804
863.9	20861
864.032	20724
864.164	20769
864.296	20868
864.428	20868
864.559	20918
864.691	20979
864.823	20853
864.954	20853
865.086	20830
865.217	20705
865.349	20849
865.48	20708
865.612	20777
865.743	20853
865.875	20819
866.006	20788
866.137	20686
866.269	20811
866.4	20678
866.531	20667
866.662	20640
866.793	20579
866.924	20697
867.055	20762
867.186	20701
867.317	20697
867.448	20636
867.579	20602
867.71	20560
867.841	20568
867.972	20739
868.103	20739
868.233	20682
868.364	20594
868.495	20724
868.625	20963
868.756	20990
868.886	20929
869.017	20902
869.147	21005
869.278	21043
869.408	21028
869.539	20937
869.669	20944
869.799	20925
869.929	21028
870.06	21024
870.19	21207
870.32	21214
870.45	21230
870.58	21279
870.71	21500
870.84	21496
870.97	21245
871.1	21321
871.23	21431
871.36	21500
871.489	21386
871.619	21515
871.749	21614
871.879	21568
872.008	21633
872.138	21538
872.267	21511
872.397	21378
872.526	21279
872.656	21408
872.785	21408
872.915	21530
873.044	21580
873.173	21488
873.303	21568
873.432	21599
873.561	21736
873.69	21576
873.819	21526
873.948	21637
874.077	21561
874.206	21557
874.335	21511
874.464	21564
874.593	21793
874.722	21656
874.851	21835
874.979	21770
875.108	21739
875.237	21580
875.365	21671
875.494	21770
875.623	21800
875.751	21732
875.88	21831
876.008	21911
876.136	22010
876.265	22287
876.393	22329
876.521	22173
876.65	22310
876.778	22249
876.906	22173
877.034	22090
877.162	22105
877.29	22017
877.418	22082
877.546	22287
877.674	22120
877.802	22116
877.93	22006
878.058	22173
878.185	22040
878.313	22021
878.441	22162
878.568	22025
878.696	22063
878.824	22128
878.951	22325
879.079	22314
879.206	22462
879.333	22215
879.461	22192
879.588	22261
879.715	22333
879.842	22398
879.97	22230
880.097	21998
880.224	21983
880.351	22032
880.478	21968
880.605	21945
880.732	21907
880.859	22215
880.986	22044
881.112	21827
881.239	21812
881.366	21667
881.493	21572
881.619	21595
881.746	21538
881.872	21591
881.999	21580
882.125	21526
882.252	21576
882.378	21469
882.505	21641
882.631	21405
882.757	21096
882.883	21203
883.01	21188
883.136	21127
883.262	21085
883.388	20933
883.514	21207
883.64	21252
883.766	21074
883.892	21001
884.018	21150
884.143	21218
884.269	21275
884.395	20941
884.52	20952
884.646	20864
884.772	20815
884.897	20807
885.023	20853
885.148	20979
885.274	20929
885.399	21001
885.524	20918
885.65	20788
885.775	20925
885.9	20693
886.025	20986
886.15	20902
886.275	20777
886.4	20880
886.525	20895
886.65	20929
886.775	20765
886.9	20967
887.025	21001
887.149	20785
887.274	20857
887.399	20533
887.523	20636
887.648	20587
887.773	20526
887.897	20701
888.021	20765
888.146	20682
888.27	20708
888.395	20826
888.519	20663
888.643	20701
888.767	20712
888.891	20609
889.015	20507
889.139	20530
889.263	20469
889.387	20678
889.511	20598
889.635	20705
889.759	20438
889.883	20393
890.006	20480
890.13	20587
890.254	20343
890.377	20450
890.501	20263
890.624	20100
890.748	20130
890.871	20195
890.995	19967
891.118	20062
891.241	20058
891.364	20183
891.488	20111
891.611	20054
891.734	20088
891.857	20046
891.98	20043
892.103	20161
892.226	19963
892.349	20035
892.471	19967
892.594	19898
892.717	19898
892.839	19986
892.962	19986
893.085	20115
893.207	19871
893.33	19967
893.452	19746
893.575	20039
893.697	20035
893.819	20107
893.941	20069
894.064	20027
894.186	19887
894.308	19727
894.43	20092
894.552	20157
894.674	20069
894.796	19833
894.918	19967
895.04	19799
895.161	20092
895.283	20001
895.405	19864
895.526	20035
895.648	19986
895.769	19997
895.891	19978
896.012	20084
896.134	20058
896.255	20027
896.376	19925
896.498	19944
896.619	19913
896.74	20005
896.861	20058
896.982	20309
897.103	20385
897.224	20157
897.345	20149
897.466	20096
897.587	20229
897.708	20263
897.828	20244
897.949	20164
898.07	19955
898.19	20180
898.311	20218
898.431	20069
898.552	20221
898.672	20237
898.792	20214
898.913	20195
899.033	20092
899.153	19944
899.273	19890
899.393	19909
899.513	19955
899.633	20020
899.753	19986
899.873	19818
899.993	20024
900.113	19902
900.232	19986
900.352	19757
900.472	19833
900.591	19693
900.711	19738
900.83	19613
900.95	19822
901.069	19921
901.189	19571
901.308	19518
901.427	19240
901.546	19419
901.665	19324
901.784	19236
901.904	19152
902.023	19118
902.141	18909
902.26	18916
902.379	18886
902.498	18821
902.617	18810
902.735	18791
902.854	18757
902.973	18696
903.091	18464
903.21	18517
903.328	18566
903.446	18365
903.565	18277
903.683	18300
903.801	18220
903.919	18334
904.038	18228
904.156	18098
904.274	18163
904.392	18034
904.51	18057
904.627	18049
904.745	18026
904.863	18064
904.981	17745
905.098	17809
905.216	17657
905.334	17714
905.451	17760
905.569	17771
905.686	17756
905.803	17699
905.921	17486
906.038	17668
906.155	17444
906.272	17372
906.389	17429
906.506	17227
906.623	17254
906.74	17246
906.857	17227
906.974	17250
907.091	17322
907.208	17277
907.324	17235
907.441	17170
907.557	16991
907.674	17094
907.79	16923
907.907	16984
908.023	17033
908.139	16957
908.256	16949
908.372	16972
908.488	16820
908.604	16824
908.72	16683
908.836	16767
908.952	16641
909.068	16721
909.184	16771
909.3	16713
909.415	16752
909.531	16713
909.647	16405
909.762	16417
909.878	16310
909.993	16386
910.108	16310
910.224	16379
910.339	16341
910.454	16257
910.57	16223
910.685	16192
910.8	16379
910.915	16367
911.03	16112
911.145	16097
911.259	16109
911.374	16071
911.489	15873
911.604	15857
911.718	15793
911.833	15694
911.947	15690
912.062	15606
912.176	15789
912.291	15743
912.405	15713
912.519	15899
912.633	15869
912.748	15709
912.862	15770
912.976	15610
913.09	15428
913.204	15450
913.318	15553
913.431	15633
913.545	15671
913.659	15667
913.772	15492
913.886	15386
914	15291
914.113	15443
914.226	15614
914.34	15329
914.453	15325
914.566	15504
914.68	15306
914.793	15142
914.906	15085
915.019	14979
915.132	14967
915.245	14910
915.358	15062
915.47	14994
915.583	14941
915.696	15036
915.809	15142
915.921	15066
916.034	14948
916.146	14925
916.259	14887
916.371	14982
916.483	14948
916.595	14769
916.708	14838
916.82	14826
916.932	14781
917.044	14819
917.156	14716
917.268	14571
917.38	14743
917.491	14590
917.603	14598
917.715	14693
917.826	14724
917.938	14689
918.049	14473
918.161	14530
918.272	14693
918.384	14716
918.495	14545
918.606	14381
918.717	14336
918.828	14419
918.939	14492
919.05	14294
919.161	14358
919.272	14176
919.383	14225
919.494	14499
919.604	14533
919.715	14385
919.826	14294
919.936	14366
920.047	14522
920.157	14446
920.267	14590
920.378	14400
920.488	14301
920.598	14629
920.708	14682
920.818	14499
920.928	14514
921.038	14632
921.148	14579
921.258	14412
921.368	14199
921.477	14176
921.587	14077
921.697	14001
921.806	14107
921.916	13913
922.025	13818
922.134	13742
922.244	13647
922.353	13776
922.462	13639
922.571	13571
922.68	13411
922.789	13449
922.898	13495
923.007	13362
923.116	13449
923.224	13438
923.333	13411
923.442	13255
923.55	13232
923.659	13244
923.767	13304
923.876	13129
923.984	13255
924.092	13118
924.201	13251
924.309	13141
924.417	13057
924.525	13069
924.633	13088
924.741	13818
924.849	12871
924.956	13061
925.064	12878
925.172	12795
925.279	12707
925.387	12905
925.494	12741
925.602	12996
925.709	12852
925.816	12669
925.924	12787
926.031	12837
926.138	12806
926.245	12825
926.352	12555
926.459	12867
926.566	12878
926.673	12639
926.779	12521
926.886	12593
926.993	12513
927.099	12475
927.206	12395
927.312	12388
927.419	12547
927.525	12281
927.631	12369
927.737	12270
927.843	12319
927.95	12129
928.056	12224
928.162	12220
928.267	12327
928.373	12852
928.479	12391
928.585	12060
928.69	12129
928.796	12201
928.901	12053
929.007	11889
929.112	12007
929.218	12019
929.323	11942
929.428	11977
929.533	12079
929.638	11927
929.743	11931
929.848	11996
929.953	11897
930.058	11786
930.163	11589
930.267	11661
930.372	11745
930.477	11596
930.581	11824
930.685	11729
930.79	11512
930.894	11585
930.998	11490
931.103	11634
931.207	11288
931.311	11235
931.415	11079
931.519	10904
931.623	10896
