Data from test_V78500241_2102.txt Node
Date: Fri Mar 25 15:24:29 CST 2022
User: usil
Spectrometer: V785-0024
Trigger mode: 0
Integration Time (sec): 4.000000E-1
Scans to average: 1
Nonlinearity correction enabled: false
Boxcar width: 0
Storing dark spectrum: false
XAxis mode: Wavelengths
Number of Pixels in Spectrum: 1024
>>>>>Begin Spectral Data<<<<<
801.071	27983
801.214	27827
801.356	27515
801.499	27549
801.641	27561
801.783	27462
801.926	27481
802.068	27427
802.211	27359
802.353	27306
802.496	27135
802.638	27100
802.78	27089
802.923	27020
803.065	26967
803.208	26933
803.35	27039
803.492	27214
803.635	27287
803.777	27062
803.919	27302
804.061	27511
804.204	27275
804.346	27214
804.488	27317
804.63	27291
804.773	27184
804.915	27226
805.057	27268
805.199	27230
805.341	27245
805.483	27420
805.626	27230
805.768	27306
805.91	27298
806.052	27367
806.194	27237
806.336	27599
806.478	27275
806.62	27435
806.762	27648
806.904	27720
807.046	27880
807.188	27797
807.33	27888
807.472	27857
807.614	27823
807.756	27736
807.898	27709
808.04	27774
808.182	27545
808.324	27641
808.465	27701
808.607	27846
808.749	28074
808.891	28135
809.033	28131
809.174	28093
809.316	28086
809.458	28025
809.6	28078
809.741	28128
809.883	28131
810.025	28341
810.166	28120
810.308	28276
810.45	28150
810.591	28074
810.733	28044
810.875	28093
811.016	27968
811.158	27857
811.299	28181
811.441	28067
811.582	28139
811.724	27987
811.865	27975
812.007	28086
812.148	28101
812.29	28063
812.431	28154
812.573	28318
812.714	28344
812.855	28500
812.997	28580
813.138	28694
813.279	28679
813.421	28485
813.562	28386
813.703	28314
813.845	28082
813.986	27876
814.127	27808
814.268	27759
814.41	27675
814.551	27679
814.692	27682
814.833	27633
814.974	27682
815.115	27660
815.256	27526
815.397	27622
815.539	27561
815.68	27473
815.821	27431
815.962	27466
816.103	27500
816.244	27332
816.385	27180
816.526	27188
816.666	27116
816.807	26940
816.948	27039
817.089	27058
817.23	26990
817.371	26929
817.512	27017
817.653	26861
817.793	26861
817.934	27032
818.075	26982
818.216	26925
818.356	26929
818.497	26845
818.638	26807
818.778	26712
818.919	26689
819.06	26716
819.2	26963
819.341	26944
819.481	27173
819.622	27066
819.762	27279
819.903	27207
820.043	27036
820.184	27173
820.324	27161
820.465	27135
820.605	27074
820.746	27017
820.886	26925
821.026	27009
821.167	26944
821.307	27093
821.447	27112
821.588	26857
821.728	26796
821.868	26590
822.008	26419
822.149	26351
822.289	26431
822.429	26206
822.569	26020
822.709	26214
822.849	25936
822.99	26073
823.13	25883
823.27	25909
823.41	25811
823.55	25727
823.69	25803
823.83	25731
823.97	25826
824.11	25514
824.25	25578
824.389	25533
824.529	25689
824.669	25677
824.809	25605
824.949	25590
825.089	25738
825.228	25601
825.368	25594
825.508	25441
825.648	25415
825.787	25445
825.927	25552
826.067	25400
826.206	25487
826.346	25479
826.485	25479
826.625	25457
826.765	25613
826.904	25502
827.044	25266
827.183	25308
827.323	25126
827.462	25221
827.601	25114
827.741	25141
827.88	25126
828.02	24966
828.159	25171
828.298	25000
828.437	25168
828.577	25076
828.716	25221
828.855	25069
828.994	24954
829.134	24989
829.273	24848
829.412	24932
829.551	24711
829.69	24932
829.829	24875
829.968	24954
830.107	25000
830.246	24749
830.385	24791
830.524	24795
830.663	24623
830.802	24528
830.941	24433
831.08	24372
831.219	24475
831.357	24528
831.496	24760
831.635	24384
831.774	24410
831.913	24273
832.051	24247
832.19	24213
832.329	24228
832.467	24220
832.606	24197
832.744	24152
832.883	24136
833.022	24171
833.16	24098
833.299	24201
833.437	24034
833.576	24182
833.714	24163
833.852	24228
833.991	24186
834.129	24213
834.267	24148
834.406	24281
834.544	24273
834.682	24072
834.821	24060
834.959	24281
835.097	24133
835.235	24296
835.373	24247
835.511	24178
835.65	24022
835.788	23992
835.926	23912
836.064	23783
836.202	23901
836.34	24095
836.478	24136
836.615	24072
836.753	23965
836.891	24011
837.029	24125
837.167	23992
837.305	23908
837.443	23847
837.58	23885
837.718	23794
837.856	24045
837.993	23710
838.131	23855
838.269	23699
838.406	23790
838.544	23764
838.681	23524
838.819	23531
838.956	23296
839.094	23235
839.231	23501
839.369	23455
839.506	23809
839.643	23619
839.781	23368
839.918	23349
840.055	23315
840.193	23307
840.33	23185
840.467	23239
840.604	23299
840.742	23482
840.879	23079
841.016	23212
841.153	23083
841.29	23410
841.427	23143
841.564	23303
841.701	23242
841.838	23166
841.975	23121
842.112	23147
842.249	23056
842.385	23010
842.522	23147
842.659	22938
842.796	23060
842.933	22896
843.069	22908
843.206	22980
843.343	23037
843.479	23132
843.616	22942
843.752	22729
843.889	22786
844.025	22953
844.162	22744
844.298	22854
844.435	22691
844.571	22797
844.708	22706
844.844	22889
844.98	22850
845.117	22847
845.253	22634
845.389	22767
845.525	22626
845.661	22660
845.798	22356
845.934	22531
846.07	22398
846.206	22474
846.342	22649
846.478	22611
846.614	22287
846.75	22268
846.886	22314
847.022	22249
847.158	22226
847.294	22230
847.429	22253
847.565	22226
847.701	22428
847.837	22070
847.972	21945
848.108	21991
848.244	22025
848.379	21930
848.515	21854
848.65	21827
848.786	21831
848.921	21892
849.057	21949
849.192	21926
849.328	21918
849.463	21797
849.598	21884
849.734	21705
849.869	21724
850.004	21606
850.14	21759
850.275	21698
850.41	21462
850.545	21542
850.68	21568
850.815	21583
850.95	21629
851.085	21736
851.22	21720
851.355	21572
851.49	21606
851.625	21633
851.76	21526
851.895	21458
852.03	21386
852.165	21519
852.299	21538
852.434	21629
852.569	21633
852.703	21519
852.838	21545
852.973	21724
853.107	21751
853.242	21553
853.376	21526
853.511	21275
853.645	21260
853.78	21408
853.914	21317
854.048	21260
854.183	21481
854.317	21408
854.451	21618
854.585	21355
854.72	21473
854.854	21450
854.988	21283
855.122	21485
855.256	21226
855.39	21416
855.524	21488
855.658	21477
855.792	21492
855.926	21473
856.06	21477
856.194	21542
856.327	21310
856.461	21325
856.595	21393
856.729	21291
856.862	21568
856.996	21412
857.13	21538
857.263	21500
857.397	21561
857.53	21397
857.664	21416
857.797	21481
857.931	21538
858.064	21321
858.197	21485
858.331	21397
858.464	21378
858.597	21344
858.731	21249
858.864	21389
858.997	21416
859.13	21389
859.263	21481
859.396	21431
859.529	21351
859.662	21359
859.795	21367
859.928	21428
860.061	21637
860.194	21545
860.327	21447
860.46	21336
860.592	21526
860.725	21534
860.858	21603
860.99	21397
861.123	21298
861.256	21504
861.388	21496
861.521	21968
861.653	21275
861.786	21230
861.918	21192
862.05	21351
862.183	21252
862.315	21294
862.447	21367
862.58	21233
862.712	21195
862.844	21100
862.976	21207
863.108	21252
863.24	21431
863.372	21123
863.504	21066
863.636	21180
863.768	21138
863.9	21089
864.032	21070
864.164	21180
864.296	21199
864.428	21169
864.559	21195
864.691	21074
864.823	21169
864.954	21100
865.086	21127
865.217	21077
865.349	20982
865.48	20918
865.612	20933
865.743	21089
865.875	21013
866.006	21032
866.137	21028
866.269	21074
866.4	20941
866.531	20933
866.662	20971
866.793	20899
866.924	20861
867.055	20967
867.186	20963
867.317	20971
867.448	20982
867.579	20937
867.71	20807
867.841	20872
867.972	20975
868.103	20819
868.233	20906
868.364	20906
868.495	21028
868.625	21237
868.756	21264
868.886	21127
869.017	21272
869.147	21287
869.278	21264
869.408	21252
869.539	21093
869.669	21051
869.799	21272
869.929	21310
870.06	21279
870.19	21450
870.32	21477
870.45	21507
870.58	21580
870.71	21701
870.84	21705
870.97	21507
871.1	21595
871.23	21762
871.36	21873
871.489	21637
871.619	21705
871.749	21819
871.879	21846
872.008	21857
872.138	21793
872.267	21873
872.397	21701
872.526	21644
872.656	21545
872.785	21648
872.915	21694
873.044	21861
873.173	21865
873.303	21838
873.432	21838
873.561	21846
873.69	21660
873.819	21785
873.948	21930
874.077	21831
874.206	21789
874.335	21778
874.464	21953
874.593	22044
874.722	22086
874.851	22051
874.979	22101
875.108	21968
875.237	21998
875.365	21972
875.494	21998
875.623	22097
875.751	22063
875.88	21945
876.008	22219
876.136	22226
876.265	22459
876.393	22538
876.521	22489
876.65	22577
876.778	22417
876.906	22421
877.034	22367
877.162	22314
877.29	22333
877.418	22409
877.546	22459
877.674	22402
877.802	22284
877.93	22428
878.058	22379
878.185	22371
878.313	22413
878.441	22386
878.568	22234
878.696	22147
878.824	22455
878.951	22379
879.079	22573
879.206	22721
879.333	22767
879.461	22333
879.588	22432
879.715	22512
879.842	22675
879.97	22531
880.097	22177
880.224	22223
880.351	22284
880.478	22284
880.605	22211
880.732	22242
880.859	22386
880.986	22329
881.112	22204
881.239	22188
881.366	22048
881.493	21987
881.619	21888
881.746	21808
881.872	21835
881.999	21850
882.125	21720
882.252	21850
882.378	21869
882.505	21960
882.631	21652
882.757	21591
882.883	21633
883.01	21534
883.136	21428
883.262	21401
883.388	21268
883.514	21599
883.64	21519
883.766	21553
883.892	21241
884.018	21405
884.143	21545
884.269	21488
884.395	21154
884.52	21268
884.646	21123
884.772	21039
884.897	21070
885.023	21089
885.148	21393
885.274	21218
885.399	21241
885.524	21043
885.65	21051
885.775	21123
885.9	21203
886.025	21268
886.15	21157
886.275	21104
886.4	21036
886.525	21066
886.65	21192
886.775	21108
886.9	21169
887.025	21249
887.149	21001
887.274	20861
887.399	20956
887.523	20952
887.648	20743
887.773	20743
887.897	21032
888.021	20849
888.146	20819
888.27	21047
888.395	21043
888.519	20883
888.643	20921
888.767	20990
888.891	20853
889.015	20762
889.139	20796
889.263	20735
889.387	20815
889.511	20937
889.635	20746
889.759	20632
889.883	20743
890.006	20617
890.13	20781
890.254	20682
890.377	20670
890.501	20446
890.624	20423
890.748	20522
890.871	20343
890.995	20305
891.118	20195
891.241	20347
891.364	20286
891.488	20324
891.611	20240
891.734	20202
891.857	20336
891.98	20301
892.103	20381
892.226	20252
892.349	20271
892.471	20119
892.594	20343
892.717	20202
892.839	20134
892.962	20218
893.085	20153
893.207	20180
893.33	19978
893.452	20134
893.575	20084
893.697	20100
893.819	20214
893.941	20431
894.064	20343
894.186	20119
894.308	20084
894.43	20309
894.552	20290
894.674	20267
894.796	20176
894.918	20138
895.04	20077
895.161	20214
895.283	20229
895.405	20046
895.526	20100
895.648	20168
895.769	20077
895.891	20218
896.012	20278
896.134	20233
896.255	20145
896.376	20050
896.498	20031
896.619	20267
896.74	20012
896.861	20195
896.982	20450
897.103	20598
897.224	20347
897.345	20351
897.466	20256
897.587	20301
897.708	20415
897.828	20332
897.949	20229
898.07	20214
898.19	20278
898.311	20442
898.431	20370
898.552	20366
898.672	20465
898.792	20362
898.913	20415
899.033	20301
899.153	20275
899.273	20096
899.393	20058
899.513	20221
899.633	20180
899.753	20168
899.873	20084
899.993	20225
900.113	20088
900.232	20153
900.352	20054
900.472	19974
900.591	19822
900.711	19837
900.83	19841
900.95	19997
901.069	20020
901.189	19791
901.308	19525
901.427	19529
901.546	19483
901.665	19487
901.784	19483
901.904	19308
902.023	19282
902.141	19168
902.26	18977
902.379	19160
902.498	18981
902.617	19008
902.735	19072
902.854	18993
902.973	18837
903.091	18722
903.21	18779
903.328	18783
903.446	18525
903.565	18578
903.683	18513
903.801	18445
903.919	18460
904.038	18353
904.156	18235
904.274	18388
904.392	18251
904.51	18247
904.627	18266
904.745	18353
904.863	18266
904.981	17977
905.098	17874
905.216	17904
905.334	17939
905.451	17999
905.569	17939
905.686	17958
905.803	17859
905.921	17661
906.038	17805
906.155	17790
906.272	17608
906.389	17623
906.506	17547
906.623	17448
906.74	17414
906.857	17356
906.974	17391
907.091	17383
907.208	17657
907.324	17410
907.441	17322
907.557	17166
907.674	17124
907.79	17121
907.907	17261
908.023	17212
908.139	17197
908.256	17071
908.372	17018
908.488	17014
908.604	16938
908.72	16915
908.836	16991
908.952	16934
909.068	16908
909.184	16972
909.3	16915
909.415	16869
909.531	16946
909.647	16634
909.762	16607
909.878	16531
909.993	16588
910.108	16596
910.224	16493
910.339	16489
910.454	16599
910.57	16299
910.685	16341
910.8	16607
910.915	16512
911.03	16291
911.145	16348
911.259	16166
911.374	16116
911.489	16082
911.604	16124
911.718	15876
911.833	15945
911.947	15812
912.062	15743
912.176	15892
912.291	15819
912.405	15949
912.519	16101
912.633	16082
912.748	15979
912.862	15949
912.976	15705
913.09	15671
913.204	15644
913.318	15873
913.431	15827
913.545	15869
913.659	15846
913.772	15656
913.886	15542
914	15549
914.113	15694
914.226	15682
914.34	15618
914.453	15355
914.566	15519
914.68	15477
914.793	15450
914.906	15230
915.019	15123
915.132	15116
915.245	15058
915.358	15138
915.47	15146
915.583	15119
915.696	15176
915.809	15226
915.921	15298
916.034	15150
916.146	15100
916.259	15017
916.371	15074
916.483	15100
916.595	14921
916.708	14914
916.82	15017
916.932	15036
917.044	14948
917.156	14994
917.268	14830
917.38	14842
917.491	14720
917.603	14834
917.715	14872
917.826	14944
917.938	14758
918.049	14568
918.161	14712
918.272	14876
918.384	14800
918.495	14754
918.606	14575
918.717	14419
918.828	14598
918.939	14610
919.05	14465
919.161	14552
919.272	14256
919.383	14332
919.494	14644
919.604	14807
919.715	14530
919.826	14366
919.936	14469
920.047	14689
920.157	14530
920.267	14689
920.378	14514
920.488	14431
920.598	14648
920.708	14807
920.818	14632
920.928	14610
921.038	14800
921.148	14765
921.258	14427
921.368	14256
921.477	14343
921.587	14305
921.697	14126
921.806	14244
921.916	14084
922.025	13894
922.134	13883
922.244	13830
922.353	13928
922.462	13765
922.571	13723
922.68	13563
922.789	13590
922.898	13571
923.007	13464
923.116	13582
923.224	13658
923.333	13491
923.442	13407
923.55	13415
923.659	13350
923.767	13476
923.876	13301
923.984	13445
924.092	13240
924.201	13263
924.309	13327
924.417	13346
924.525	13221
924.633	13247
924.741	13993
924.849	13012
924.956	13141
925.064	13027
925.172	12875
925.279	12913
925.387	12958
925.494	12962
925.602	13053
925.709	13046
925.816	12897
925.924	12924
926.031	13034
926.138	12939
926.245	12890
926.352	12749
926.459	12913
926.566	13019
926.673	12806
926.779	12768
926.886	12837
926.993	12555
927.099	12551
927.206	12540
927.312	12433
927.419	12563
927.525	12544
927.631	12528
927.737	12418
927.843	12289
927.95	12292
928.056	12376
928.162	12338
928.267	12422
928.373	13000
928.479	12361
928.585	12175
928.69	12403
928.796	12300
928.901	12209
929.007	12083
929.112	12182
929.218	12159
929.323	12106
929.428	12030
929.533	12136
929.638	11908
929.743	12019
929.848	12057
929.953	12026
930.058	11950
930.163	11775
930.267	11813
930.372	11840
930.477	11638
930.581	11999
930.685	11882
930.79	11638
930.894	11634
930.998	11547
931.103	11748
931.207	11341
931.311	11368
931.415	11227
931.519	11003
931.623	11014
