Data from test_V78500241_2383.txt Node
Date: Fri Mar 25 15:26:27 CST 2022
User: usil
Spectrometer: V785-0024
Trigger mode: 0
Integration Time (sec): 4.000000E-1
Scans to average: 1
Nonlinearity correction enabled: false
Boxcar width: 0
Storing dark spectrum: false
XAxis mode: Wavelengths
Number of Pixels in Spectrum: 1024
>>>>>Begin Spectral Data<<<<<
801.071	27458
801.214	27332
801.356	27199
801.499	26967
801.641	26979
801.783	26960
801.926	27009
802.068	26956
802.211	26826
802.353	26811
802.496	26579
802.638	26602
802.78	26488
802.923	26568
803.065	26465
803.208	26446
803.35	26514
803.492	26720
803.635	26746
803.777	26686
803.919	26769
804.061	27138
804.204	26838
804.346	26648
804.488	26579
804.63	26800
804.773	26731
804.915	26853
805.057	26861
805.199	26621
805.341	26693
805.483	26872
805.626	26815
805.768	26708
805.91	26937
806.052	26838
806.194	26682
806.336	27013
806.478	26845
806.62	26914
806.762	26990
806.904	27199
807.046	27195
807.188	27127
807.33	27226
807.472	27378
807.614	27150
807.756	27123
807.898	27119
808.04	26994
808.182	27100
808.324	27249
808.465	27047
808.607	27355
808.749	27538
808.891	27507
809.033	27431
809.174	27458
809.316	27519
809.458	27256
809.6	27466
809.741	27336
809.883	27553
810.025	27641
810.166	27720
810.308	27671
810.45	27625
810.591	27545
810.733	27321
810.875	27473
811.016	27355
811.158	27226
811.299	27317
811.441	27576
811.582	27606
811.724	27382
811.865	27408
812.007	27504
812.148	27325
812.29	27374
812.431	27576
812.573	27652
812.714	27850
812.855	27816
812.997	28021
813.138	28188
813.279	28067
813.421	27949
813.562	27854
813.703	27644
813.845	27698
813.986	27294
814.127	27135
814.268	27074
814.41	27169
814.551	27013
814.692	27161
814.833	26971
814.974	27089
815.115	27013
815.256	26990
815.397	26944
815.539	26986
815.68	26948
815.821	26743
815.962	26796
816.103	26705
816.244	26731
816.385	26511
816.526	26617
816.666	26377
816.807	26385
816.948	26362
817.089	26393
817.23	26461
817.371	26381
817.512	26256
817.653	26332
817.793	26275
817.934	26404
818.075	26286
818.216	26438
818.356	26278
818.497	26202
818.638	26103
818.778	26161
818.919	26111
819.06	26138
819.2	26187
819.341	26358
819.481	26259
819.622	26549
819.762	26769
819.903	26568
820.043	26492
820.184	26648
820.324	26389
820.465	26495
820.605	26488
820.746	26347
820.886	26309
821.026	26336
821.167	26473
821.307	26465
821.447	26298
821.588	26298
821.728	26176
821.868	25898
822.008	25944
822.149	25944
822.289	25830
822.429	25639
822.569	25525
822.709	25544
822.849	25236
822.99	25320
823.13	25282
823.27	25335
823.41	25126
823.55	25095
823.69	25198
823.83	25126
823.97	25072
824.11	24954
824.25	24989
824.389	24962
824.529	25034
824.669	24829
824.809	25175
824.949	24996
825.089	25038
825.228	24935
825.368	24909
825.508	24741
825.648	24821
825.787	24859
825.927	24871
826.067	24764
826.206	24924
826.346	24856
826.485	24875
826.625	24711
826.765	24909
826.904	24970
827.044	24688
827.183	24650
827.323	24475
827.462	24745
827.601	24601
827.741	24528
827.88	24544
828.02	24418
828.159	24578
828.298	24597
828.437	24631
828.577	24521
828.716	24642
828.855	24479
828.994	24289
829.134	24190
829.273	24315
829.412	24304
829.551	24174
829.69	24182
829.829	24277
829.968	24361
830.107	24475
830.246	24281
830.385	24140
830.524	24239
830.663	24049
830.802	23931
830.941	23961
831.08	23824
831.219	24026
831.357	24022
831.496	24064
831.635	23927
831.774	23805
831.913	23714
832.051	23611
832.19	23581
832.329	23687
832.467	23497
832.606	23372
832.744	23490
832.883	23493
833.022	23467
833.16	23562
833.299	23627
833.437	23566
833.576	23562
833.714	23524
833.852	23596
833.991	23760
834.129	23547
834.267	23665
834.406	23615
834.544	23615
834.682	23482
834.821	23486
834.959	23741
835.097	23448
835.235	23691
835.373	23726
835.511	23520
835.65	23577
835.788	23398
835.926	23330
836.064	23296
836.202	23174
836.34	23467
836.478	23638
836.615	23463
836.753	23410
836.891	23509
837.029	23509
837.167	23349
837.305	23360
837.443	23273
837.58	23204
837.718	23417
837.856	23330
837.993	23132
838.131	23216
838.269	23220
838.406	23193
838.544	23136
838.681	23014
838.819	22812
838.956	22675
839.094	22752
839.231	22877
839.369	23037
839.506	23136
839.643	22892
839.781	22843
839.918	22740
840.055	22763
840.193	22653
840.33	22645
840.467	22683
840.604	22847
840.742	22869
840.879	22550
841.016	22626
841.153	22603
841.29	22786
841.427	22615
841.564	22733
841.701	22786
841.838	22645
841.975	22550
842.112	22721
842.249	22440
842.385	22535
842.522	22588
842.659	22424
842.796	22402
842.933	22466
843.069	22363
843.206	22451
843.343	22577
843.479	22512
843.616	22356
843.752	22261
843.889	22291
844.025	22356
844.162	22188
844.298	22390
844.435	22143
844.571	22257
844.708	22234
844.844	22360
844.98	22466
845.117	22234
845.253	22215
845.389	22086
845.525	22196
845.661	22029
845.798	21979
845.934	21991
846.07	21934
846.206	21903
846.342	22105
846.478	21945
846.614	21800
846.75	21717
846.886	21690
847.022	21816
847.158	21709
847.294	21778
847.429	21736
847.565	21587
847.701	21983
847.837	21450
847.972	21488
848.108	21439
848.244	21481
848.379	21332
848.515	21329
848.65	21313
848.786	21348
848.921	21203
849.057	21374
849.192	21370
849.328	21272
849.463	21302
849.598	21230
849.734	21173
849.869	21028
850.004	21211
850.14	21028
850.275	21036
850.41	21001
850.545	21039
850.68	20979
850.815	21085
850.95	21020
851.085	21131
851.22	21249
851.355	21093
851.49	21085
851.625	21096
851.76	21017
851.895	20876
852.03	20967
852.165	20982
852.299	21020
852.434	21085
852.569	21062
852.703	21024
852.838	21062
852.973	21184
853.107	21127
853.242	20960
853.376	20902
853.511	20724
853.645	20971
853.78	21070
853.914	20861
854.048	20743
854.183	20834
854.317	20914
854.451	21100
854.585	20826
854.72	20880
854.854	20944
854.988	20796
855.122	20724
855.256	20746
855.39	20823
855.524	20944
855.658	20853
855.792	20948
855.926	20864
856.06	20811
856.194	21028
856.327	20686
856.461	20773
856.595	20796
856.729	20925
856.862	20952
856.996	20956
857.13	20902
857.263	20975
857.397	20956
857.53	20826
857.664	20906
857.797	20819
857.931	21001
858.064	20868
858.197	20941
858.331	20921
858.464	20815
858.597	20746
858.731	20785
858.864	20785
858.997	20712
859.13	20849
859.263	20849
859.396	20914
859.529	20754
859.662	20834
859.795	20899
859.928	20804
860.061	20918
860.194	21051
860.327	20891
860.46	20758
860.592	20925
860.725	20948
860.858	20899
860.99	20762
861.123	20781
861.256	20769
861.388	20883
861.521	21405
861.653	20762
861.786	20708
861.918	20678
862.05	20708
862.183	20689
862.315	20800
862.447	20853
862.58	20785
862.712	20564
862.844	20613
862.976	20602
863.108	20655
863.24	21116
863.372	20537
863.504	20514
863.636	20617
863.768	20655
863.9	20556
864.032	20476
864.164	20606
864.296	20587
864.428	20674
864.559	20674
864.691	20708
864.823	20503
864.954	20632
865.086	20590
865.217	20370
865.349	20400
865.48	20526
865.612	20469
865.743	20632
865.875	20511
866.006	20400
866.137	20347
866.269	20461
866.4	20396
866.531	20446
866.662	20427
866.793	20370
866.924	20446
867.055	20381
867.186	20438
867.317	20332
867.448	20305
867.579	20351
867.71	20252
867.841	20248
867.972	20370
868.103	20465
868.233	20503
868.364	20495
868.495	20636
868.625	20678
868.756	20682
868.886	20632
869.017	20636
869.147	20823
869.278	20918
869.408	20655
869.539	20621
869.669	20765
869.799	20777
869.929	20819
870.06	20682
870.19	21043
870.32	20937
870.45	21024
870.58	21024
870.71	21032
870.84	21135
870.97	21051
871.1	20979
871.23	21252
871.36	21313
871.489	21142
871.619	21237
871.749	21173
871.879	21370
872.008	21344
872.138	21275
872.267	21195
872.397	21112
872.526	21036
872.656	21013
872.785	21154
872.915	21321
873.044	21382
873.173	21283
873.303	21428
873.432	21351
873.561	21363
873.69	21344
873.819	21275
873.948	21294
874.077	21367
874.206	21382
874.335	21329
874.464	21367
874.593	21519
874.722	21424
874.851	21492
874.979	21644
875.108	21576
875.237	21542
875.365	21466
875.494	21515
875.623	21504
875.751	21443
875.88	21462
876.008	21648
876.136	21819
876.265	22032
876.393	21998
876.521	22032
876.65	22029
876.778	22032
876.906	21869
877.034	21854
877.162	21838
877.29	21934
877.418	21949
877.546	21922
877.674	21831
877.802	21857
877.93	21838
878.058	21884
878.185	21785
878.313	21751
878.441	21797
878.568	21576
878.696	21827
878.824	21949
878.951	21964
879.079	21880
879.206	22063
879.333	21937
879.461	21915
879.588	21987
879.715	21994
879.842	21975
879.97	21884
880.097	21720
880.224	21766
880.351	21705
880.478	21705
880.605	21675
880.732	21701
880.859	21941
880.986	21842
881.112	21675
881.239	21500
881.366	21458
881.493	21374
881.619	21272
881.746	21321
881.872	21336
881.999	21287
882.125	21203
882.252	21359
882.378	21207
882.505	21275
882.631	21074
882.757	21039
882.883	21184
883.01	20887
883.136	20769
883.262	20743
883.388	20887
883.514	20902
883.64	21039
883.766	20743
883.892	20663
884.018	20830
884.143	20906
884.269	20929
884.395	20587
884.52	20629
884.646	20651
884.772	20541
884.897	20530
885.023	20678
885.148	20769
885.274	20724
885.399	20689
885.524	20651
885.65	20686
885.775	20609
885.9	20526
886.025	20743
886.15	20758
886.275	20651
886.4	20518
886.525	20564
886.65	20473
886.775	20454
886.9	20788
887.025	20735
887.149	20568
887.274	20492
887.399	20427
887.523	20336
887.648	20389
887.773	20229
887.897	20419
888.021	20427
888.146	20275
888.27	20514
888.395	20503
888.519	20427
888.643	20381
888.767	20473
888.891	20317
889.015	20168
889.139	20313
889.263	20191
889.387	20256
889.511	20317
889.635	20328
889.759	20138
889.883	20107
890.006	20157
890.13	20278
890.254	20107
890.377	20046
890.501	19951
890.624	19837
890.748	20069
890.871	19894
890.995	19647
891.118	19693
891.241	19696
891.364	19738
891.488	19925
891.611	19871
891.734	19856
891.857	19814
891.98	19677
892.103	19826
892.226	19727
892.349	19708
892.471	19552
892.594	19765
892.717	19803
892.839	19655
892.962	19628
893.085	19761
893.207	19734
893.33	19578
893.452	19677
893.575	19727
893.697	19647
893.819	19833
893.941	19841
894.064	19921
894.186	19567
894.308	19468
894.43	19742
894.552	19921
894.674	19696
894.796	19616
894.918	19544
895.04	19715
895.161	19765
895.283	19803
895.405	19514
895.526	19624
895.648	19715
895.769	19628
895.891	19700
896.012	19685
896.134	19712
896.255	19700
896.376	19727
896.498	19590
896.619	19818
896.74	19704
896.861	19875
896.982	20058
897.103	20119
897.224	19871
897.345	19898
897.466	19818
897.587	19894
897.708	19997
897.828	20005
897.949	19761
898.07	19807
898.19	19833
898.311	20100
898.431	19864
898.552	19849
898.672	19928
898.792	19917
898.913	19887
899.033	19875
899.153	19753
899.273	19651
899.393	19605
899.513	19704
899.633	19670
899.753	19696
899.873	19643
899.993	19613
900.113	19601
900.232	19533
900.352	19510
900.472	19464
900.591	19358
900.711	19483
900.83	19415
900.95	19525
901.069	19518
901.189	19354
901.308	19103
901.427	19061
901.546	19069
901.665	19038
901.784	19053
901.904	18905
902.023	18859
902.141	18673
902.26	18681
902.379	18730
902.498	18521
902.617	18620
902.735	18627
902.854	18547
902.973	18464
903.091	18384
903.21	18281
903.328	18388
903.446	18076
903.565	18129
903.683	18117
903.801	17965
903.919	17954
904.038	17969
904.156	17851
904.274	17973
904.392	17741
904.51	17813
904.627	17771
904.745	17863
904.863	17855
904.981	17547
905.098	17501
905.216	17467
905.334	17493
905.451	17448
905.569	17379
905.686	17486
905.803	17532
905.921	17349
906.038	17349
906.155	17284
906.272	17231
906.389	17216
906.506	17067
906.623	16995
906.74	17060
906.857	16965
906.974	16904
907.091	17033
907.208	17197
907.324	17010
907.441	16968
907.557	16740
907.674	16790
907.79	16675
907.907	16763
908.023	16679
908.139	16702
908.256	16748
908.372	16713
908.488	16637
908.604	16485
908.72	16459
908.836	16577
908.952	16470
909.068	16519
909.184	16550
909.3	16531
909.415	16462
909.531	16519
909.647	16196
909.762	16181
909.878	16101
909.993	16287
910.108	16048
910.224	16124
910.339	16128
910.454	16017
910.57	15941
910.685	15911
910.8	16150
910.915	16154
911.03	15922
911.145	15812
911.259	15819
911.374	15804
911.489	15751
911.604	15671
911.718	15568
911.833	15557
911.947	15481
912.062	15389
912.176	15439
912.291	15511
912.405	15511
912.519	15728
912.633	15720
912.748	15610
912.862	15603
912.976	15405
913.09	15264
913.204	15420
913.318	15458
913.431	15439
913.545	15450
913.659	15492
913.772	15291
913.886	15329
914	15142
914.113	15157
914.226	15264
914.34	15131
914.453	15077
914.566	15138
914.68	15108
914.793	15005
914.906	14800
915.019	14792
915.132	14716
915.245	14769
915.358	14785
915.47	14758
915.583	14792
915.696	14708
915.809	14819
915.921	14838
916.034	14670
916.146	14663
916.259	14598
916.371	14746
916.483	14750
916.595	14590
916.708	14564
916.82	14663
916.932	14587
917.044	14549
917.156	14507
917.268	14476
917.38	14396
917.491	14427
917.603	14415
917.715	14396
917.826	14522
917.938	14393
918.049	14248
918.161	14434
918.272	14537
918.384	14552
918.495	14404
918.606	14240
918.717	14149
918.828	14145
918.939	14126
919.05	14138
919.161	14119
919.272	13989
919.383	14138
919.494	14221
919.604	14393
919.715	14096
919.826	14115
919.936	14142
920.047	14195
920.157	14073
920.267	14259
920.378	14172
920.488	14157
920.598	14377
920.708	14442
920.818	14347
920.928	14332
921.038	14431
921.148	14396
921.258	14115
921.368	14111
921.477	13902
921.587	13928
921.697	13830
921.806	13898
921.916	13841
922.025	13674
922.134	13559
922.244	13472
922.353	13540
922.462	13396
922.571	13381
922.68	13263
922.789	13274
922.898	13149
923.007	13141
923.116	13217
923.224	13206
923.333	13152
923.442	13053
923.55	13019
923.659	13065
923.767	13126
923.876	12958
923.984	13031
924.092	12954
924.201	13038
924.309	12962
924.417	12951
924.525	12783
924.633	12951
924.741	13795
924.849	12658
924.956	12802
925.064	12764
925.172	12566
925.279	12608
925.387	12627
925.494	12692
925.602	12745
925.709	12711
925.816	12536
925.924	12604
926.031	12741
926.138	12673
926.245	12593
926.352	12532
926.459	12578
926.566	12631
926.673	12597
926.779	12414
926.886	12464
926.993	12270
927.099	12281
927.206	12140
927.312	12178
927.419	12273
927.525	12209
927.631	12281
927.737	12079
927.843	12091
927.95	11916
928.056	12098
928.162	12072
928.267	12148
928.373	12673
928.479	12190
928.585	11874
928.69	11923
928.796	11969
928.901	11992
929.007	11745
929.112	11946
929.218	11775
929.323	11786
929.428	11802
929.533	11950
929.638	11699
929.743	11764
929.848	11722
929.953	11752
930.058	11585
930.163	11463
930.267	11471
930.372	11551
930.477	11452
930.581	11775
930.685	11497
930.79	11322
930.894	11296
930.998	11353
931.103	11509
931.207	11155
931.311	11067
931.415	10942
931.519	10824
931.623	10698
