Data from test_V78500241_1151.txt Node
Date: Fri Mar 25 15:17:52 CST 2022
User: usil
Spectrometer: V785-0024
Trigger mode: 0
Integration Time (sec): 4.000000E-1
Scans to average: 1
Nonlinearity correction enabled: false
Boxcar width: 0
Storing dark spectrum: false
XAxis mode: Wavelengths
Number of Pixels in Spectrum: 1024
>>>>>Begin Spectral Data<<<<<
801.071	28341
801.214	28268
801.356	28029
801.499	27884
801.641	27766
801.783	27770
801.926	28010
802.068	27797
802.211	27755
802.353	27667
802.496	27492
802.638	27561
802.78	27488
802.923	27576
803.065	27382
803.208	27473
803.35	27538
803.492	27671
803.635	27747
803.777	27572
803.919	27857
804.061	28070
804.204	27762
804.346	27599
804.488	27587
804.63	27739
804.773	27660
804.915	27641
805.057	27911
805.199	27831
805.341	27816
805.483	27778
805.626	27918
805.768	27698
805.91	27812
806.052	27911
806.194	27705
806.336	28120
806.478	27930
806.62	27808
806.762	28006
806.904	28105
807.046	28440
807.188	28409
807.33	28318
807.472	28276
807.614	28242
807.756	28230
807.898	28280
808.04	28185
808.182	28120
808.324	28215
808.465	28131
808.607	28413
808.749	28535
808.891	28626
809.033	28641
809.174	28603
809.316	28474
809.458	28409
809.6	28489
809.741	28596
809.883	28725
810.025	28820
810.166	28900
810.308	28824
810.45	28710
810.591	28736
810.733	28603
810.875	28626
811.016	28398
811.158	28569
811.299	28538
811.441	28645
811.582	28767
811.724	28744
811.865	28565
812.007	28531
812.148	28493
812.29	28710
812.431	28812
812.573	29010
812.714	28961
812.855	29284
812.997	29109
813.138	29280
813.279	29261
813.421	29109
813.562	29178
813.703	28854
813.845	28778
813.986	28550
814.127	28401
814.268	28242
814.41	28303
814.551	28211
814.692	28379
814.833	28337
814.974	28284
815.115	28390
815.256	28086
815.397	28074
815.539	28074
815.68	28040
815.821	28051
815.962	28158
816.103	28082
816.244	27945
816.385	27907
816.526	27956
816.666	27625
816.807	27511
816.948	27667
817.089	27591
817.23	27580
817.371	27595
817.512	27538
817.653	27667
817.793	27690
817.934	27481
818.075	27694
818.216	27759
818.356	27477
818.497	27355
818.638	27332
818.778	27424
818.919	27389
819.06	27526
819.2	27469
819.341	27549
819.481	27526
819.622	27816
819.762	27857
819.903	27705
820.043	27842
820.184	27747
820.324	27724
820.465	27690
820.605	27690
820.746	27701
820.886	27553
821.026	27785
821.167	27717
821.307	27739
821.447	27679
821.588	27564
821.728	27424
821.868	27100
822.008	27142
822.149	27150
822.289	27036
822.429	26921
822.569	26750
822.709	26735
822.849	26579
822.99	26731
823.13	26651
823.27	26564
823.41	26434
823.55	26267
823.69	26396
823.83	26408
823.97	26351
824.11	26187
824.25	26244
824.389	26046
824.529	26339
824.669	26153
824.809	26427
824.949	26347
825.089	26199
825.228	26275
825.368	26092
825.508	25966
825.648	26153
825.787	26164
825.927	26351
826.067	26100
826.206	26138
826.346	26256
826.485	26248
826.625	26084
826.765	26290
826.904	26050
827.044	25936
827.183	25868
827.323	25837
827.462	25955
827.601	25841
827.741	25761
827.88	25902
828.02	25719
828.159	26024
828.298	25769
828.437	25791
828.577	25750
828.716	25830
828.855	25799
828.994	25575
829.134	25491
829.273	25537
829.412	25559
829.551	25335
829.69	25491
829.829	25472
829.968	25639
830.107	25578
830.246	25643
830.385	25609
830.524	25464
830.663	25358
830.802	25225
830.941	25217
831.08	25088
831.219	25194
831.357	25327
831.496	25354
831.635	25114
831.774	25057
831.913	25072
832.051	25031
832.19	24894
832.329	24894
832.467	24852
832.606	24817
832.744	24833
832.883	24795
833.022	24821
833.16	24833
833.299	24867
833.437	24856
833.576	24947
833.714	24837
833.852	24985
833.991	24962
834.129	24913
834.267	25084
834.406	24840
834.544	24833
834.682	24844
834.821	24913
834.959	24947
835.097	24795
835.235	24970
835.373	24932
835.511	24837
835.65	24658
835.788	24798
835.926	24544
836.064	24589
836.202	24642
836.34	24768
836.478	24837
836.615	24673
836.753	24825
836.891	24798
837.029	24871
837.167	24753
837.305	24677
837.443	24585
837.58	24570
837.718	24715
837.856	24688
837.993	24422
838.131	24578
838.269	24441
838.406	24513
838.544	24342
838.681	24220
838.819	24247
838.956	24072
839.094	24045
839.231	24076
839.369	24106
839.506	24330
839.643	24308
839.781	23939
839.918	24038
840.055	23935
840.193	24182
840.33	23847
840.467	24049
840.604	24022
840.742	24178
840.879	23828
841.016	24007
841.153	23885
841.29	23958
841.427	23946
841.564	24064
841.701	23950
841.838	23939
841.975	23916
842.112	23832
842.249	23752
842.385	23604
842.522	23901
842.659	23824
842.796	23729
842.933	23722
843.069	23775
843.206	23703
843.343	23874
843.479	23592
843.616	23745
843.752	23497
843.889	23672
844.025	23646
844.162	23524
844.298	23661
844.435	23623
844.571	23372
844.708	23558
844.844	23630
844.98	23649
845.117	23672
845.253	23376
845.389	23303
845.525	23425
845.661	23391
845.798	23246
845.934	23204
846.07	23178
846.206	23242
846.342	23269
846.478	23223
846.614	22869
846.75	22915
846.886	23029
847.022	23022
847.158	22869
847.294	23025
847.429	22999
847.565	22915
847.701	23208
847.837	22626
847.972	22664
848.108	22786
848.244	22763
848.379	22557
848.515	22611
848.65	22584
848.786	22668
848.921	22622
849.057	22645
849.192	22626
849.328	22550
849.463	22535
849.598	22531
849.734	22432
849.869	22390
850.004	22246
850.14	22337
850.275	22291
850.41	22230
850.545	22337
850.68	22379
850.815	22382
850.95	22219
851.085	22447
851.22	22379
851.355	22295
851.49	22291
851.625	22246
851.76	22325
851.895	22135
852.03	22154
852.165	22337
852.299	22405
852.434	22405
852.569	22257
852.703	22265
852.838	22219
852.973	22398
853.107	22478
853.242	22234
853.376	22150
853.511	21983
853.645	22078
853.78	22147
853.914	22124
854.048	22101
854.183	22032
854.317	22124
854.451	22314
854.585	22143
854.72	22150
854.854	22131
854.988	22124
855.122	22173
855.256	22051
855.39	22128
855.524	22074
855.658	22150
855.792	22181
855.926	22192
856.06	22169
856.194	22257
856.327	22120
856.461	21975
856.595	22120
856.729	22093
856.862	22192
856.996	22276
857.13	22116
857.263	22112
857.397	22246
857.53	22105
857.664	22215
857.797	22223
857.931	22192
858.064	22211
858.197	22238
858.331	22147
858.464	21998
858.597	21865
858.731	22097
858.864	22101
858.997	22036
859.13	22154
859.263	22162
859.396	22215
859.529	22147
859.662	22055
859.795	22010
859.928	22128
860.061	22196
860.194	22402
860.327	22188
860.46	22051
860.592	22192
860.725	22246
860.858	22211
860.99	22211
861.123	22029
861.256	22200
861.388	22196
861.521	22984
861.653	21945
861.786	21960
861.918	21998
862.05	22055
862.183	22017
862.315	22017
862.447	22097
862.58	22150
862.712	21842
862.844	21819
862.976	21964
863.108	21888
863.24	22367
863.372	21819
863.504	21819
863.636	21899
863.768	21956
863.9	21850
864.032	21686
864.164	21717
864.296	21930
864.428	21956
864.559	21934
864.691	21865
864.823	21880
864.954	21816
865.086	21842
865.217	21766
865.349	21644
865.48	21724
865.612	21736
865.743	21823
865.875	21709
866.006	21686
866.137	21808
866.269	21781
866.4	21656
866.531	21580
866.662	21644
866.793	21705
866.924	21652
867.055	21705
867.186	21705
867.317	21660
867.448	21542
867.579	21545
867.71	21633
867.841	21679
867.972	21709
868.103	21755
868.233	21724
868.364	21564
868.495	21709
868.625	21857
868.756	22029
868.886	21892
869.017	21895
869.147	22021
869.278	21873
869.408	21880
869.539	21991
869.669	22032
869.799	21960
869.929	22013
870.06	22192
870.19	22166
870.32	22059
870.45	22265
870.58	22329
870.71	22375
870.84	22421
870.97	22276
871.1	22341
871.23	22451
871.36	22493
871.489	22409
871.619	22596
871.749	22489
871.879	22535
872.008	22596
872.138	22565
872.267	22466
872.397	22451
872.526	22306
872.656	22322
872.785	22272
872.915	22592
873.044	22645
873.173	22516
873.303	22470
873.432	22527
873.561	22637
873.69	22504
873.819	22584
873.948	22641
874.077	22592
874.206	22455
874.335	22500
874.464	22725
874.593	22835
874.722	22691
874.851	22656
874.979	22755
875.108	22740
875.237	22641
875.365	22649
875.494	22721
875.623	22835
875.751	22672
875.88	22702
876.008	22968
876.136	22847
876.265	23178
876.393	23311
876.521	23277
876.65	23109
876.778	23128
876.906	22995
877.034	23044
877.162	23178
877.29	22885
877.418	23056
877.546	23075
877.674	23132
877.802	22987
877.93	23071
878.058	23010
878.185	23018
878.313	22991
878.441	22961
878.568	22980
878.696	22968
878.824	23098
878.951	23166
879.079	23246
879.206	23391
879.333	23292
879.461	23094
879.588	23090
879.715	23216
879.842	23280
879.97	23109
880.097	22953
880.224	23025
880.351	23094
880.478	22881
880.605	22801
880.732	22938
880.859	23064
880.986	22923
881.112	22752
881.239	22812
881.366	22679
881.493	22607
881.619	22402
881.746	22497
881.872	22489
881.999	22291
882.125	22367
882.252	22466
882.378	22402
882.505	22500
882.631	22196
882.757	22074
882.883	22253
883.01	22192
883.136	22135
883.262	21949
883.388	22029
883.514	22268
883.64	22196
883.766	22101
883.892	21903
884.018	22078
884.143	22090
884.269	22173
884.395	21979
884.52	21774
884.646	21842
884.772	21713
884.897	21724
885.023	21827
885.148	21835
885.274	21998
885.399	21968
885.524	21770
885.65	21739
885.775	21690
885.9	21736
886.025	21785
886.15	21816
886.275	21736
886.4	21701
886.525	21755
886.65	21583
886.775	21652
886.9	21888
887.025	22093
887.149	21804
887.274	21492
887.399	21553
887.523	21401
887.648	21542
887.773	21370
887.897	21606
888.021	21576
888.146	21568
888.27	21603
888.395	21618
888.519	21610
888.643	21568
888.767	21652
888.891	21580
889.015	21355
889.139	21397
889.263	21252
889.387	21481
889.511	21504
889.635	21435
889.759	21405
889.883	21359
890.006	21378
890.13	21511
890.254	21367
890.377	21211
890.501	21093
890.624	21062
890.748	21116
890.871	20918
890.995	20937
891.118	20785
891.241	20895
891.364	20811
891.488	21043
891.611	20895
891.734	20910
891.857	20883
891.98	20868
892.103	20864
892.226	20838
892.349	20842
892.471	20777
892.594	20861
892.717	20746
892.839	20845
892.962	20804
893.085	20918
893.207	20792
893.33	20708
893.452	20655
893.575	20887
893.697	20781
893.819	20872
893.941	21039
894.064	21020
894.186	20838
894.308	20689
894.43	20781
894.552	20971
894.674	20857
894.796	20720
894.918	20739
895.04	20811
895.161	20773
895.283	20853
895.405	20750
895.526	20842
895.648	20880
895.769	20731
895.891	20762
896.012	20804
896.134	20792
896.255	20716
896.376	20625
896.498	20636
896.619	20807
896.74	20743
896.861	20678
896.982	21077
897.103	21123
897.224	21055
897.345	21089
897.466	20963
897.587	20883
897.708	21058
897.828	20975
897.949	20918
898.07	20739
898.19	20792
898.311	21028
898.431	20906
898.552	20967
898.672	20998
898.792	21009
898.913	20914
899.033	20819
899.153	20849
899.273	20625
899.393	20705
899.513	20887
899.633	20617
899.753	20621
899.873	20686
899.993	20674
900.113	20792
900.232	20537
900.352	20571
900.472	20556
900.591	20404
900.711	20556
900.83	20328
900.95	20492
901.069	20457
901.189	20362
901.308	20244
901.427	19944
901.546	20001
901.665	20161
901.784	20161
901.904	19887
902.023	19788
902.141	19575
902.26	19556
902.379	19643
902.498	19571
902.617	19567
902.735	19575
902.854	19384
902.973	19514
903.091	19320
903.21	19285
903.328	19187
903.446	19057
903.565	18996
903.683	19076
903.801	18909
903.919	19110
904.038	19042
904.156	18711
904.274	18825
904.392	18646
904.51	18696
904.627	18798
904.745	18783
904.863	18684
904.981	18585
905.098	18509
905.216	18525
905.334	18471
905.451	18479
905.569	18410
905.686	18433
905.803	18407
905.921	18155
906.038	18380
906.155	18194
906.272	18079
906.389	18011
906.506	18053
906.623	17939
906.74	17996
906.857	17916
906.974	17882
907.091	18015
907.208	18030
907.324	17996
907.441	17847
907.557	17783
907.674	17672
907.79	17615
907.907	17646
908.023	17821
908.139	17676
908.256	17589
908.372	17581
908.488	17558
908.604	17383
908.72	17391
908.836	17417
908.952	17429
909.068	17493
909.184	17421
909.3	17455
909.415	17448
909.531	17387
909.647	17174
909.762	17003
909.878	16991
909.993	17105
910.108	17064
910.224	16980
910.339	16976
910.454	16938
910.57	16934
910.685	16858
910.8	17124
910.915	17037
911.03	16968
911.145	16675
911.259	16725
911.374	16736
911.489	16710
911.604	16599
911.718	16459
911.833	16436
911.947	16185
912.062	16246
912.176	16394
912.291	16394
912.405	16398
912.519	16516
912.633	16603
912.748	16523
912.862	16272
912.976	16230
913.09	16173
913.204	16143
913.318	16261
913.431	16246
913.545	16333
913.659	16295
913.772	16071
913.886	16055
914	16124
914.113	16192
914.226	16135
914.34	16032
914.453	15899
914.566	16150
914.68	15930
914.793	15831
914.906	15660
915.019	15599
915.132	15625
915.245	15724
915.358	15663
915.47	15633
915.583	15564
915.696	15717
915.809	15739
915.921	15819
916.034	15549
916.146	15458
916.259	15504
916.371	15610
916.483	15504
916.595	15458
916.708	15397
916.82	15466
916.932	15393
917.044	15321
917.156	15355
917.268	15306
917.38	15173
917.491	15355
917.603	15287
917.715	15237
917.826	15272
917.938	15199
918.049	15165
918.161	15131
918.272	15214
918.384	15298
918.495	15165
918.606	15036
918.717	15047
918.828	14963
918.939	15028
919.05	15005
919.161	14948
919.272	14800
919.383	14830
919.494	15070
919.604	15218
919.715	15032
919.826	14864
919.936	14891
920.047	15005
920.157	14921
920.267	15062
920.378	14952
920.488	14963
920.598	15138
920.708	15268
920.818	15077
920.928	14986
921.038	15176
921.148	15154
921.258	14906
921.368	14857
921.477	14727
921.587	14651
921.697	14526
921.806	14594
921.916	14507
922.025	14476
922.134	14240
922.244	14244
922.353	14298
922.462	14115
922.571	14225
922.68	13986
922.789	14077
922.898	13978
923.007	13864
923.116	13925
923.224	13970
923.333	13963
923.442	13807
923.55	13791
923.659	13776
923.767	13788
923.876	13700
923.984	13746
924.092	13696
924.201	13746
924.309	13651
924.417	13700
924.525	13666
924.633	13571
924.741	14511
924.849	13453
924.956	13590
925.064	13358
925.172	13263
925.279	13308
925.387	13369
925.494	13392
925.602	13438
925.709	13460
925.816	13308
925.924	13263
926.031	13384
926.138	13362
926.245	13324
926.352	13194
926.459	13270
926.566	13339
926.673	13187
926.779	13164
926.886	13110
926.993	12920
927.099	12878
927.206	12848
927.312	12787
927.419	12886
927.525	12867
927.631	12928
927.737	12821
927.843	12730
927.95	12662
928.056	12715
928.162	12726
928.267	12760
928.373	13335
928.479	12783
928.585	12570
928.69	12654
928.796	12684
928.901	12570
929.007	12376
929.112	12559
929.218	12498
929.323	12502
929.428	12429
929.533	12551
929.638	12311
929.743	12353
929.848	12391
929.953	12330
930.058	12311
930.163	12117
930.267	12095
930.372	12296
930.477	12007
930.581	12323
930.685	12045
930.79	12045
930.894	12060
930.998	11973
931.103	12049
931.207	11646
931.311	11634
931.415	11505
931.519	11448
931.623	11292
