Data from test_V78500241_1505.txt Node
Date: Fri Mar 25 15:20:20 CST 2022
User: usil
Spectrometer: V785-0024
Trigger mode: 0
Integration Time (sec): 4.000000E-1
Scans to average: 1
Nonlinearity correction enabled: false
Boxcar width: 0
Storing dark spectrum: false
XAxis mode: Wavelengths
Number of Pixels in Spectrum: 1024
>>>>>Begin Spectral Data<<<<<
801.071	28150
801.214	28010
801.356	27831
801.499	27743
801.641	27652
801.783	27656
801.926	27686
802.068	27538
802.211	27523
802.353	27500
802.496	27389
802.638	27351
802.78	27302
802.923	27272
803.065	27203
803.208	27332
803.35	27306
803.492	27477
803.635	27492
803.777	27431
803.919	27519
804.061	27781
804.204	27591
804.346	27507
804.488	27447
804.63	27545
804.773	27321
804.915	27515
805.057	27865
805.199	27431
805.341	27523
805.483	27694
805.626	27564
805.768	27561
805.91	27599
806.052	27523
806.194	27473
806.336	27800
806.478	27644
806.62	27644
806.762	27800
806.904	27903
807.046	28265
807.188	28040
807.33	28211
807.472	28215
807.614	28078
807.756	28025
807.898	27968
808.04	27899
808.182	27846
808.324	28093
808.465	27865
808.607	28169
808.749	28295
808.891	28459
809.033	28424
809.174	28337
809.316	28139
809.458	28306
809.6	28196
809.741	28504
809.883	28443
810.025	28497
810.166	28504
810.308	28706
810.45	28466
810.591	28424
810.733	28394
810.875	28265
811.016	28257
811.158	28287
811.299	28284
811.441	28531
811.582	28500
811.724	28265
811.865	28310
812.007	28447
812.148	28280
812.29	28367
812.431	28546
812.573	28546
812.714	28896
812.855	28854
812.997	29022
813.138	29162
813.279	29041
813.421	28843
813.562	28778
813.703	28744
813.845	28653
813.986	28238
814.127	28177
814.268	28002
814.41	28055
814.551	27983
814.692	27987
814.833	28063
814.974	27991
815.115	27956
815.256	27797
815.397	27914
815.539	27873
815.68	27759
815.821	27660
815.962	27793
816.103	27797
816.244	27789
816.385	27637
816.526	27466
816.666	27534
816.807	27260
816.948	27439
817.089	27431
817.23	27382
817.371	27211
817.512	27226
817.653	27336
817.793	27275
817.934	27329
818.075	27367
818.216	27214
818.356	27188
818.497	27077
818.638	27032
818.778	26986
818.919	27074
819.06	27085
819.2	27233
819.341	27184
819.481	27306
819.622	27443
819.762	27629
819.903	27663
820.043	27378
820.184	27336
820.324	27291
820.465	27412
820.605	27306
820.746	27344
820.886	27241
821.026	27306
821.167	27363
821.307	27545
821.447	27367
821.588	27199
821.728	27055
821.868	26971
822.008	26758
822.149	26720
822.289	26689
822.429	26560
822.569	26332
822.709	26465
822.849	26240
822.99	26176
823.13	26275
823.27	26149
823.41	26206
823.55	26031
823.69	25970
823.83	26122
823.97	26172
824.11	25917
824.25	26020
824.389	25826
824.529	25978
824.669	25879
824.809	26122
824.949	25947
825.089	25925
825.228	25932
825.368	25818
825.508	25791
825.648	25750
825.787	25837
825.927	25772
826.067	25753
826.206	25986
826.346	25803
826.485	25765
826.625	25757
826.765	25814
826.904	25841
827.044	25635
827.183	25510
827.323	25499
827.462	25586
827.601	25632
827.741	25567
827.88	25586
828.02	25251
828.159	25422
828.298	25586
828.437	25453
828.577	25521
828.716	25639
828.855	25422
828.994	25244
829.134	25122
829.273	25179
829.412	25198
829.551	25202
829.69	25190
829.829	25266
829.968	25331
830.107	25278
830.246	25206
830.385	25160
830.524	25171
830.663	25027
830.802	24989
830.941	24810
831.08	24840
831.219	24859
831.357	24882
831.496	24958
831.635	24928
831.774	24665
831.913	24776
832.051	24646
832.19	24559
832.329	24631
832.467	24464
832.606	24460
832.744	24445
832.883	24448
833.022	24384
833.16	24346
833.299	24437
833.437	24475
833.576	24513
833.714	24536
833.852	24642
833.991	24559
834.129	24509
834.267	24608
834.406	24498
834.544	24532
834.682	24471
834.821	24452
834.959	24563
835.097	24407
835.235	24517
835.373	24612
835.511	24464
835.65	24418
835.788	24414
835.926	24091
836.064	24174
836.202	24136
836.34	24361
836.478	24498
836.615	24300
836.753	24296
836.891	24388
837.029	24357
837.167	24327
837.305	24190
837.443	24277
837.58	24129
837.718	24144
837.856	24220
837.993	24079
838.131	24239
838.269	24087
838.406	24064
838.544	24034
838.681	23828
838.819	23760
838.956	23638
839.094	23589
839.231	23604
839.369	23760
839.506	24064
839.643	23836
839.781	23596
839.918	23596
840.055	23627
840.193	23604
840.33	23676
840.467	23695
840.604	23661
840.742	23707
840.879	23391
841.016	23474
841.153	23493
841.29	23577
841.427	23562
841.564	23623
841.701	23535
841.838	23516
841.975	23410
842.112	23429
842.249	23429
842.385	23235
842.522	23490
842.659	23364
842.796	23299
842.933	23318
843.069	23326
843.206	23174
843.343	23368
843.479	23235
843.616	23296
843.752	23140
843.889	23204
844.025	23246
844.162	22938
844.298	23356
844.435	22987
844.571	23102
844.708	23121
844.844	23288
844.98	23239
845.117	23315
845.253	22923
845.389	23006
845.525	22911
845.661	22946
845.798	22862
845.934	22896
846.07	22869
846.206	22713
846.342	22892
846.478	22820
846.614	22580
846.75	22550
846.886	22516
847.022	22622
847.158	22592
847.294	22584
847.429	22569
847.565	22573
847.701	22634
847.837	22230
847.972	22204
848.108	22402
848.244	22421
848.379	22230
848.515	22116
848.65	22013
848.786	22215
848.921	22093
849.057	22177
849.192	22200
849.328	22150
849.463	22204
849.598	22067
849.734	22131
849.869	22017
850.004	22044
850.14	21880
850.275	21964
850.41	21918
850.545	21926
850.68	21823
850.815	21968
850.95	21880
851.085	21998
851.22	21903
851.355	21964
851.49	21926
851.625	21949
851.76	21911
851.895	21785
852.03	21835
852.165	21789
852.299	21850
852.434	21953
852.569	21918
852.703	21895
852.838	22078
852.973	22025
853.107	22143
853.242	21964
853.376	21682
853.511	21656
853.645	21625
853.78	21770
853.914	21679
854.048	21705
854.183	21660
854.317	21793
854.451	21926
854.585	21694
854.72	21648
854.854	21797
854.988	21568
855.122	21682
855.256	21572
855.39	21728
855.524	21850
855.658	21671
855.792	21884
855.926	21717
856.06	21709
856.194	21804
856.327	21530
856.461	21709
856.595	21526
856.729	21720
856.862	21854
856.996	21709
857.13	21682
857.263	21766
857.397	21789
857.53	21660
857.664	21682
857.797	21755
857.931	21816
858.064	21751
858.197	21846
858.331	21671
858.464	21732
858.597	21667
858.731	21690
858.864	21629
858.997	21698
859.13	21743
859.263	21618
859.396	21838
859.529	21736
859.662	21644
859.795	21599
859.928	21751
860.061	21854
860.194	21800
860.327	21717
860.46	21698
860.592	21804
860.725	21911
860.858	21838
860.99	21774
861.123	21606
861.256	21633
861.388	21694
861.521	22204
861.653	21603
861.786	21435
861.918	21667
862.05	21580
862.183	21591
862.315	21553
862.447	21709
862.58	21591
862.712	21485
862.844	21348
862.976	21450
863.108	21359
863.24	21895
863.372	21325
863.504	21386
863.636	21268
863.768	21401
863.9	21370
864.032	21367
864.164	21218
864.296	21443
864.428	21458
864.559	21428
864.691	21412
864.823	21439
864.954	21367
865.086	21336
865.217	21382
865.349	21222
865.48	21348
865.612	21154
865.743	21363
865.875	21447
866.006	21306
866.137	21283
866.269	21199
866.4	21313
866.531	21203
866.662	21150
866.793	21310
866.924	21275
867.055	21294
867.186	21268
867.317	21184
867.448	21093
867.579	21180
867.71	21108
867.841	21043
867.972	21062
868.103	21264
868.233	21249
868.364	21154
868.495	21340
868.625	21530
868.756	21492
868.886	21435
869.017	21462
869.147	21458
869.278	21618
869.408	21496
869.539	21439
869.669	21534
869.799	21454
869.929	21580
870.06	21610
870.19	21797
870.32	21918
870.45	21861
870.58	21892
870.71	21915
870.84	21991
870.97	21876
871.1	21926
871.23	21953
871.36	22048
871.489	21876
871.619	21857
871.749	22006
871.879	22226
872.008	22128
872.138	22124
872.267	22105
872.397	21922
872.526	21808
872.656	21873
872.785	21926
872.915	22055
873.044	22162
873.173	22139
873.303	22128
873.432	22090
873.561	22230
873.69	22105
873.819	22006
873.948	22150
874.077	22177
874.206	22097
874.335	22078
874.464	22139
874.593	22329
874.722	22219
874.851	22223
874.979	22287
875.108	22280
875.237	22253
875.365	22173
875.494	22272
875.623	22405
875.751	22299
875.88	22314
876.008	22367
876.136	22428
876.265	22675
876.393	22729
876.521	22653
876.65	22782
876.778	22691
876.906	22816
877.034	22523
877.162	22664
877.29	22630
877.418	22546
877.546	22778
877.674	22713
877.802	22599
877.93	22618
878.058	22634
878.185	22382
878.313	22584
878.441	22531
878.568	22481
878.696	22557
878.824	22702
878.951	22664
879.079	22793
879.206	23014
879.333	22683
879.461	22493
879.588	22755
879.715	22672
879.842	22930
879.97	22774
880.097	22478
880.224	22508
880.351	22561
880.478	22459
880.605	22557
880.732	22428
880.859	22653
880.986	22557
881.112	22462
881.239	22329
881.366	22230
881.493	22147
881.619	22086
881.746	21987
881.872	22059
881.999	22010
882.125	21835
882.252	21968
882.378	22025
882.505	22204
882.631	21816
882.757	21907
882.883	21816
883.01	21739
883.136	21660
883.262	21641
883.388	21557
883.514	21770
883.64	21747
883.766	21622
883.892	21549
884.018	21504
884.143	21709
884.269	21698
884.395	21485
884.52	21393
884.646	21348
884.772	21294
884.897	21325
885.023	21412
885.148	21447
885.274	21526
885.399	21523
885.524	21233
885.65	21268
885.775	21329
885.9	21184
886.025	21450
886.15	21469
886.275	21386
886.4	21268
886.525	21340
886.65	21325
886.775	21214
886.9	21477
887.025	21576
887.149	21355
887.274	21340
887.399	21058
887.523	21085
887.648	21116
887.773	21089
887.897	21294
888.021	21237
888.146	21058
888.27	21150
888.395	21203
888.519	21165
888.643	21085
888.767	21104
888.891	21089
889.015	20937
889.139	20971
889.263	20952
889.387	21085
889.511	21043
889.635	21157
889.759	20948
889.883	20937
890.006	20929
890.13	21024
890.254	20868
890.377	20914
890.501	20518
890.624	20701
890.748	20811
890.871	20530
890.995	20438
891.118	20400
891.241	20598
891.364	20503
891.488	20606
891.611	20427
891.734	20457
891.857	20507
891.98	20549
892.103	20526
892.226	20434
892.349	20423
892.471	20339
892.594	20301
892.717	20370
892.839	20317
892.962	20396
893.085	20305
893.207	20366
893.33	20370
893.452	20336
893.575	20408
893.697	20343
893.819	20457
893.941	20514
894.064	20488
894.186	20336
894.308	20278
894.43	20488
894.552	20480
894.674	20495
894.796	20286
894.918	20442
895.04	20351
895.161	20590
895.283	20465
895.405	20282
895.526	20400
895.648	20381
895.769	20370
895.891	20366
896.012	20454
896.134	20404
896.255	20362
896.376	20229
896.498	20339
896.619	20362
896.74	20332
896.861	20400
896.982	20777
897.103	20701
897.224	20613
897.345	20640
897.466	20533
897.587	20621
897.708	20602
897.828	20587
897.949	20530
898.07	20374
898.19	20495
898.311	20651
898.431	20446
898.552	20575
898.672	20678
898.792	20648
898.913	20659
899.033	20541
899.153	20355
899.273	20366
899.393	20305
899.513	20332
899.633	20199
899.753	20408
899.873	20298
899.993	20396
900.113	20168
900.232	20309
900.352	20145
900.472	20214
900.591	20043
900.711	20115
900.83	20077
900.95	20180
901.069	20233
901.189	19997
901.308	19868
901.427	19662
901.546	19712
901.665	19696
901.784	19731
901.904	19537
902.023	19510
902.141	19263
902.26	19236
902.379	19270
902.498	19217
902.617	19031
902.735	19129
902.854	19179
902.973	19046
903.091	18776
903.21	18776
903.328	18745
903.446	18730
903.565	18601
903.683	18749
903.801	18589
903.919	18612
904.038	18601
904.156	18452
904.274	18551
904.392	18475
904.51	18311
904.627	18380
904.745	18608
904.863	18479
904.981	18243
905.098	18117
905.216	18182
905.334	18205
905.451	18087
905.569	18057
905.686	18148
905.803	18083
905.921	17904
906.038	17950
906.155	17897
906.272	17847
906.389	17748
906.506	17661
906.623	17619
906.74	17585
906.857	17619
906.974	17600
907.091	17695
907.208	17764
907.324	17653
907.441	17463
907.557	17410
907.674	17353
907.79	17288
907.907	17265
908.023	17410
908.139	17383
908.256	17250
908.372	17353
908.488	17292
908.604	17056
908.72	17025
908.836	17075
908.952	17052
909.068	17124
909.184	17197
909.3	16965
909.415	17102
909.531	16995
909.647	16820
909.762	16797
909.878	16706
909.993	16809
910.108	16713
910.224	16694
910.339	16744
910.454	16675
910.57	16649
910.685	16398
910.8	16858
910.915	16694
911.03	16622
911.145	16440
911.259	16322
911.374	16333
911.489	16295
911.604	16325
911.718	16017
911.833	16158
911.947	16002
912.062	15899
912.176	16071
912.291	16112
912.405	16059
912.519	16249
912.633	16280
912.748	16200
912.862	16154
912.976	15895
913.09	15827
913.204	15804
913.318	15907
913.431	15975
913.545	15979
913.659	15941
913.772	15850
913.886	15797
914	15564
914.113	15724
914.226	15823
914.34	15827
914.453	15591
914.566	15709
914.68	15705
914.793	15553
914.906	15462
915.019	15359
915.132	15256
915.245	15287
915.358	15355
915.47	15401
915.583	15291
915.696	15310
915.809	15374
915.921	15397
916.034	15306
916.146	15283
916.259	15241
916.371	15291
916.483	15302
916.595	15146
916.708	15131
916.82	15142
916.932	15104
917.044	15009
917.156	14956
917.268	14971
917.38	14982
917.491	14952
917.603	14971
917.715	14975
917.826	15051
917.938	14914
918.049	14807
918.161	14819
918.272	15032
918.384	15089
918.495	14937
918.606	14819
918.717	14575
918.828	14819
918.939	14682
919.05	14602
919.161	14674
919.272	14537
919.383	14575
919.494	14651
919.604	14811
919.715	14727
919.826	14625
919.936	14731
920.047	14682
920.157	14724
920.267	14979
920.378	14655
920.488	14606
920.598	14811
920.708	14944
920.818	14815
920.928	14785
921.038	15066
921.148	14910
921.258	14670
921.368	14533
921.477	14396
921.587	14336
921.697	14278
921.806	14320
921.916	14286
922.025	14043
922.134	13940
922.244	13986
922.353	14100
922.462	13967
922.571	13856
922.68	13753
922.789	13750
922.898	13776
923.007	13624
923.116	13734
923.224	13750
923.333	13613
923.442	13422
923.55	13540
923.659	13438
923.767	13616
923.876	13556
923.984	13556
924.092	13518
924.201	13358
924.309	13499
924.417	13438
924.525	13373
924.633	13369
924.741	14130
924.849	13168
924.956	13304
925.064	13190
925.172	13110
925.279	13019
925.387	13168
925.494	13141
925.602	13289
925.709	13183
925.816	12985
925.924	12947
926.031	13091
926.138	12939
926.245	13084
926.352	12928
926.459	13034
926.566	13088
926.673	12973
926.779	12833
926.886	12848
926.993	12715
927.099	12623
927.206	12566
927.312	12620
927.419	12684
927.525	12635
927.631	12692
927.737	12559
927.843	12422
927.95	12338
928.056	12414
928.162	12418
928.267	12528
928.373	13126
928.479	12604
928.585	12327
928.69	12391
928.796	12494
928.901	12388
929.007	12243
929.112	12308
929.218	12243
929.323	12159
929.428	12159
929.533	12361
929.638	12121
929.743	12117
929.848	12224
929.953	12049
930.058	12030
930.163	11851
930.267	11859
930.372	12049
930.477	11843
930.581	11961
930.685	12049
930.79	11733
930.894	11748
930.998	11847
931.103	11904
931.207	11452
931.311	11421
931.415	11258
931.519	11178
931.623	11079
