Data from test_V78500241_2265.txt Node
Date: Fri Mar 25 15:25:37 CST 2022
User: usil
Spectrometer: V785-0024
Trigger mode: 0
Integration Time (sec): 4.000000E-1
Scans to average: 1
Nonlinearity correction enabled: false
Boxcar width: 0
Storing dark spectrum: false
XAxis mode: Wavelengths
Number of Pixels in Spectrum: 1024
>>>>>Begin Spectral Data<<<<<
801.071	27641
801.214	27515
801.356	27485
801.499	27203
801.641	27226
801.783	27138
801.926	27245
802.068	27093
802.211	27123
802.353	26891
802.496	26739
802.638	26765
802.78	26777
802.923	26659
803.065	26613
803.208	26617
803.35	26682
803.492	26750
803.635	27093
803.777	26788
803.919	26883
804.061	27226
804.204	26990
804.346	26819
804.488	26785
804.63	26982
804.773	26944
804.915	26921
805.057	27001
805.199	26830
805.341	27055
805.483	27165
805.626	27074
805.768	26925
805.91	27047
806.052	27226
806.194	26963
806.336	27260
806.478	27024
806.62	27047
806.762	27154
806.904	27287
807.046	27466
807.188	27329
807.33	27538
807.472	27519
807.614	27447
807.756	27317
807.898	27374
808.04	27302
808.182	27348
808.324	27321
808.465	27306
808.607	27481
808.749	27656
808.891	27770
809.033	27823
809.174	27690
809.316	27618
809.458	27652
809.6	27648
809.741	27873
809.883	27682
810.025	27876
810.166	28025
810.308	27857
810.45	27956
810.591	27781
810.733	27576
810.875	27663
811.016	27450
811.158	27599
811.299	27713
811.441	27857
811.582	27720
811.724	27595
811.865	27587
812.007	27675
812.148	27583
812.29	27553
812.431	27816
812.573	27861
812.714	28051
812.855	28059
812.997	28207
813.138	28322
813.279	28363
813.421	28112
813.562	28177
813.703	28051
813.845	27892
813.986	27568
814.127	27466
814.268	27355
814.41	27226
814.551	27344
814.692	27447
814.833	27252
814.974	27260
815.115	27249
815.256	27249
815.397	27283
815.539	27294
815.68	27165
815.821	27135
815.962	27222
816.103	27043
816.244	27013
816.385	26925
816.526	26834
816.666	26701
816.807	26594
816.948	26640
817.089	26857
817.23	26670
817.371	26625
817.512	26560
817.653	26670
817.793	26305
817.934	26511
818.075	26625
818.216	26625
818.356	26533
818.497	26320
818.638	26259
818.778	26522
818.919	26313
819.06	26469
819.2	26476
819.341	26629
819.481	26457
819.622	26648
819.762	27009
819.903	26781
820.043	26758
820.184	26644
820.324	26705
820.465	26792
820.605	26716
820.746	26754
820.886	26568
821.026	26754
821.167	26609
821.307	26632
821.447	26541
821.588	26522
821.728	26423
821.868	26115
822.008	26084
822.149	26077
822.289	26050
822.429	25791
822.569	25670
822.709	25776
822.849	25567
822.99	25597
823.13	25601
823.27	25457
823.41	25285
823.55	25148
823.69	25377
823.83	25396
823.97	25346
824.11	25213
824.25	25175
824.389	25148
824.529	25202
824.669	25141
824.809	25236
824.949	25247
825.089	25255
825.228	25228
825.368	25084
825.508	25042
825.648	25065
825.787	25118
825.927	25103
826.067	25019
826.206	25012
826.346	24977
826.485	25057
826.625	25015
826.765	24981
826.904	25057
827.044	24760
827.183	24886
827.323	24639
827.462	24848
827.601	24829
827.741	24798
827.88	24817
828.02	24635
828.159	24631
828.298	24795
828.437	24833
828.577	24673
828.716	24882
828.855	24665
828.994	24346
829.134	24505
829.273	24410
829.412	24445
829.551	24285
829.69	24429
829.829	24399
829.968	24555
830.107	24612
830.246	24475
830.385	24357
830.524	24437
830.663	24330
830.802	24270
830.941	24079
831.08	24133
831.219	24072
831.357	24087
831.496	24197
831.635	24167
831.774	23863
831.913	24117
832.051	23931
832.19	23863
832.329	23901
832.467	23790
832.606	23748
832.744	23726
832.883	23699
833.022	23649
833.16	23726
833.299	23821
833.437	23878
833.576	23942
833.714	23908
833.852	23958
833.991	23828
834.129	24011
834.267	23870
834.406	23874
834.544	23813
834.682	23813
834.821	23828
834.959	23977
835.097	23836
835.235	23977
835.373	23786
835.511	23828
835.65	23745
835.788	23649
835.926	23528
836.064	23429
836.202	23524
836.34	23741
836.478	23699
836.615	23615
836.753	23699
836.891	23608
837.029	23714
837.167	23566
837.305	23528
837.443	23516
837.58	23452
837.718	23623
837.856	23589
837.993	23501
838.131	23455
838.269	23303
838.406	23421
838.544	23326
838.681	23246
838.819	23117
838.956	22873
839.094	22946
839.231	23006
839.369	23098
839.506	23398
839.643	23288
839.781	23060
839.918	22831
840.055	22942
840.193	23006
840.33	22869
840.467	22858
840.604	23022
840.742	23098
840.879	22740
841.016	22759
841.153	22641
841.29	23003
841.427	22839
841.564	22953
841.701	22866
841.838	22839
841.975	22774
842.112	22904
842.249	22759
842.385	22554
842.522	22771
842.659	22554
842.796	22554
842.933	22561
843.069	22546
843.206	22481
843.343	22668
843.479	22763
843.616	22683
843.752	22500
843.889	22424
844.025	22451
844.162	22371
844.298	22523
844.435	22523
844.571	22443
844.708	22428
844.844	22443
844.98	22447
845.117	22462
845.253	22249
845.389	22322
845.525	22436
845.661	22192
845.798	22055
845.934	22200
846.07	22188
846.206	22090
846.342	22284
846.478	22101
846.614	22006
846.75	21857
846.886	21831
847.022	21926
847.158	21915
847.294	21899
847.429	21968
847.565	21903
847.701	22139
847.837	21606
847.972	21625
848.108	21808
848.244	21629
848.379	21504
848.515	21481
848.65	21367
848.786	21523
848.921	21424
849.057	21587
849.192	21572
849.328	21587
849.463	21348
849.598	21428
849.734	21386
849.869	21272
850.004	21245
850.14	21211
850.275	21378
850.41	21294
850.545	21287
850.68	21207
850.815	21218
850.95	21241
851.085	21519
851.22	21264
851.355	21351
851.49	21275
851.625	21173
851.76	21302
851.895	21077
852.03	21096
852.165	21291
852.299	21123
852.434	21275
852.569	21268
852.703	21230
852.838	21321
852.973	21405
853.107	21336
853.242	21146
853.376	21005
853.511	20994
853.645	20910
853.78	21203
853.914	21043
854.048	20963
854.183	21104
854.317	21047
854.451	21256
854.585	21116
854.72	21207
854.854	21135
854.988	21028
855.122	21017
855.256	20804
855.39	21055
855.524	21131
855.658	21112
855.792	21013
855.926	21024
856.06	21135
856.194	21218
856.327	21001
856.461	20982
856.595	20990
856.729	20998
856.862	21051
856.996	21074
857.13	21138
857.263	21203
857.397	21119
857.53	21062
857.664	21116
857.797	21096
857.931	21138
858.064	21112
858.197	21230
858.331	21104
858.464	21047
858.597	20891
858.731	21032
858.864	20910
858.997	20948
859.13	21036
859.263	21150
859.396	21081
859.529	20990
859.662	21051
859.795	21028
859.928	21085
860.061	21161
860.194	21283
860.327	21173
860.46	21028
860.592	21150
860.725	21135
860.858	21218
860.99	21074
861.123	20929
861.256	20902
861.388	21009
861.521	21732
861.653	20807
861.786	20914
861.918	20876
862.05	20914
862.183	20971
862.315	21005
862.447	20975
862.58	21036
862.712	20849
862.844	20731
862.976	20746
863.108	20823
863.24	21169
863.372	20735
863.504	20758
863.636	20716
863.768	20807
863.9	20815
864.032	20762
864.164	20735
864.296	20792
864.428	20823
864.559	20735
864.691	20724
864.823	20910
864.954	20727
865.086	20758
865.217	20746
865.349	20625
865.48	20667
865.612	20632
865.743	20796
865.875	20708
866.006	20613
866.137	20655
866.269	20689
866.4	20609
866.531	20636
866.662	20511
866.793	20705
866.924	20568
867.055	20712
867.186	20594
867.317	20556
867.448	20587
867.579	20602
867.71	20655
867.841	20446
867.972	20655
868.103	20450
868.233	20636
868.364	20686
868.495	20804
868.625	20842
868.756	20887
868.886	20781
869.017	20819
869.147	20971
869.278	20975
869.408	20819
869.539	20762
869.669	20944
869.799	20895
869.929	21017
870.06	21024
870.19	21119
870.32	21169
870.45	21188
870.58	21154
870.71	21237
870.84	21302
870.97	21169
871.1	21249
871.23	21454
871.36	21416
871.489	21313
871.619	21344
871.749	21466
871.879	21466
872.008	21572
872.138	21500
872.267	21310
872.397	21351
872.526	21157
872.656	21344
872.785	21176
872.915	21428
873.044	21447
873.173	21363
873.303	21530
873.432	21477
873.561	21595
873.69	21473
873.819	21564
873.948	21568
874.077	21500
874.206	21393
874.335	21428
874.464	21583
874.593	21713
874.722	21599
874.851	21614
874.979	21656
875.108	21827
875.237	21553
875.365	21633
875.494	21587
875.623	21743
875.751	21728
875.88	21709
876.008	21781
876.136	21732
876.265	22059
876.393	22276
876.521	22158
876.65	22120
876.778	22188
876.906	22070
877.034	22006
877.162	22109
877.29	21915
877.418	22044
877.546	22143
877.674	22074
877.802	22059
877.93	22010
878.058	21880
878.185	21888
878.313	21956
878.441	21956
878.568	21675
878.696	21903
878.824	22082
878.951	22230
879.079	22181
879.206	22253
879.333	22181
879.461	22029
879.588	22173
879.715	22272
879.842	22291
879.97	22139
880.097	21884
880.224	21846
880.351	21846
880.478	21762
880.605	21800
880.732	21926
880.859	21979
880.986	21869
881.112	21800
881.239	21705
881.366	21580
881.493	21454
881.619	21477
881.746	21481
881.872	21466
881.999	21386
882.125	21249
882.252	21416
882.378	21466
882.505	21488
882.631	21302
882.757	21218
882.883	21089
883.01	21249
883.136	21180
883.262	20986
883.388	20967
883.514	21096
883.64	21184
883.766	21043
883.892	20952
884.018	21051
884.143	21039
884.269	21165
884.395	20853
884.52	20872
884.646	20891
884.772	20708
884.897	20651
885.023	20758
885.148	20952
885.274	20910
885.399	20849
885.524	20792
885.65	20731
885.775	20720
885.9	20750
886.025	20952
886.15	20804
886.275	20785
886.4	20708
886.525	20735
886.65	20834
886.775	20838
886.9	20868
887.025	20986
887.149	20682
887.274	20518
887.399	20480
887.523	20560
887.648	20545
887.773	20461
887.897	20667
888.021	20663
888.146	20526
888.27	20663
888.395	20655
888.519	20568
888.643	20575
888.767	20644
888.891	20412
889.015	20400
889.139	20419
889.263	20301
889.387	20332
889.511	20552
889.635	20450
889.759	20313
889.883	20412
890.006	20419
890.13	20412
890.254	20218
890.377	20305
890.501	20046
890.624	20065
890.748	20168
890.871	20115
890.995	19913
891.118	19811
891.241	19928
891.364	20035
891.488	20035
891.611	19913
891.734	19883
891.857	19925
891.98	19921
892.103	19940
892.226	19921
892.349	19902
892.471	19765
892.594	19879
892.717	19852
892.839	19887
892.962	19795
893.085	19909
893.207	19822
893.33	19712
893.452	19719
893.575	19780
893.697	19890
893.819	20111
893.941	20031
894.064	19955
894.186	19875
894.308	19845
894.43	19894
894.552	19955
894.674	19879
894.796	19791
894.918	19685
895.04	19651
895.161	19822
895.283	19909
895.405	19685
895.526	19822
895.648	19883
895.769	19879
895.891	19868
896.012	19887
896.134	19898
896.255	19738
896.376	19765
896.498	19856
896.619	19799
896.74	19833
896.861	19913
896.982	20062
897.103	20438
897.224	20191
897.345	20065
897.466	19909
897.587	20027
897.708	20077
897.828	20157
897.949	19974
898.07	19860
898.19	20020
898.311	20134
898.431	20115
898.552	20100
898.672	20176
898.792	20199
898.913	20126
899.033	19967
899.153	20039
899.273	19753
899.393	19883
899.513	19879
899.633	19852
899.753	19761
899.873	19871
899.993	19845
900.113	19784
900.232	19860
900.352	19845
900.472	19609
900.591	19693
900.711	19613
900.83	19632
900.95	19628
901.069	19567
901.189	19472
901.308	19194
901.427	19076
901.546	19202
901.665	19202
901.784	19179
901.904	19019
902.023	18913
902.141	18757
902.26	18711
902.379	18829
902.498	18715
902.617	18696
902.735	18741
902.854	18639
902.973	18578
903.091	18426
903.21	18418
903.328	18353
903.446	18338
903.565	18190
903.683	18197
903.801	18125
903.919	18163
904.038	17980
904.156	17783
904.274	18060
904.392	17980
904.51	17912
904.627	17920
904.745	17965
904.863	18011
904.981	17695
905.098	17615
905.216	17695
905.334	17615
905.451	17657
905.569	17672
905.686	17703
905.803	17649
905.921	17474
906.038	17520
906.155	17387
906.272	17345
906.389	17284
906.506	17208
906.623	17181
906.74	17128
906.857	17132
906.974	17090
907.091	17151
907.208	17265
907.324	17174
907.441	16991
907.557	16946
907.674	16869
907.79	16778
907.907	16755
908.023	16908
908.139	16892
908.256	16835
908.372	16782
908.488	16835
908.604	16626
908.72	16550
908.836	16546
908.952	16618
909.068	16634
909.184	16672
909.3	16546
909.415	16615
909.531	16653
909.647	16299
909.762	16356
909.878	16325
909.993	16322
910.108	16200
910.224	16223
910.339	16238
910.454	16246
910.57	16223
910.685	15987
910.8	16249
910.915	16291
911.03	16101
911.145	15960
911.259	15888
911.374	15983
911.489	15804
911.604	15743
911.718	15564
911.833	15656
911.947	15496
912.062	15511
912.176	15564
912.291	15622
912.405	15641
912.519	15827
912.633	15812
912.748	15679
912.862	15568
912.976	15443
913.09	15382
913.204	15492
913.318	15504
913.431	15469
913.545	15428
913.659	15568
913.772	15386
913.886	15245
914	15336
914.113	15321
914.226	15340
914.34	15310
914.453	15093
914.566	15336
914.68	15051
914.793	15218
914.906	14895
915.019	14880
915.132	14819
915.245	14887
915.358	14902
915.47	14864
915.583	14929
915.696	14868
915.809	14990
915.921	15009
916.034	14895
916.146	14758
916.259	14750
916.371	14849
916.483	14724
916.595	14682
916.708	14667
916.82	14815
916.932	14667
917.044	14686
917.156	14594
917.268	14507
917.38	14511
917.491	14568
917.603	14598
917.715	14674
917.826	14602
917.938	14469
918.049	14377
918.161	14469
918.272	14648
918.384	14651
918.495	14480
918.606	14423
918.717	14256
918.828	14309
918.939	14282
919.05	14290
919.161	14278
919.272	14119
919.383	14107
919.494	14317
919.604	14450
919.715	14282
919.826	14278
919.936	14263
920.047	14317
920.157	14305
920.267	14419
920.378	14267
920.488	14214
920.598	14385
920.708	14598
920.818	14457
920.928	14336
921.038	14507
921.148	14507
921.258	14275
921.368	14187
921.477	14069
921.587	14096
921.697	13860
921.806	14031
921.916	13826
922.025	13662
922.134	13655
922.244	13655
922.353	13708
922.462	13620
922.571	13426
922.68	13373
922.789	13274
922.898	13384
923.007	13312
923.116	13350
923.224	13384
923.333	13331
923.442	13168
923.55	13129
923.659	13160
923.767	13156
923.876	13122
923.984	13126
924.092	13149
924.201	13072
924.309	12951
924.417	12996
924.525	12973
924.633	12951
924.741	13742
924.849	12848
924.956	13012
925.064	12730
925.172	12684
925.279	12764
925.387	12772
925.494	12730
925.602	12924
925.709	12833
925.816	12673
925.924	12703
926.031	12783
926.138	12696
926.245	12719
926.352	12593
926.459	12642
926.566	12730
926.673	12711
926.779	12502
926.886	12483
926.993	12357
927.099	12277
927.206	12281
927.312	12239
927.419	12323
927.525	12285
927.631	12353
927.737	12235
927.843	12148
927.95	12034
928.056	12068
928.162	12182
928.267	12114
928.373	12814
928.479	12254
928.585	11977
928.69	12076
928.796	12121
928.901	11931
929.007	11874
929.112	12019
929.218	11901
929.323	11988
929.428	11790
929.533	11999
929.638	11756
929.743	11809
929.848	11847
929.953	11802
930.058	11729
930.163	11592
930.267	11611
930.372	11707
930.477	11558
930.581	11817
930.685	11615
930.79	11501
930.894	11509
930.998	11493
931.103	11615
931.207	11235
931.311	11018
931.415	11064
931.519	10801
931.623	10820
