Data from test_V78500241_2100.txt Node
Date: Fri Mar 25 15:24:28 CST 2022
User: usil
Spectrometer: V785-0024
Trigger mode: 0
Integration Time (sec): 4.000000E-1
Scans to average: 1
Nonlinearity correction enabled: false
Boxcar width: 0
Storing dark spectrum: false
XAxis mode: Wavelengths
Number of Pixels in Spectrum: 1024
>>>>>Begin Spectral Data<<<<<
801.071	27979
801.214	27884
801.356	27625
801.499	27473
801.641	27439
801.783	27485
801.926	27542
802.068	27268
802.211	27393
802.353	27283
802.496	27017
802.638	27074
802.78	27055
802.923	27062
803.065	26971
803.208	26967
803.35	27161
803.492	27188
803.635	27176
803.777	27157
803.919	27272
804.061	27618
804.204	27195
804.346	27275
804.488	27180
804.63	27283
804.773	27127
804.915	27256
805.057	27431
805.199	27188
805.341	27351
805.483	27340
805.626	27382
805.768	27287
805.91	27473
806.052	27405
806.194	27329
806.336	27561
806.478	27340
806.62	27386
806.762	27534
806.904	27606
807.046	27983
807.188	27720
807.33	27937
807.472	27892
807.614	27648
807.756	27663
807.898	27854
808.04	27599
808.182	27679
808.324	27751
808.465	27785
808.607	27835
808.749	28017
808.891	28090
809.033	28196
809.174	28006
809.316	27876
809.458	27945
809.6	27979
809.741	28090
809.883	28070
810.025	28344
810.166	28344
810.308	28367
810.45	28363
810.591	28093
810.733	28070
810.875	27895
811.016	27838
811.158	28036
811.299	28029
811.441	28036
811.582	28158
811.724	27991
811.865	28147
812.007	28063
812.148	27934
812.29	28032
812.431	28299
812.573	28344
812.714	28489
812.855	28721
812.997	28702
813.138	28801
813.279	28618
813.421	28618
813.562	28607
813.703	28428
813.845	28242
813.986	28002
814.127	27686
814.268	27701
814.41	27778
814.551	27633
814.692	27800
814.833	27755
814.974	27622
815.115	27766
815.256	27625
815.397	27606
815.539	27549
815.68	27408
815.821	27374
815.962	27458
816.103	27488
816.244	27466
816.385	27260
816.526	27256
816.666	27192
816.807	27123
816.948	26979
817.089	27001
817.23	27039
817.371	27017
817.512	27032
817.653	26944
817.793	26998
817.934	27032
818.075	26906
818.216	27093
818.356	27085
818.497	26739
818.638	26678
818.778	26708
818.919	26819
819.06	26788
819.2	26883
819.341	27058
819.481	26933
819.622	27188
819.762	27393
819.903	27237
820.043	27203
820.184	27135
820.324	27119
820.465	27241
820.605	27039
820.746	27127
820.886	26979
821.026	27176
821.167	27047
821.307	27058
821.447	27032
821.588	26948
821.728	26838
821.868	26602
822.008	26579
822.149	26453
822.289	26541
822.429	26176
822.569	26142
822.709	26012
822.849	26046
822.99	25997
823.13	26065
823.27	25890
823.41	25830
823.55	25723
823.69	25776
823.83	25811
823.97	25841
824.11	25658
824.25	25590
824.389	25632
824.529	25674
824.669	25499
824.809	25784
824.949	25677
825.089	25693
825.228	25715
825.368	25552
825.508	25502
825.648	25529
825.787	25674
825.927	25514
826.067	25495
826.206	25460
826.346	25483
826.485	25476
826.625	25464
826.765	25620
826.904	25388
827.044	25324
827.183	25270
827.323	25152
827.462	25259
827.601	25190
827.741	25168
827.88	25274
828.02	25015
828.159	25198
828.298	25312
828.437	25339
828.577	25179
828.716	25187
828.855	25114
828.994	24916
829.134	24852
829.273	24905
829.412	24970
829.551	24920
829.69	24916
829.829	24951
829.968	24943
830.107	24989
830.246	24890
830.385	24875
830.524	24867
830.663	24745
830.802	24692
830.941	24623
831.08	24460
831.219	24612
831.357	24547
831.496	24741
831.635	24517
831.774	24388
831.913	24544
832.051	24361
832.19	24213
832.329	24319
832.467	24213
832.606	24224
832.744	24091
832.883	24129
833.022	24167
833.16	24034
833.299	24311
833.437	24213
833.576	24315
833.714	24201
833.852	24311
833.991	24251
834.129	24384
834.267	24479
834.406	24194
834.544	24334
834.682	24304
834.821	24220
834.959	24353
835.097	24224
835.235	24361
835.373	24311
835.511	24201
835.65	24053
835.788	24026
835.926	23965
836.064	23863
836.202	23790
836.34	23931
836.478	24155
836.615	24114
836.753	24026
836.891	24106
837.029	24114
837.167	23961
837.305	24076
837.443	23977
837.58	23908
837.718	24030
837.856	23935
837.993	23946
838.131	23779
838.269	23722
838.406	23840
838.544	23779
838.681	23687
838.819	23539
838.956	23425
839.094	23414
839.231	23535
839.369	23623
839.506	23733
839.643	23661
839.781	23444
839.918	23330
840.055	23296
840.193	23364
840.33	23284
840.467	23296
840.604	23345
840.742	23566
840.879	23204
841.016	23330
841.153	23311
841.29	23315
841.427	23353
841.564	23368
841.701	23159
841.838	23185
841.975	23197
842.112	23143
842.249	23109
842.385	22965
842.522	23315
842.659	23231
842.796	23018
842.933	23006
843.069	23067
843.206	23003
843.343	23102
843.479	23060
843.616	22968
843.752	22850
843.889	22812
844.025	22984
844.162	22759
844.298	22938
844.435	22824
844.571	22786
844.708	22881
844.844	22896
844.98	22953
845.117	22889
845.253	22816
845.389	22603
845.525	22733
845.661	22656
845.798	22459
845.934	22645
846.07	22577
846.206	22577
846.342	22683
846.478	22432
846.614	22428
846.75	22295
846.886	22253
847.022	22519
847.158	22360
847.294	22303
847.429	22291
847.565	22204
847.701	22398
847.837	21949
847.972	22025
848.108	22086
848.244	22162
848.379	21960
848.515	21884
848.65	21892
848.786	21945
848.921	21907
849.057	21941
849.192	21857
849.328	21876
849.463	21808
849.598	21781
849.734	21808
849.869	21743
850.004	21561
850.14	21637
850.275	21671
850.41	21408
850.545	21671
850.68	21705
850.815	21606
850.95	21679
851.085	21835
851.22	21679
851.355	21705
851.49	21770
851.625	21633
851.76	21462
851.895	21595
852.03	21625
852.165	21663
852.299	21690
852.434	21701
852.569	21686
852.703	21641
852.838	21724
852.973	21816
853.107	21774
853.242	21587
853.376	21344
853.511	21336
853.645	21310
853.78	21671
853.914	21393
854.048	21469
854.183	21355
854.317	21545
854.451	21732
854.585	21500
854.72	21447
854.854	21549
854.988	21416
855.122	21367
855.256	21344
855.39	21344
855.524	21530
855.658	21473
855.792	21424
855.926	21504
856.06	21504
856.194	21625
856.327	21496
856.461	21363
856.595	21428
856.729	21458
856.862	21618
856.996	21450
857.13	21625
857.263	21500
857.397	21526
857.53	21504
857.664	21545
857.797	21587
857.931	21633
858.064	21671
858.197	21496
858.331	21587
858.464	21450
858.597	21408
858.731	21439
858.864	21507
858.997	21428
859.13	21523
859.263	21530
859.396	21416
859.529	21481
859.662	21344
859.795	21424
859.928	21424
860.061	21663
860.194	21641
860.327	21530
860.46	21545
860.592	21564
860.725	21641
860.858	21606
860.99	21424
861.123	21488
861.256	21447
861.388	21481
861.521	22074
861.653	21313
861.786	21256
861.918	21374
862.05	21374
862.183	21485
862.315	21428
862.447	21485
862.58	21511
862.712	21230
862.844	21104
862.976	21230
863.108	21108
863.24	21481
863.372	21081
863.504	21146
863.636	21237
863.768	21173
863.9	21165
864.032	21150
864.164	21214
864.296	21279
864.428	21233
864.559	21272
864.691	21249
864.823	21112
864.954	21180
865.086	21077
865.217	21176
865.349	21005
865.48	21116
865.612	20948
865.743	21207
865.875	20941
866.006	21112
866.137	21104
866.269	21085
866.4	21104
866.531	20948
866.662	21017
866.793	21039
866.924	20956
867.055	21005
867.186	20956
867.317	21013
867.448	20921
867.579	20982
867.71	20906
867.841	20849
867.972	20956
868.103	20975
868.233	21017
868.364	21051
868.495	21005
868.625	21268
868.756	21272
868.886	21184
869.017	21176
869.147	21207
869.278	21408
869.408	21180
869.539	21188
869.669	21325
869.799	21313
869.929	21321
870.06	21336
870.19	21545
870.32	21530
870.45	21568
870.58	21580
870.71	21720
870.84	21660
870.97	21618
871.1	21698
871.23	21804
871.36	21778
871.489	21709
871.619	21751
871.749	21903
871.879	21827
872.008	21869
872.138	21789
872.267	21800
872.397	21713
872.526	21781
872.656	21557
872.785	21625
872.915	21869
873.044	21979
873.173	21899
873.303	21941
873.432	21884
873.561	21934
873.69	21907
873.819	21915
873.948	21838
874.077	21808
874.206	21850
874.335	21808
874.464	21998
874.593	22116
874.722	22021
874.851	22021
874.979	22021
875.108	22090
875.237	22002
875.365	21945
875.494	22082
875.623	22067
875.751	22074
875.88	22116
876.008	22051
876.136	22200
876.265	22634
876.393	22626
876.521	22519
876.65	22569
876.778	22481
876.906	22390
877.034	22424
877.162	22470
877.29	22318
877.418	22394
877.546	22424
877.674	22402
877.802	22531
877.93	22344
878.058	22291
878.185	22329
878.313	22341
878.441	22413
878.568	22337
878.696	22337
878.824	22462
878.951	22535
879.079	22542
879.206	22721
879.333	22577
879.461	22436
879.588	22497
879.715	22577
879.842	22668
879.97	22519
880.097	22230
880.224	22276
880.351	22348
880.478	22226
880.605	22124
880.732	22207
880.859	22413
880.986	22196
881.112	22116
881.239	22086
881.366	21960
881.493	21838
881.619	21743
881.746	21804
881.872	21690
881.999	21762
882.125	21705
882.252	21892
882.378	21831
882.505	21907
882.631	21720
882.757	21519
882.883	21557
883.01	21534
883.136	21420
883.262	21340
883.388	21325
883.514	21553
883.64	21530
883.766	21428
883.892	21256
884.018	21359
884.143	21439
884.269	21492
884.395	21264
884.52	21131
884.646	21176
884.772	21131
884.897	21112
885.023	21070
885.148	21211
885.274	21180
885.399	21226
885.524	21150
885.65	21245
885.775	21169
885.9	21081
886.025	21237
886.15	21192
886.275	21096
886.4	21047
886.525	21165
886.65	21135
886.775	21081
886.9	21264
887.025	21416
887.149	21043
887.274	20941
887.399	20868
887.523	20876
887.648	20823
887.773	20762
887.897	20960
888.021	20895
888.146	20811
888.27	20906
888.395	21001
888.519	20914
888.643	20929
888.767	20941
888.891	20746
889.015	20564
889.139	20625
889.263	20689
889.387	20762
889.511	20910
889.635	20819
889.759	20640
889.883	20701
890.006	20693
890.13	20807
890.254	20556
890.377	20602
890.501	20499
890.624	20419
890.748	20503
890.871	20400
890.995	20233
891.118	20115
891.241	20244
891.364	20199
891.488	20438
891.611	20351
891.734	20347
891.857	20317
891.98	20206
892.103	20218
892.226	20187
892.349	20229
892.471	20130
892.594	20282
892.717	20180
892.839	20115
892.962	20210
893.085	20183
893.207	20214
893.33	20001
893.452	20115
893.575	20195
893.697	20058
893.819	20221
893.941	20343
894.064	20240
894.186	20046
894.308	20043
894.43	20187
894.552	20206
894.674	20248
894.796	20145
894.918	20149
895.04	20149
895.161	20294
895.283	20248
895.405	20039
895.526	20035
895.648	20206
895.769	20183
895.891	20142
896.012	20347
896.134	20199
896.255	20263
896.376	20263
896.498	20005
896.619	20180
896.74	20115
896.861	20237
896.982	20480
897.103	20640
897.224	20537
897.345	20301
897.466	20412
897.587	20419
897.708	20537
897.828	20419
897.949	20377
898.07	20282
898.19	20377
898.311	20454
898.431	20355
898.552	20377
898.672	20484
898.792	20419
898.913	20446
899.033	20278
899.153	20271
899.273	19997
899.393	20130
899.513	20191
899.633	20229
899.753	20111
899.873	20058
899.993	20168
900.113	20024
900.232	20161
900.352	20043
900.472	19921
900.591	19841
900.711	20043
900.83	19811
900.95	20016
901.069	20065
901.189	19704
901.308	19529
901.427	19533
901.546	19377
901.665	19601
901.784	19578
901.904	19312
902.023	19259
902.141	19046
902.26	19080
902.379	19198
902.498	19015
902.617	18977
902.735	19129
902.854	19004
902.973	18856
903.091	18639
903.21	18661
903.328	18661
903.446	18681
903.565	18570
903.683	18494
903.801	18342
903.919	18410
904.038	18369
904.156	18270
904.274	18350
904.392	18296
904.51	18197
904.627	18285
904.745	18273
904.863	18308
904.981	18053
905.098	17897
905.216	17836
905.334	18003
905.451	17942
905.569	17851
905.686	18011
905.803	17904
905.921	17729
906.038	17882
906.155	17771
906.272	17505
906.389	17539
906.506	17570
906.623	17395
906.74	17623
906.857	17364
906.974	17337
907.091	17459
907.208	17490
907.324	17463
907.441	17379
907.557	17181
907.674	17254
907.79	17033
907.907	17083
908.023	17197
908.139	17109
908.256	17178
908.372	17090
908.488	17098
908.604	16949
908.72	16824
908.836	16812
908.952	16850
909.068	16968
909.184	17003
909.3	16847
909.415	16904
909.531	16854
909.647	16588
909.762	16618
909.878	16599
909.993	16672
910.108	16535
910.224	16462
910.339	16523
910.454	16470
910.57	16409
910.685	16424
910.8	16558
910.915	16470
911.03	16375
911.145	16185
911.259	16166
911.374	16196
911.489	16116
911.604	16090
911.718	15918
911.833	15861
911.947	15838
912.062	15774
912.176	15888
912.291	15899
912.405	15884
912.519	16131
912.633	16002
912.748	15899
912.862	15918
912.976	15720
913.09	15637
913.204	15705
913.318	15778
913.431	15762
913.545	15831
913.659	15838
913.772	15720
913.886	15500
914	15564
914.113	15682
914.226	15671
914.34	15557
914.453	15454
914.566	15671
914.68	15466
914.793	15306
914.906	15138
915.019	15097
915.132	15062
915.245	15055
915.358	15097
915.47	15150
915.583	15093
915.696	15138
915.809	15241
915.921	15237
916.034	15100
916.146	15036
916.259	14937
916.371	15104
916.483	15055
916.595	15028
916.708	15001
916.82	14998
916.932	14872
917.044	14929
917.156	14929
917.268	14826
917.38	14830
917.491	14750
917.603	14864
917.715	14807
917.826	14883
917.938	14830
918.049	14644
918.161	14735
918.272	14902
918.384	14845
918.495	14773
918.606	14579
918.717	14545
918.828	14530
918.939	14571
919.05	14336
919.161	14625
919.272	14396
919.383	14469
919.494	14651
919.604	14716
919.715	14594
919.826	14370
919.936	14507
920.047	14617
920.157	14412
920.267	14686
920.378	14522
920.488	14488
920.598	14735
920.708	14800
920.818	14625
920.928	14670
921.038	14834
921.148	14705
921.258	14461
921.368	14362
921.477	14225
921.587	14233
921.697	14138
921.806	14233
921.916	14065
922.025	13913
922.134	13830
922.244	13925
922.353	13970
922.462	13761
922.571	13761
922.68	13601
922.789	13491
922.898	13586
923.007	13453
923.116	13540
923.224	13552
923.333	13521
923.442	13392
923.55	13346
923.659	13377
923.767	13400
923.876	13400
923.984	13407
924.092	13217
924.201	13339
924.309	13331
924.417	13259
924.525	13164
924.633	13240
924.741	14046
924.849	13065
924.956	13114
925.064	12993
925.172	12935
925.279	12932
925.387	13000
925.494	12856
925.602	13095
925.709	13019
925.816	12867
925.924	12859
926.031	13034
926.138	12901
926.245	12993
926.352	12859
926.459	12970
926.566	13012
926.673	12840
926.779	12650
926.886	12741
926.993	12601
927.099	12498
927.206	12475
927.312	12498
927.419	12631
927.525	12490
927.631	12582
927.737	12395
927.843	12410
927.95	12171
928.056	12315
928.162	12372
928.267	12365
928.373	12913
928.479	12467
928.585	12159
928.69	12327
928.796	12330
928.901	12186
929.007	12015
929.112	12167
929.218	12148
929.323	12091
929.428	12125
929.533	12289
929.638	12060
929.743	12034
929.848	11996
929.953	12060
930.058	11897
930.163	11752
930.267	11775
930.372	11908
930.477	11733
930.581	11908
930.685	11832
930.79	11592
930.894	11703
930.998	11509
931.103	11646
931.207	11368
931.311	11345
931.415	11178
931.519	11018
931.623	11056
