Data from test_V78500241_3156.txt Node
Date: Fri Mar 25 15:31:50 CST 2022
User: usil
Spectrometer: V785-0024
Trigger mode: 0
Integration Time (sec): 4.000000E-1
Scans to average: 1
Nonlinearity correction enabled: false
Boxcar width: 0
Storing dark spectrum: false
XAxis mode: Wavelengths
Number of Pixels in Spectrum: 1024
>>>>>Begin Spectral Data<<<<<
801.071	27203
801.214	27214
801.356	26830
801.499	26929
801.641	26838
801.783	26693
801.926	26762
802.068	26632
802.211	26720
802.353	26667
802.496	26552
802.638	26381
802.78	26412
802.923	26305
803.065	26218
803.208	26218
803.35	26434
803.492	26476
803.635	26556
803.777	26404
803.919	26560
804.061	26845
804.204	26564
804.346	26442
804.488	26370
804.63	26587
804.773	26415
804.915	26469
805.057	26469
805.199	26507
805.341	26636
805.483	26765
805.626	26697
805.768	26511
805.91	26712
806.052	26587
806.194	26648
806.336	26826
806.478	26579
806.62	26644
806.762	26746
806.904	26861
807.046	27173
807.188	26986
807.33	27081
807.472	27043
807.614	26967
807.756	27024
807.898	26857
808.04	26781
808.182	26887
808.324	26891
808.465	26872
808.607	27138
808.749	27184
808.891	27131
809.033	27332
809.174	27264
809.316	27287
809.458	27150
809.6	27241
809.741	27317
809.883	27310
810.025	27386
810.166	27568
810.308	27538
810.45	27386
810.591	27340
810.733	27188
810.875	27135
811.016	27096
811.158	27214
811.299	27214
811.441	27226
811.582	27397
811.724	27142
811.865	27268
812.007	27116
812.148	27138
812.29	27233
812.431	27348
812.573	27519
812.714	27538
812.855	27660
812.997	27736
813.138	27934
813.279	27789
813.421	27667
813.562	27641
813.703	27511
813.845	27439
813.986	27051
814.127	26918
814.268	26849
814.41	26937
814.551	26750
814.692	27043
814.833	26678
814.974	26785
815.115	26899
815.256	26602
815.397	26845
815.539	26811
815.68	26602
815.821	26549
815.962	26613
816.103	26552
816.244	26541
816.385	26355
816.526	26377
816.666	26256
816.807	26058
816.948	26111
817.089	26324
817.23	26183
817.371	26035
817.512	26122
817.653	26088
817.793	26043
817.934	26180
818.075	26267
818.216	26103
818.356	26153
818.497	25959
818.638	25799
818.778	25928
818.919	25871
819.06	26008
819.2	25947
819.341	26157
819.481	26043
819.622	26065
819.762	26431
819.903	26206
820.043	26248
820.184	26202
820.324	26161
820.465	26339
820.605	26214
820.746	26256
820.886	26088
821.026	26214
821.167	26111
821.307	26237
821.447	26008
821.588	25902
821.728	25932
821.868	25746
822.008	25594
822.149	25609
822.289	25670
822.429	25285
822.569	25225
822.709	25270
822.849	25038
822.99	25118
823.13	25080
823.27	24947
823.41	24856
823.55	24787
823.69	24996
823.83	24973
823.97	24897
824.11	24654
824.25	24795
824.389	24692
824.529	24757
824.669	24715
824.809	24700
824.949	24753
825.089	24722
825.228	24817
825.368	24639
825.508	24669
825.648	24639
825.787	24654
825.927	24601
826.067	24551
826.206	24631
826.346	24779
826.485	24464
826.625	24551
826.765	24700
826.904	24700
827.044	24334
827.183	24403
827.323	24235
827.462	24330
827.601	24251
827.741	24266
827.88	24426
828.02	24197
828.159	24129
828.298	24289
828.437	24460
828.577	24209
828.716	24388
828.855	24102
828.994	24068
829.134	23988
829.273	24030
829.412	23980
829.551	23988
829.69	23977
829.829	24114
829.968	24117
830.107	24003
830.246	24060
830.385	24072
830.524	23954
830.663	23802
830.802	23775
830.941	23661
831.08	23547
831.219	23718
831.357	23680
831.496	23904
831.635	23577
831.774	23512
831.913	23505
832.051	23452
832.19	23318
832.329	23414
832.467	23322
832.606	23261
832.744	23048
832.883	23299
833.022	23284
833.16	23368
833.299	23246
833.437	23406
833.576	23421
833.714	23425
833.852	23570
833.991	23490
834.129	23421
834.267	23501
834.406	23372
834.544	23505
834.682	23284
834.821	23307
834.959	23463
835.097	23280
835.235	23467
835.373	23322
835.511	23440
835.65	23284
835.788	23166
835.926	23200
836.064	23010
836.202	23006
836.34	23162
836.478	23429
836.615	23239
836.753	23216
836.891	23269
837.029	23326
837.167	23193
837.305	23060
837.443	23105
837.58	23071
837.718	23132
837.856	23086
837.993	23064
838.131	22961
838.269	22896
838.406	23010
838.544	22877
838.681	22767
838.819	22721
838.956	22599
839.094	22660
839.231	22607
839.369	22622
839.506	22835
839.643	22786
839.781	22637
839.918	22535
840.055	22481
840.193	22500
840.33	22519
840.467	22493
840.604	22618
840.742	22877
840.879	22470
841.016	22523
841.153	22306
841.29	22512
841.427	22447
841.564	22546
841.701	22565
841.838	22322
841.975	22417
842.112	22455
842.249	22356
842.385	22268
842.522	22500
842.659	22390
842.796	22299
842.933	22253
843.069	22181
843.206	22291
843.343	22188
843.479	22181
843.616	22215
843.752	22074
843.889	21987
844.025	22318
844.162	22059
844.298	22093
844.435	22002
844.571	22029
844.708	22082
844.844	22268
844.98	22131
845.117	22048
845.253	21941
845.389	21884
845.525	21857
845.661	21842
845.798	21759
845.934	21850
846.07	21743
846.206	21747
846.342	21888
846.478	21766
846.614	21511
846.75	21458
846.886	21542
847.022	21599
847.158	21519
847.294	21431
847.429	21454
847.565	21435
847.701	21717
847.837	21226
847.972	21169
848.108	21386
848.244	21283
848.379	21081
848.515	21199
848.65	21036
848.786	21043
848.921	21081
849.057	21154
849.192	21211
849.328	21226
849.463	21127
849.598	21096
849.734	21047
849.869	20971
850.004	20921
850.14	20883
850.275	20876
850.41	20811
850.545	20857
850.68	20853
850.815	20872
850.95	20883
851.085	21051
851.22	20986
851.355	21005
851.49	20769
851.625	20762
851.76	20781
851.895	20823
852.03	20701
852.165	20785
852.299	20823
852.434	20838
852.569	20872
852.703	20880
852.838	20910
852.973	20948
853.107	20967
853.242	20762
853.376	20727
853.511	20632
853.645	20583
853.78	20705
853.914	20655
854.048	20632
854.183	20777
854.317	20750
854.451	20880
854.585	20575
854.72	20765
854.854	20617
854.988	20579
855.122	20720
855.256	20594
855.39	20617
855.524	20914
855.658	20697
855.792	20701
855.926	20781
856.06	20701
856.194	20792
856.327	20598
856.461	20659
856.595	20613
856.729	20648
856.862	20807
856.996	20712
857.13	20746
857.263	20826
857.397	20727
857.53	20655
857.664	20758
857.797	20663
857.931	20773
858.064	20792
858.197	20731
858.331	20667
858.464	20689
858.597	20507
858.731	20678
858.864	20670
858.997	20583
859.13	20670
859.263	20762
859.396	20648
859.529	20678
859.662	20697
859.795	20678
859.928	20682
860.061	20815
860.194	20880
860.327	20743
860.46	20659
860.592	20807
860.725	20921
860.858	20807
860.99	20655
861.123	20602
861.256	20632
861.388	20811
861.521	21332
861.653	20560
861.786	20495
861.918	20541
862.05	20461
862.183	20606
862.315	20617
862.447	20644
862.58	20556
862.712	20457
862.844	20317
862.976	20503
863.108	20511
863.24	20708
863.372	20301
863.504	20400
863.636	20309
863.768	20431
863.9	20423
864.032	20396
864.164	20343
864.296	20427
864.428	20408
864.559	20526
864.691	20473
864.823	20374
864.954	20324
865.086	20358
865.217	20298
865.349	20229
865.48	20408
865.612	20339
865.743	20427
865.875	20347
866.006	20332
866.137	20267
866.269	20400
866.4	20168
866.531	20229
866.662	20161
866.793	20111
866.924	20221
867.055	20263
867.186	20263
867.317	20294
867.448	20130
867.579	20164
867.71	20225
867.841	20157
867.972	20320
868.103	20233
868.233	20320
868.364	20240
868.495	20267
868.625	20579
868.756	20465
868.886	20336
869.017	20587
869.147	20670
869.278	20686
869.408	20476
869.539	20492
869.669	20579
869.799	20492
869.929	20518
870.06	20579
870.19	20769
870.32	20769
870.45	20838
870.58	21024
870.71	21001
870.84	21085
870.97	20960
871.1	20819
871.23	21085
871.36	21058
871.489	21009
871.619	21055
871.749	21055
871.879	21070
872.008	21142
872.138	21074
872.267	21146
872.397	20994
872.526	20933
872.656	20990
872.785	20857
872.915	21089
873.044	21093
873.173	21169
873.303	21203
873.432	21131
873.561	21214
873.69	21119
873.819	21131
873.948	21142
874.077	21165
874.206	20971
874.335	21214
874.464	21245
874.593	21272
874.722	21218
874.851	21359
874.979	21275
875.108	21336
875.237	21325
875.365	21287
875.494	21348
875.623	21355
875.751	21317
875.88	21416
876.008	21576
876.136	21500
876.265	21606
876.393	21865
876.521	21895
876.65	21797
876.778	21857
876.906	21583
877.034	21823
877.162	21759
877.29	21671
877.418	21660
877.546	21698
877.674	21690
877.802	21572
877.93	21686
878.058	21686
878.185	21656
878.313	21648
878.441	21732
878.568	21477
878.696	21690
878.824	21751
878.951	21762
879.079	21953
879.206	22063
879.333	21838
879.461	21770
879.588	21857
879.715	21823
879.842	21934
879.97	21781
880.097	21526
880.224	21500
880.351	21473
880.478	21545
880.605	21580
880.732	21515
880.859	21884
880.986	21625
881.112	21561
881.239	21469
881.366	21169
881.493	21233
881.619	21157
881.746	21047
881.872	21154
881.999	21062
882.125	21055
882.252	21119
882.378	21017
882.505	21188
882.631	21093
882.757	20743
882.883	20872
883.01	20819
883.136	20758
883.262	20598
883.388	20682
883.514	20754
883.64	20853
883.766	20773
883.892	20575
884.018	20617
884.143	20743
884.269	20872
884.395	20522
884.52	20522
884.646	20473
884.772	20514
884.897	20290
885.023	20549
885.148	20537
885.274	20556
885.399	20632
885.524	20442
885.65	20518
885.775	20492
885.9	20575
886.025	20655
886.15	20492
886.275	20278
886.4	20332
886.525	20442
886.65	20423
886.775	20423
886.9	20549
887.025	20674
887.149	20434
887.274	20210
887.399	20183
887.523	20130
887.648	20161
887.773	20191
887.897	20301
888.021	20256
888.146	20168
888.27	20389
888.395	20248
888.519	20172
888.643	20237
888.767	20240
888.891	20138
889.015	20100
889.139	20092
889.263	20046
889.387	20214
889.511	20206
889.635	20115
889.759	20054
889.883	20157
890.006	20157
890.13	20206
890.254	20027
890.377	19947
890.501	19883
890.624	19731
890.748	19788
890.871	19685
890.995	19681
891.118	19544
891.241	19674
891.364	19639
891.488	19757
891.611	19533
891.734	19643
891.857	19590
891.98	19677
892.103	19670
892.226	19597
892.349	19533
892.471	19449
892.594	19559
892.717	19586
892.839	19476
892.962	19521
893.085	19533
893.207	19518
893.33	19453
893.452	19457
893.575	19575
893.697	19472
893.819	19609
893.941	19799
894.064	19696
894.186	19483
894.308	19460
894.43	19662
894.552	19723
894.674	19685
894.796	19510
894.918	19521
895.04	19464
895.161	19670
895.283	19613
895.405	19491
895.526	19499
895.648	19628
895.769	19518
895.891	19575
896.012	19639
896.134	19578
896.255	19571
896.376	19476
896.498	19533
896.619	19594
896.74	19620
896.861	19457
896.982	19879
897.103	20077
897.224	19799
897.345	19776
897.466	19738
897.587	19822
897.708	19890
897.828	19837
897.949	19708
898.07	19571
898.19	19765
898.311	19860
898.431	19677
898.552	19780
898.672	19997
898.792	19963
898.913	19849
899.033	19811
899.153	19597
899.273	19567
899.393	19518
899.513	19590
899.633	19616
899.753	19521
899.873	19506
899.993	19525
900.113	19392
900.232	19476
900.352	19480
900.472	19304
900.591	19335
900.711	19350
900.83	19255
900.95	19403
901.069	19506
901.189	19282
901.308	18962
901.427	18791
901.546	18962
901.665	18810
901.784	18939
901.904	18715
902.023	18673
902.141	18456
902.26	18403
902.379	18498
902.498	18502
902.617	18361
902.735	18388
902.854	18448
902.973	18289
903.091	18163
903.21	18106
903.328	18133
903.446	17969
903.565	17977
903.683	17946
903.801	17859
903.919	17863
904.038	17813
904.156	17627
904.274	17790
904.392	17646
904.51	17592
904.627	17646
904.745	17821
904.863	17764
904.981	17547
905.098	17288
905.216	17349
905.334	17436
905.451	17299
905.569	17261
905.686	17425
905.803	17326
905.921	17147
906.038	17246
906.155	17204
906.272	17071
906.389	17117
906.506	16896
906.623	17041
906.74	16919
906.857	16820
906.974	16725
907.091	16889
907.208	17029
907.324	16923
907.441	16847
907.557	16645
907.674	16558
907.79	16588
907.907	16561
908.023	16649
908.139	16611
908.256	16565
908.372	16493
908.488	16538
908.604	16409
908.72	16405
908.836	16280
908.952	16394
909.068	16394
909.184	16523
909.3	16352
909.415	16379
909.531	16390
909.647	16188
909.762	16169
909.878	16105
909.993	16124
910.108	16021
910.224	15991
910.339	16013
910.454	15930
910.57	15835
910.685	15762
910.8	15975
910.915	16097
911.03	15846
911.145	15736
911.259	15682
911.374	15713
911.489	15591
911.604	15568
911.718	15325
911.833	15431
911.947	15367
912.062	15264
912.176	15572
912.291	15458
912.405	15458
912.519	15610
912.633	15599
912.748	15511
912.862	15321
912.976	15249
913.09	15104
913.204	15291
913.318	15222
913.431	15329
913.545	15355
913.659	15416
913.772	15192
913.886	14982
914	14994
914.113	15169
914.226	15154
914.34	15047
914.453	14960
914.566	15119
914.68	15032
914.793	14864
914.906	14682
915.019	14659
915.132	14648
915.245	14644
915.358	14678
915.47	14716
915.583	14663
915.696	14716
915.809	14659
915.921	14792
916.034	14720
916.146	14549
916.259	14606
916.371	14648
916.483	14632
916.595	14480
916.708	14450
916.82	14503
916.932	14431
917.044	14415
917.156	14431
917.268	14336
917.38	14362
917.491	14317
917.603	14374
917.715	14438
917.826	14370
917.938	14172
918.049	14233
918.161	14294
918.272	14427
918.384	14431
918.495	14301
918.606	14195
918.717	14054
918.828	14123
918.939	14054
919.05	14008
919.161	14081
919.272	13871
919.383	13959
919.494	14176
919.604	14221
919.715	14092
919.826	14149
919.936	13955
920.047	14103
920.157	14027
920.267	14233
920.378	14088
920.488	14027
920.598	14259
920.708	14298
920.818	14134
920.928	14126
921.038	14343
921.148	14271
921.258	14054
921.368	13963
921.477	13868
921.587	13788
921.697	13708
921.806	13837
921.916	13693
922.025	13590
922.134	13419
922.244	13434
922.353	13480
922.462	13434
922.571	13160
922.68	13168
922.789	13050
922.898	13126
923.007	13099
923.116	13141
923.224	13129
923.333	13069
923.442	12943
923.55	12951
923.659	12985
923.767	13031
923.876	12833
923.984	12977
924.092	12924
924.201	12871
924.309	12867
924.417	12791
924.525	12806
924.633	12882
924.741	13723
924.849	12677
924.956	12688
925.064	12650
925.172	12532
925.279	12612
925.387	12585
925.494	12551
925.602	12696
925.709	12574
925.816	12437
925.924	12464
926.031	12563
926.138	12566
926.245	12418
926.352	12418
926.459	12559
926.566	12627
926.673	12395
926.779	12338
926.886	12330
926.993	12201
927.099	12129
927.206	12133
927.312	12057
927.419	12232
927.525	12197
927.631	12232
927.737	12095
927.843	12068
927.95	11885
928.056	11908
928.162	11901
928.267	12026
928.373	12650
928.479	12076
928.585	11817
928.69	11946
928.796	11992
928.901	11824
929.007	11665
929.112	11878
929.218	11790
929.323	11722
929.428	11680
929.533	11813
929.638	11657
929.743	11680
929.848	11661
929.953	11741
930.058	11520
930.163	11322
930.267	11429
930.372	11539
930.477	11334
930.581	11623
930.685	11406
930.79	11204
930.894	11326
930.998	11235
931.103	11436
931.207	11079
931.311	10942
931.415	10942
931.519	10748
931.623	10622
