Data from test_V78500241_3615.txt Node
Date: Fri Mar 25 15:35:01 CST 2022
User: usil
Spectrometer: V785-0024
Trigger mode: 0
Integration Time (sec): 4.000000E-1
Scans to average: 1
Nonlinearity correction enabled: false
Boxcar width: 0
Storing dark spectrum: false
XAxis mode: Wavelengths
Number of Pixels in Spectrum: 1024
>>>>>Begin Spectral Data<<<<<
801.071	27492
801.214	27264
801.356	27074
801.499	27043
801.641	26944
801.783	26910
801.926	26918
802.068	26906
802.211	26830
802.353	26781
802.496	26465
802.638	26499
802.78	26476
802.923	26423
803.065	26362
803.208	26427
803.35	26640
803.492	26602
803.635	26762
803.777	26625
803.919	26625
804.061	26994
804.204	26765
804.346	26632
804.488	26575
804.63	26731
804.773	26495
804.915	26708
805.057	26899
805.199	26549
805.341	26701
805.483	26819
805.626	26750
805.768	26648
805.91	26796
806.052	26735
806.194	26769
806.336	26872
806.478	26731
806.62	26705
806.762	26788
806.904	26967
807.046	27302
807.188	27230
807.33	27226
807.472	27306
807.614	27154
807.756	27203
807.898	27047
808.04	26940
808.182	26819
808.324	26986
808.465	27039
808.607	27260
808.749	27260
808.891	27427
809.033	27481
809.174	27397
809.316	27298
809.458	27363
809.6	27310
809.741	27485
809.883	27583
810.025	27572
810.166	27679
810.308	27648
810.45	27663
810.591	27462
810.733	27515
810.875	27389
811.016	27355
811.158	27374
811.299	27576
811.441	27504
811.582	27751
811.724	27351
811.865	27294
812.007	27393
812.148	27359
812.29	27507
812.431	27511
812.573	27648
812.714	27838
812.855	27926
812.997	28082
813.138	28013
813.279	28044
813.421	27838
813.562	27755
813.703	27728
813.845	27682
813.986	27283
814.127	27230
814.268	27077
814.41	27135
814.551	27074
814.692	27104
814.833	27077
814.974	26956
815.115	27116
815.256	26842
815.397	26861
815.539	26933
815.68	26868
815.821	26697
815.962	26887
816.103	26777
816.244	26632
816.385	26678
816.526	26644
816.666	26511
816.807	26267
816.948	26450
817.089	26533
817.23	26370
817.371	26278
817.512	26263
817.653	26187
817.793	26317
817.934	26415
818.075	26374
818.216	26438
818.356	26313
818.497	26298
818.638	26176
818.778	26008
818.919	26020
819.06	26069
819.2	26237
819.341	26313
819.481	26286
819.622	26427
819.762	26746
819.903	26492
820.043	26564
820.184	26457
820.324	26366
820.465	26461
820.605	26412
820.746	26423
820.886	26161
821.026	26434
821.167	26469
821.307	26571
821.447	26252
821.588	26214
821.728	26111
821.868	25913
822.008	25776
822.149	25708
822.289	25791
822.429	25464
822.569	25483
822.709	25662
822.849	25289
822.99	25289
823.13	25251
823.27	25156
823.41	25148
823.55	25084
823.69	25152
823.83	25103
823.97	25031
824.11	24909
824.25	24886
824.389	24981
824.529	25034
824.669	25050
824.809	25148
824.949	25072
825.089	25050
825.228	24951
825.368	24783
825.508	24798
825.648	24806
825.787	24837
825.927	24909
826.067	24715
826.206	24772
826.346	24837
826.485	24810
826.625	24806
826.765	24840
826.904	24992
827.044	24566
827.183	24696
827.323	24563
827.462	24544
827.601	24399
827.741	24536
827.88	24551
828.02	24365
828.159	24418
828.298	24627
828.437	24669
828.577	24456
828.716	24521
828.855	24452
828.994	24235
829.134	24251
829.273	24152
829.412	24178
829.551	24235
829.69	24292
829.829	24152
829.968	24338
830.107	24395
830.246	24197
830.385	24152
830.524	24121
830.663	24076
830.802	23946
830.941	23870
831.08	23745
831.219	23847
831.357	23824
831.496	24121
831.635	23961
831.774	23901
831.913	23608
832.051	23577
832.19	23714
832.329	23691
832.467	23592
832.606	23486
832.744	23547
832.883	23417
833.022	23509
833.16	23661
833.299	23634
833.437	23570
833.576	23592
833.714	23585
833.852	23745
833.991	23634
834.129	23672
834.267	23741
834.406	23592
834.544	23615
834.682	23596
834.821	23627
834.959	23722
835.097	23596
835.235	23718
835.373	23668
835.511	23630
835.65	23440
835.788	23471
835.926	23318
836.064	23299
836.202	23341
836.34	23425
836.478	23520
836.615	23402
836.753	23455
836.891	23577
837.029	23471
837.167	23417
837.305	23455
837.443	23284
837.58	23242
837.718	23296
837.856	23277
837.993	23345
838.131	23345
838.269	23136
838.406	23197
838.544	23132
838.681	23010
838.819	22915
838.956	22854
839.094	22919
839.231	22824
839.369	22927
839.506	23178
839.643	23079
839.781	22759
839.918	22755
840.055	22778
840.193	22683
840.33	22744
840.467	22634
840.604	22805
840.742	23048
840.879	22698
841.016	22664
841.153	22500
841.29	22869
841.427	22854
841.564	22596
841.701	22592
841.838	22664
841.975	22527
842.112	22683
842.249	22573
842.385	22538
842.522	22725
842.659	22493
842.796	22516
842.933	22481
843.069	22402
843.206	22363
843.343	22546
843.479	22500
843.616	22379
843.752	22139
843.889	22306
844.025	22363
844.162	22200
844.298	22299
844.435	22238
844.571	22158
844.708	22390
844.844	22428
844.98	22447
845.117	22417
845.253	22238
845.389	22166
845.525	22238
845.661	22063
845.798	21941
845.934	22120
846.07	21945
846.206	22013
846.342	22078
846.478	21949
846.614	21823
846.75	21690
846.886	21698
847.022	21789
847.158	21736
847.294	21713
847.429	21705
847.565	21705
847.701	21983
847.837	21481
847.972	21401
848.108	21523
848.244	21591
848.379	21302
848.515	21367
848.65	21321
848.786	21386
848.921	21488
849.057	21412
849.192	21530
849.328	21344
849.463	21359
849.598	21329
849.734	21245
849.869	21165
850.004	21085
850.14	21058
850.275	21146
850.41	21062
850.545	21051
850.68	21055
850.815	21138
850.95	21180
851.085	21226
851.22	21192
851.355	21070
851.49	21173
851.625	21077
851.76	21028
851.895	21009
852.03	21066
852.165	21051
852.299	21188
852.434	21081
852.569	21119
852.703	21001
852.838	21184
852.973	21287
853.107	21275
853.242	21055
853.376	21017
853.511	20823
853.645	20956
853.78	20967
853.914	20921
854.048	20925
854.183	20849
854.317	21005
854.451	21066
854.585	20929
854.72	20925
854.854	20857
854.988	20819
855.122	20933
855.256	20724
855.39	20895
855.524	20944
855.658	20906
855.792	20914
855.926	20937
856.06	20921
856.194	20979
856.327	20902
856.461	20948
856.595	20910
856.729	20842
856.862	21070
856.996	20842
857.13	20899
857.263	20842
857.397	20952
857.53	20956
857.664	20777
857.797	20880
857.931	20944
858.064	21043
858.197	21055
858.331	20876
858.464	20937
858.597	20830
858.731	21009
858.864	20792
858.997	20895
859.13	20880
859.263	20967
859.396	20967
859.529	20834
859.662	20830
859.795	20853
859.928	20921
860.061	20979
860.194	21180
860.327	20986
860.46	20891
860.592	21066
860.725	21009
860.858	21096
860.99	20853
861.123	20849
861.256	20868
861.388	20925
861.521	21755
861.653	20727
861.786	20777
861.918	20769
862.05	20724
862.183	20849
862.315	20963
862.447	20967
862.58	20762
862.712	20644
862.844	20602
862.976	20804
863.108	20785
863.24	21047
863.372	20469
863.504	20621
863.636	20594
863.768	20629
863.9	20632
864.032	20533
864.164	20632
864.296	20716
864.428	20758
864.559	20590
864.691	20758
864.823	20727
864.954	20644
865.086	20686
865.217	20556
865.349	20374
865.48	20518
865.612	20484
865.743	20632
865.875	20423
866.006	20461
866.137	20484
866.269	20537
866.4	20488
866.531	20389
866.662	20419
866.793	20568
866.924	20427
867.055	20374
867.186	20511
867.317	20434
867.448	20419
867.579	20404
867.71	20294
867.841	20404
867.972	20507
868.103	20408
868.233	20526
868.364	20492
868.495	20625
868.625	20720
868.756	20906
868.886	20701
869.017	20731
869.147	20842
869.278	20823
869.408	20746
869.539	20636
869.669	20853
869.799	20731
869.929	20872
870.06	20735
870.19	21096
870.32	21032
870.45	21066
870.58	20948
870.71	21184
870.84	21211
870.97	21024
871.1	21173
871.23	21252
871.36	21245
871.489	21157
871.619	21287
871.749	21336
871.879	21283
872.008	21462
872.138	21317
872.267	21298
872.397	21245
872.526	21036
872.656	21150
872.785	21207
872.915	21420
873.044	21481
873.173	21351
873.303	21424
873.432	21454
873.561	21492
873.69	21256
873.819	21313
873.948	21439
874.077	21325
874.206	21264
874.335	21424
874.464	21370
874.593	21633
874.722	21450
874.851	21610
874.979	21576
875.108	21576
875.237	21439
875.365	21496
875.494	21583
875.623	21660
875.751	21504
875.88	21686
876.008	21751
876.136	21850
876.265	21991
876.393	22070
876.521	22036
876.65	22078
876.778	21930
876.906	21854
877.034	21953
877.162	21998
877.29	21945
877.418	21968
877.546	21850
877.674	21895
877.802	21888
877.93	22013
878.058	21888
878.185	21804
878.313	21941
878.441	21915
878.568	21766
878.696	21888
878.824	21880
878.951	21926
879.079	22006
879.206	22310
879.333	22112
879.461	21907
879.588	21983
879.715	22051
879.842	22219
879.97	22070
880.097	21823
880.224	21778
880.351	21903
880.478	21812
880.605	21747
880.732	21747
880.859	22101
880.986	21709
881.112	21850
881.239	21603
881.366	21595
881.493	21481
881.619	21408
881.746	21336
881.872	21405
881.999	21332
882.125	21401
882.252	21378
882.378	21386
882.505	21443
882.631	21173
882.757	21104
882.883	21135
883.01	21085
883.136	20979
883.262	20982
883.388	20963
883.514	21089
883.64	21104
883.766	20982
883.892	20861
884.018	20785
884.143	21005
884.269	21104
884.395	20861
884.52	20716
884.646	20670
884.772	20697
884.897	20484
885.023	20613
885.148	20815
885.274	20845
885.399	20697
885.524	20598
885.65	20754
885.775	20663
885.9	20708
886.025	20807
886.15	20807
886.275	20750
886.4	20564
886.525	20587
886.65	20602
886.775	20651
886.9	20861
887.025	20876
887.149	20636
887.274	20495
887.399	20442
887.523	20366
887.648	20438
887.773	20202
887.897	20404
888.021	20564
888.146	20324
888.27	20594
888.395	20606
888.519	20511
888.643	20476
888.767	20564
888.891	20259
889.015	20313
889.139	20423
889.263	20267
889.387	20240
889.511	20438
889.635	20412
889.759	20278
889.883	20225
890.006	20328
890.13	20389
890.254	20206
890.377	20199
890.501	20065
890.624	20005
890.748	20024
890.871	19898
890.995	19780
891.118	19890
891.241	19830
891.364	19830
891.488	19955
891.611	19795
891.734	19875
891.857	19791
891.98	19776
892.103	19913
892.226	19811
892.349	19833
892.471	19609
892.594	19742
892.717	19746
892.839	19616
892.962	19913
893.085	19890
893.207	19712
893.33	19628
893.452	19662
893.575	19811
893.697	19791
893.819	19845
893.941	19986
894.064	19811
894.186	19795
894.308	19658
894.43	19811
894.552	19913
894.674	19925
894.796	19590
894.918	19704
895.04	19662
895.161	19875
895.283	19818
895.405	19643
895.526	19837
895.648	19727
895.769	19670
895.891	19753
896.012	19849
896.134	19818
896.255	19765
896.376	19757
896.498	19761
896.619	19757
896.74	19639
896.861	19822
896.982	20122
897.103	20320
897.224	20054
897.345	20005
897.466	19845
897.587	19936
897.708	20092
897.828	20073
897.949	19959
898.07	19818
898.19	19959
898.311	20005
898.431	19986
898.552	19989
898.672	19997
898.792	20202
898.913	20081
899.033	19769
899.153	19811
899.273	19723
899.393	19666
899.513	19757
899.633	19788
899.753	19788
899.873	19761
899.993	19818
900.113	19700
900.232	19693
900.352	19799
900.472	19605
900.591	19491
900.711	19658
900.83	19476
900.95	19624
901.069	19620
901.189	19487
901.308	19282
901.427	19114
901.546	19171
901.665	19259
901.784	19160
901.904	19148
902.023	18882
902.141	18726
902.26	18654
902.379	18814
902.498	18589
902.617	18677
902.735	18764
902.854	18574
902.973	18601
903.091	18304
903.21	18384
903.328	18308
903.446	18285
903.565	18171
903.683	18178
903.801	18076
903.919	18060
904.038	18053
904.156	17908
904.274	18076
904.392	17980
904.51	17863
904.627	17946
904.745	17870
904.863	17889
904.981	17619
905.098	17524
905.216	17490
905.334	17585
905.451	17570
905.569	17558
905.686	17665
905.803	17627
905.921	17334
906.038	17539
906.155	17387
906.272	17356
906.389	17220
906.506	17140
906.623	17121
906.74	17105
906.857	16980
906.974	16957
907.091	17124
907.208	17227
907.324	17090
907.441	17014
907.557	16797
907.674	16881
907.79	16767
907.907	16850
908.023	16904
908.139	16816
908.256	16801
908.372	16736
908.488	16763
908.604	16584
908.72	16523
908.836	16622
908.952	16546
909.068	16577
909.184	16630
909.3	16546
909.415	16599
909.531	16535
909.647	16325
909.762	16287
909.878	16188
909.993	16314
910.108	16234
910.224	16204
910.339	16306
910.454	16185
910.57	16177
910.685	15960
910.8	16154
910.915	16166
911.03	16124
911.145	15911
911.259	15899
911.374	15945
911.489	15804
911.604	15785
911.718	15709
911.833	15584
911.947	15564
912.062	15488
912.176	15622
912.291	15610
912.405	15717
912.519	15869
912.633	15835
912.748	15682
912.862	15663
912.976	15496
913.09	15332
913.204	15466
913.318	15355
913.431	15466
913.545	15530
913.659	15549
913.772	15439
913.886	15264
914	15173
914.113	15313
914.226	15313
914.34	15382
914.453	15116
914.566	15348
914.68	15176
914.793	15119
914.906	14861
915.019	14910
915.132	14750
915.245	14754
915.358	14826
915.47	14895
915.583	14758
915.696	14712
915.809	14963
915.921	14933
916.034	14838
916.146	14746
916.259	14792
916.371	14773
916.483	14914
916.595	14663
916.708	14800
916.82	14648
916.932	14682
917.044	14556
917.156	14636
917.268	14499
917.38	14568
917.491	14503
917.603	14484
917.715	14655
917.826	14602
917.938	14431
918.049	14336
918.161	14499
918.272	14541
918.384	14533
918.495	14457
918.606	14336
918.717	14237
918.828	14240
918.939	14336
919.05	14199
919.161	14278
919.272	14073
919.383	14164
919.494	14233
919.604	14461
919.715	14259
919.826	14210
919.936	14164
920.047	14317
920.157	14248
920.267	14423
920.378	14290
920.488	14221
920.598	14370
920.708	14533
920.818	14438
920.928	14423
921.038	14492
921.148	14507
921.258	14210
921.368	14077
921.477	14039
921.587	13967
921.697	13871
921.806	14008
921.916	13776
922.025	13658
922.134	13632
922.244	13506
922.353	13651
922.462	13571
922.571	13487
922.68	13422
922.789	13327
922.898	13236
923.007	13259
923.116	13384
923.224	13236
923.333	13244
923.442	13129
923.55	13080
923.659	13164
923.767	13198
923.876	13027
923.984	13225
924.092	12993
924.201	13099
924.309	13012
924.417	12973
924.525	12985
924.633	13076
924.741	13875
924.849	12814
924.956	12840
925.064	12707
925.172	12734
925.279	12665
925.387	12840
925.494	12707
925.602	12852
925.709	12772
925.816	12620
925.924	12658
926.031	12829
926.138	12684
926.245	12700
926.352	12547
926.459	12757
926.566	12681
926.673	12540
926.779	12422
926.886	12456
926.993	12391
927.099	12323
927.206	12289
927.312	12136
927.419	12304
927.525	12273
927.631	12289
927.737	12163
927.843	12117
927.95	12038
928.056	12133
928.162	12136
928.267	12213
928.373	12642
928.479	12197
928.585	11980
928.69	12034
928.796	12076
928.901	11969
929.007	11863
929.112	12038
929.218	11908
929.323	11859
929.428	11794
929.533	11908
929.638	11745
929.743	11760
929.848	11786
929.953	11824
930.058	11615
930.163	11539
930.267	11543
930.372	11737
930.477	11581
930.581	11741
930.685	11619
930.79	11410
930.894	11455
930.998	11440
931.103	11520
931.207	11204
931.311	11178
931.415	11010
931.519	10828
931.623	10866
