Data from test_V78500241_3595.txt Node
Date: Fri Mar 25 15:34:53 CST 2022
User: usil
Spectrometer: V785-0024
Trigger mode: 0
Integration Time (sec): 4.000000E-1
Scans to average: 1
Nonlinearity correction enabled: false
Boxcar width: 0
Storing dark spectrum: false
XAxis mode: Wavelengths
Number of Pixels in Spectrum: 1024
>>>>>Begin Spectral Data<<<<<
801.071	27264
801.214	27241
801.356	27062
801.499	27032
801.641	26940
801.783	26933
801.926	26705
802.068	26826
802.211	26804
802.353	26845
802.496	26617
802.638	26476
802.78	26495
802.923	26415
803.065	26389
803.208	26484
803.35	26423
803.492	26617
803.635	26613
803.777	26594
803.919	26579
804.061	26842
804.204	26701
804.346	26602
804.488	26609
804.63	26598
804.773	26663
804.915	26651
805.057	26708
805.199	26587
805.341	26659
805.483	26765
805.626	26739
805.768	26693
805.91	26686
806.052	26811
806.194	26655
806.336	26982
806.478	26788
806.62	26815
806.762	26944
806.904	27074
807.046	27310
807.188	27241
807.33	27131
807.472	27188
807.614	27142
807.756	27203
807.898	26910
808.04	26956
808.182	26979
808.324	27024
808.465	27013
808.607	27218
808.749	27389
808.891	27447
809.033	27549
809.174	27302
809.316	27393
809.458	27245
809.6	27332
809.741	27477
809.883	27469
810.025	27603
810.166	27660
810.308	27473
810.45	27663
810.591	27629
810.733	27389
810.875	27321
811.016	27378
811.158	27378
811.299	27583
811.441	27378
811.582	27481
811.724	27336
811.865	27329
812.007	27302
812.148	27382
812.29	27485
812.431	27462
812.573	27671
812.714	27766
812.855	27994
812.997	27865
813.138	28185
813.279	27945
813.421	27838
813.562	27983
813.703	27728
813.845	27492
813.986	27287
814.127	27066
814.268	27146
814.41	27036
814.551	26960
814.692	27058
814.833	26845
814.974	26975
815.115	26956
815.256	26986
815.397	26815
815.539	27005
815.68	26899
815.821	26659
815.962	26857
816.103	26773
816.244	26727
816.385	26663
816.526	26469
816.666	26370
816.807	26317
816.948	26305
817.089	26415
817.23	26263
817.371	26183
817.512	26423
817.653	26191
817.793	26119
817.934	26267
818.075	26259
818.216	26305
818.356	26324
818.497	26187
818.638	26016
818.778	26012
818.919	26016
819.06	26012
819.2	26240
819.341	26168
819.481	26199
819.622	26400
819.762	26644
819.903	26629
820.043	26434
820.184	26480
820.324	26393
820.465	26514
820.605	26370
820.746	26309
820.886	26362
821.026	26366
821.167	26339
821.307	26427
821.447	26358
821.588	26202
821.728	25997
821.868	25921
822.008	25765
822.149	25708
822.289	25746
822.429	25377
822.569	25552
822.709	25540
822.849	25266
822.99	25118
823.13	25213
823.27	25263
823.41	25091
823.55	24916
823.69	25057
823.83	25225
823.97	25034
824.11	24878
824.25	24897
824.389	24867
824.529	24966
824.669	24909
824.809	24973
824.949	25042
825.089	24966
825.228	24810
825.368	24661
825.508	24700
825.648	24776
825.787	24738
825.927	24722
826.067	24711
826.206	24639
826.346	24772
826.485	24859
826.625	24673
826.765	24859
826.904	24776
827.044	24635
827.183	24544
827.323	24399
827.462	24441
827.601	24486
827.741	24350
827.88	24517
828.02	24323
828.159	24513
828.298	24467
828.437	24509
828.577	24399
828.716	24544
828.855	24391
828.994	24174
829.134	24258
829.273	24232
829.412	24273
829.551	24136
829.69	24095
829.829	24330
829.968	24247
830.107	24281
830.246	24289
830.385	24079
830.524	24129
830.663	24034
830.802	23958
830.941	23912
831.08	23802
831.219	23859
831.357	23851
831.496	24114
831.635	23786
831.774	23764
831.913	23608
832.051	23634
832.19	23524
832.329	23703
832.467	23467
832.606	23296
832.744	23448
832.883	23406
833.022	23585
833.16	23478
833.299	23421
833.437	23551
833.576	23589
833.714	23531
833.852	23596
833.991	23699
834.129	23646
834.267	23608
834.406	23516
834.544	23680
834.682	23535
834.821	23512
834.959	23714
835.097	23433
835.235	23611
835.373	23554
835.511	23551
835.65	23368
835.788	23402
835.926	23307
836.064	23162
836.202	23376
836.34	23406
836.478	23448
836.615	23467
836.753	23345
836.891	23471
837.029	23596
837.167	23372
837.305	23326
837.443	23284
837.58	23166
837.718	23364
837.856	23231
837.993	23220
838.131	23273
838.269	23083
838.406	23102
838.544	23083
838.681	22980
838.819	22904
838.956	22824
839.094	22828
839.231	22740
839.369	22919
839.506	23128
839.643	23048
839.781	22694
839.918	22645
840.055	22729
840.193	22660
840.33	22653
840.467	22626
840.604	22615
840.742	22949
840.879	22637
841.016	22603
841.153	22527
841.29	22755
841.427	22641
841.564	22634
841.701	22793
841.838	22626
841.975	22538
842.112	22611
842.249	22462
842.385	22569
842.522	22759
842.659	22588
842.796	22519
842.933	22280
843.069	22440
843.206	22234
843.343	22516
843.479	22417
843.616	22424
843.752	22234
843.889	22303
844.025	22421
844.162	22147
844.298	22402
844.435	22219
844.571	22120
844.708	22253
844.844	22398
844.98	22306
845.117	22238
845.253	22150
845.389	22147
845.525	22109
845.661	22067
845.798	21934
845.934	22150
846.07	21884
846.206	21991
846.342	21998
846.478	21907
846.614	21705
846.75	21622
846.886	21770
847.022	21694
847.158	21728
847.294	21644
847.429	21732
847.565	21698
847.701	21991
847.837	21401
847.972	21389
848.108	21644
848.244	21534
848.379	21302
848.515	21184
848.65	21348
848.786	21336
848.921	21203
849.057	21458
849.192	21332
849.328	21359
849.463	21256
849.598	21298
849.734	21176
849.869	21119
850.004	21104
850.14	21142
850.275	21157
850.41	21051
850.545	20910
850.68	20998
850.815	21013
850.95	21020
851.085	21302
851.22	21169
851.355	21005
851.49	21020
851.625	21024
851.76	21077
851.895	20933
852.03	20960
852.165	20990
852.299	21203
852.434	21188
852.569	21108
852.703	21013
852.838	21036
852.973	21222
853.107	21230
853.242	20960
853.376	20781
853.511	20758
853.645	20762
853.78	21005
853.914	20868
854.048	20891
854.183	20777
854.317	20861
854.451	21013
854.585	20838
854.72	20880
854.854	20891
854.988	20762
855.122	20777
855.256	20773
855.39	20937
855.524	20861
855.658	20925
855.792	20834
855.926	20792
856.06	20902
856.194	21119
856.327	20800
856.461	20807
856.595	20781
856.729	20861
856.862	20963
856.996	20864
857.13	20925
857.263	20994
857.397	20872
857.53	20819
857.664	20967
857.797	20941
857.931	20941
858.064	20788
858.197	20994
858.331	20765
858.464	20826
858.597	20769
858.731	20883
858.864	20868
858.997	20842
859.13	20853
859.263	20910
859.396	20929
859.529	20796
859.662	20864
859.795	20921
859.928	20975
860.061	21043
860.194	21051
860.327	20925
860.46	20731
860.592	21058
860.725	20982
860.858	20971
860.99	20921
861.123	20849
861.256	20883
861.388	20906
861.521	21663
861.653	20693
861.786	20697
861.918	20720
862.05	20845
862.183	20769
862.315	20788
862.447	20891
862.58	20838
862.712	20602
862.844	20587
862.976	20743
863.108	20629
863.24	20944
863.372	20427
863.504	20564
863.636	20686
863.768	20560
863.9	20788
864.032	20587
864.164	20465
864.296	20545
864.428	20720
864.559	20644
864.691	20644
864.823	20598
864.954	20522
865.086	20590
865.217	20450
865.349	20438
865.48	20541
865.612	20499
865.743	20579
865.875	20450
866.006	20423
866.137	20587
866.269	20484
866.4	20415
866.531	20393
866.662	20450
866.793	20499
866.924	20427
867.055	20469
867.186	20495
867.317	20450
867.448	20332
867.579	20469
867.71	20351
867.841	20336
867.972	20358
868.103	20415
868.233	20507
868.364	20450
868.495	20446
868.625	20689
868.756	20712
868.886	20689
869.017	20632
869.147	20823
869.278	20746
869.408	20655
869.539	20655
869.669	20693
869.799	20743
869.929	20800
870.06	20823
870.19	21127
870.32	20986
870.45	21024
870.58	21089
870.71	21138
870.84	21173
870.97	21055
871.1	21169
871.23	21268
871.36	21203
871.489	21245
871.619	21188
871.749	21321
871.879	21416
872.008	21439
872.138	21291
872.267	21302
872.397	21218
872.526	21058
872.656	21222
872.785	21127
872.915	21245
873.044	21435
873.173	21256
873.303	21355
873.432	21359
873.561	21408
873.69	21325
873.819	21252
873.948	21374
874.077	21268
874.206	21169
874.335	21313
874.464	21435
874.593	21553
874.722	21641
874.851	21663
874.979	21481
875.108	21698
875.237	21504
875.365	21447
875.494	21545
875.623	21580
875.751	21500
875.88	21564
876.008	21705
876.136	21747
876.265	21812
876.393	22029
876.521	22086
876.65	22112
876.778	21899
876.906	22055
877.034	21934
877.162	21979
877.29	21850
877.418	21945
877.546	21915
877.674	21876
877.802	21888
877.93	21812
878.058	21755
878.185	21785
878.313	21861
878.441	21800
878.568	21705
878.696	21736
878.824	21956
878.951	21922
879.079	22135
879.206	22207
879.333	22090
879.461	21903
879.588	21987
879.715	22048
879.842	22234
879.97	22048
880.097	21895
880.224	21778
880.351	21747
880.478	21743
880.605	21625
880.732	21751
880.859	21937
880.986	21701
881.112	21736
881.239	21572
881.366	21538
881.493	21431
881.619	21298
881.746	21393
881.872	21291
881.999	21279
882.125	21241
882.252	21313
882.378	21176
882.505	21348
882.631	21100
882.757	21043
882.883	21055
883.01	21100
883.136	20895
883.262	20902
883.388	20933
883.514	20975
883.64	21009
883.766	20944
883.892	20868
884.018	20796
884.143	21017
884.269	20998
884.395	20708
884.52	20575
884.646	20689
884.772	20480
884.897	20511
885.023	20678
885.148	20868
885.274	20853
885.399	20876
885.524	20609
885.65	20720
885.775	20663
885.9	20602
886.025	20788
886.15	20861
886.275	20564
886.4	20579
886.525	20606
886.65	20670
886.775	20705
886.9	20804
887.025	20758
887.149	20648
887.274	20476
887.399	20313
887.523	20423
887.648	20374
887.773	20358
887.897	20427
888.021	20366
888.146	20317
888.27	20473
888.395	20560
888.519	20438
888.643	20492
888.767	20434
888.891	20362
889.015	20256
889.139	20278
889.263	20244
889.387	20320
889.511	20438
889.635	20298
889.759	20172
889.883	20263
890.006	20271
890.13	20282
890.254	20168
890.377	20161
890.501	19921
890.624	19864
890.748	20039
890.871	19955
890.995	19772
891.118	19670
891.241	19833
891.364	19849
891.488	19864
891.611	19830
891.734	19803
891.857	19837
891.98	19776
892.103	19811
892.226	19803
892.349	19693
892.471	19533
892.594	19677
892.717	19753
892.839	19742
892.962	19830
893.085	19864
893.207	19662
893.33	19696
893.452	19590
893.575	19727
893.697	19556
893.819	19955
893.941	19928
894.064	19845
894.186	19689
894.308	19582
894.43	19879
894.552	19803
894.674	19837
894.796	19582
894.918	19658
895.04	19609
895.161	19776
895.283	19746
895.405	19670
895.526	19776
895.648	19578
895.769	19704
895.891	19715
896.012	19757
896.134	19791
896.255	19746
896.376	19807
896.498	19647
896.619	19742
896.74	19700
896.861	19772
896.982	20024
897.103	20176
897.224	20046
897.345	19970
897.466	19963
897.587	19875
897.708	20065
897.828	20035
897.949	19898
898.07	19830
898.19	19883
898.311	20035
898.431	19955
898.552	19967
898.672	20039
898.792	20115
898.913	19978
899.033	19871
899.153	19734
899.273	19708
899.393	19772
899.513	19727
899.633	19647
899.753	19772
899.873	19643
899.993	19791
900.113	19670
900.232	19647
900.352	19613
900.472	19514
900.591	19491
900.711	19540
900.83	19426
900.95	19616
901.069	19616
901.189	19373
901.308	19088
901.427	19050
901.546	19046
901.665	19019
901.784	19080
901.904	18863
902.023	18852
902.141	18715
902.26	18547
902.379	18650
902.498	18536
902.617	18506
902.735	18688
902.854	18551
902.973	18559
903.091	18235
903.21	18258
903.328	18197
903.446	18163
903.565	18034
903.683	18174
903.801	17897
903.919	18098
904.038	17999
904.156	17813
904.274	17958
904.392	17882
904.51	17870
904.627	17832
904.745	17901
904.863	17843
904.981	17627
905.098	17467
905.216	17516
905.334	17512
905.451	17577
905.569	17463
905.686	17573
905.803	17463
905.921	17315
906.038	17402
906.155	17345
906.272	17181
906.389	17155
906.506	17159
906.623	17105
906.74	17048
906.857	16949
906.974	16942
907.091	17056
907.208	17277
907.324	17113
907.441	16972
907.557	16854
907.674	16774
907.79	16698
907.907	16694
908.023	16790
908.139	16710
908.256	16634
908.372	16653
908.488	16641
908.604	16493
908.72	16497
908.836	16523
908.952	16443
909.068	16500
909.184	16577
909.3	16527
909.415	16527
909.531	16481
909.647	16272
909.762	16253
909.878	16196
909.993	16158
910.108	16204
910.224	16143
910.339	16105
910.454	16101
910.57	16029
910.685	15949
910.8	16284
910.915	16131
911.03	15895
911.145	15850
911.259	15743
911.374	15686
911.489	15728
911.604	15652
911.718	15587
911.833	15675
911.947	15439
912.062	15344
912.176	15584
912.291	15652
912.405	15614
912.519	15732
912.633	15892
912.748	15652
912.862	15530
912.976	15454
913.09	15230
913.204	15382
913.318	15431
913.431	15530
913.545	15538
913.659	15481
913.772	15359
913.886	15252
914	15154
914.113	15275
914.226	15241
914.34	15218
914.453	15028
914.566	15112
914.68	15097
914.793	14982
914.906	14864
915.019	14800
915.132	14765
915.245	14819
915.358	14720
915.47	14845
915.583	14880
915.696	14811
915.809	14868
915.921	14842
916.034	14800
916.146	14693
916.259	14689
916.371	14754
916.483	14693
916.595	14648
916.708	14659
916.82	14667
916.932	14590
917.044	14575
917.156	14522
917.268	14473
917.38	14454
917.491	14457
917.603	14530
917.715	14560
917.826	14560
917.938	14313
918.049	14347
918.161	14415
918.272	14560
918.384	14598
918.495	14434
918.606	14244
918.717	14130
918.828	14248
918.939	14221
919.05	14153
919.161	14199
919.272	14058
919.383	14069
919.494	14237
919.604	14362
919.715	14313
919.826	14062
919.936	14164
920.047	14256
920.157	14123
920.267	14362
920.378	14237
920.488	14157
920.598	14488
920.708	14594
920.818	14317
920.928	14427
921.038	14495
921.148	14522
921.258	14107
921.368	14126
921.477	13887
921.587	13936
921.697	13822
921.806	13982
921.916	13795
922.025	13681
922.134	13586
922.244	13506
922.353	13590
922.462	13491
922.571	13422
922.68	13335
922.789	13247
922.898	13301
923.007	13126
923.116	13232
923.224	13149
923.333	13149
923.442	13110
923.55	13046
923.659	13050
923.767	13194
923.876	12943
923.984	13187
924.092	12970
924.201	13004
924.309	12947
924.417	12954
924.525	12901
924.633	12981
924.741	13807
924.849	12715
924.956	12871
925.064	12798
925.172	12631
925.279	12623
925.387	12692
925.494	12669
925.602	12753
925.709	12696
925.816	12506
925.924	12547
926.031	12665
926.138	12631
926.245	12601
926.352	12601
926.459	12654
926.566	12684
926.673	12532
926.779	12426
926.886	12506
926.993	12323
927.099	12258
927.206	12254
927.312	12140
927.419	12300
927.525	12258
927.631	12220
927.737	12129
927.843	12060
927.95	12087
928.056	12057
928.162	12057
928.267	12148
928.373	12525
928.479	12155
928.585	11942
928.69	12003
928.796	12068
928.901	11882
929.007	11859
929.112	11958
929.218	11889
929.323	11843
929.428	11859
929.533	11901
929.638	11718
929.743	11733
929.848	11813
929.953	11729
930.058	11684
930.163	11512
930.267	11570
930.372	11691
930.477	11474
930.581	11676
930.685	11619
930.79	11330
930.894	11379
930.998	11414
931.103	11497
931.207	11113
931.311	11094
931.415	10995
931.519	10835
931.623	10793
