Data from test_V78500241_1399.txt Node
Date: Fri Mar 25 15:19:35 CST 2022
User: usil
Spectrometer: V785-0024
Trigger mode: 0
Integration Time (sec): 4.000000E-1
Scans to average: 1
Nonlinearity correction enabled: false
Boxcar width: 0
Storing dark spectrum: false
XAxis mode: Wavelengths
Number of Pixels in Spectrum: 1024
>>>>>Begin Spectral Data<<<<<
801.071	28322
801.214	28139
801.356	27842
801.499	27797
801.641	27880
801.783	27865
801.926	27835
802.068	27709
802.211	27610
802.353	27698
802.496	27450
802.638	27374
802.78	27447
802.923	27435
803.065	27298
803.208	27317
803.35	27603
803.492	27492
803.635	27580
803.777	27583
803.919	27622
804.061	27953
804.204	27762
804.346	27622
804.488	27466
804.63	27580
804.773	27458
804.915	27591
805.057	27804
805.199	27656
805.341	27660
805.483	27671
805.626	27732
805.768	27698
805.91	27694
806.052	27743
806.194	27755
806.336	28044
806.478	27941
806.62	27793
806.762	27949
806.904	28013
807.046	28284
807.188	28261
807.33	28204
807.472	28188
807.614	28139
807.756	28074
807.898	27998
808.04	28120
808.182	28044
808.324	28006
808.465	28154
808.607	28306
808.749	28451
808.891	28607
809.033	28672
809.174	28500
809.316	28455
809.458	28356
809.6	28413
809.741	28523
809.883	28493
810.025	28618
810.166	28664
810.308	28748
810.45	28603
810.591	28569
810.733	28512
810.875	28428
811.016	28417
811.158	28394
811.299	28512
811.441	28455
811.582	28603
811.724	28516
811.865	28379
812.007	28363
812.148	28527
812.29	28512
812.431	28603
812.573	28710
812.714	28839
812.855	28987
812.997	29010
813.138	29170
813.279	29090
813.421	28984
813.562	28949
813.703	28740
813.845	28687
813.986	28512
814.127	28314
814.268	28086
814.41	28116
814.551	28139
814.692	28173
814.833	28105
814.974	28207
815.115	28112
815.256	28070
815.397	28067
815.539	28135
815.68	27979
815.821	27804
815.962	27987
816.103	27918
816.244	27739
816.385	27736
816.526	27652
816.666	27526
816.807	27576
816.948	27580
817.089	27462
817.23	27447
817.371	27401
817.512	27587
817.653	27534
817.793	27401
817.934	27580
818.075	27427
818.216	27367
818.356	27351
818.497	27340
818.638	26971
818.778	27161
818.919	27211
819.06	27176
819.2	27359
819.341	27462
819.481	27507
819.622	27625
819.762	27816
819.903	27724
820.043	27648
820.184	27644
820.324	27507
820.465	27553
820.605	27549
820.746	27511
820.886	27530
821.026	27439
821.167	27473
821.307	27553
821.447	27610
821.588	27359
821.728	27245
821.868	27077
822.008	26975
822.149	26811
822.289	26876
822.429	26689
822.569	26579
822.709	26640
822.849	26560
822.99	26457
823.13	26404
823.27	26309
823.41	26328
823.55	26100
823.69	26149
823.83	26366
823.97	26214
824.11	26058
824.25	26084
824.389	26077
824.529	26020
824.669	26001
824.809	26202
824.949	26092
825.089	26191
825.228	26176
825.368	25868
825.508	25947
825.648	25932
825.787	25871
825.927	25894
826.067	25887
826.206	25791
826.346	26062
826.485	26005
826.625	25989
826.765	26031
826.904	26031
827.044	25567
827.183	25666
827.323	25605
827.462	25689
827.601	25799
827.741	25651
827.88	25704
828.02	25388
828.159	25597
828.298	25525
828.437	25712
828.577	25567
828.716	25681
828.855	25533
828.994	25377
829.134	25434
829.273	25457
829.412	25373
829.551	25293
829.69	25377
829.829	25381
829.968	25430
830.107	25430
830.246	25308
830.385	25346
830.524	25213
830.663	25164
830.802	25103
830.941	24852
831.08	24844
831.219	24989
831.357	25034
831.496	25088
831.635	24878
831.774	24833
831.913	24738
832.051	24829
832.19	24700
832.329	24616
832.467	24570
832.606	24597
832.744	24604
832.883	24502
833.022	24563
833.16	24620
833.299	24642
833.437	24574
833.576	24696
833.714	24688
833.852	24825
833.991	24738
834.129	24726
834.267	24817
834.406	24745
834.544	24692
834.682	24650
834.821	24776
834.959	24757
835.097	24650
835.235	24616
835.373	24642
835.511	24544
835.65	24517
835.788	24528
835.926	24429
836.064	24414
836.202	24353
836.34	24483
836.478	24574
836.615	24426
836.753	24593
836.891	24585
837.029	24441
837.167	24395
837.305	24391
837.443	24376
837.58	24304
837.718	24532
837.856	24289
837.993	24140
838.131	24334
838.269	24201
838.406	24262
838.544	24121
838.681	23992
838.819	23954
838.956	23912
839.094	23882
839.231	23904
839.369	24007
839.506	24235
839.643	24049
839.781	23760
839.918	23707
840.055	23916
840.193	23821
840.33	23836
840.467	23760
840.604	23817
840.742	23950
840.879	23611
841.016	23733
841.153	23661
841.29	23665
841.427	23668
841.564	23748
841.701	23714
841.838	23649
841.975	23642
842.112	23676
842.249	23570
842.385	23535
842.522	23733
842.659	23539
842.796	23448
842.933	23459
843.069	23376
843.206	23467
843.343	23448
843.479	23334
843.616	23452
843.752	23227
843.889	23170
844.025	23414
844.162	23227
844.298	23376
844.435	23311
844.571	23383
844.708	23353
844.844	23474
844.98	23391
845.117	23372
845.253	23185
845.389	23067
845.525	23121
845.661	22896
845.798	23025
845.934	23006
846.07	22938
846.206	22915
846.342	23071
846.478	22957
846.614	22824
846.75	22679
846.886	22615
847.022	22809
847.158	22729
847.294	22649
847.429	22778
847.565	22713
847.701	22866
847.837	22398
847.972	22360
848.108	22527
848.244	22443
848.379	22390
848.515	22230
848.65	22325
848.786	22310
848.921	22333
849.057	22303
849.192	22474
849.328	22360
849.463	22291
849.598	22287
849.734	22196
849.869	22352
850.004	21960
850.14	22112
850.275	22090
850.41	21998
850.545	21964
850.68	21968
850.815	22063
850.95	21987
851.085	22226
851.22	22154
851.355	21987
851.49	21972
851.625	21994
851.76	21850
851.895	22006
852.03	21880
852.165	21994
852.299	22017
852.434	22226
852.569	22207
852.703	22082
852.838	22093
852.973	22150
853.107	22162
853.242	22002
853.376	21918
853.511	21705
853.645	21835
853.78	21903
853.914	21838
854.048	21797
854.183	21785
854.317	21865
854.451	21972
854.585	21739
854.72	21766
854.854	21873
854.988	21766
855.122	21888
855.256	21751
855.39	21857
855.524	21941
855.658	21941
855.792	21888
855.926	21884
856.06	21892
856.194	22032
856.327	21915
856.461	21831
856.595	21675
856.729	21797
856.862	21876
856.996	21876
857.13	21926
857.263	21876
857.397	21911
857.53	21819
857.664	21865
857.797	22006
857.931	21850
858.064	21789
858.197	21945
858.331	21675
858.464	21785
858.597	21774
858.731	21911
858.864	21842
858.997	21800
859.13	21880
859.263	21762
859.396	21983
859.529	21819
859.662	21846
859.795	21838
859.928	21800
860.061	21945
860.194	22010
860.327	22002
860.46	21800
860.592	21964
860.725	21983
860.858	21975
860.99	21808
861.123	21736
861.256	21880
861.388	21831
861.521	22451
861.653	21682
861.786	21641
861.918	21637
862.05	21728
862.183	21812
862.315	21743
862.447	21766
862.58	21804
862.712	21545
862.844	21656
862.976	21648
863.108	21705
863.24	21949
863.372	21614
863.504	21504
863.636	21515
863.768	21572
863.9	21458
864.032	21382
864.164	21492
864.296	21542
864.428	21682
864.559	21553
864.691	21641
864.823	21485
864.954	21561
865.086	21580
865.217	21435
865.349	21382
865.48	21332
865.612	21511
865.743	21481
865.875	21367
866.006	21405
866.137	21428
866.269	21435
866.4	21336
866.531	21332
866.662	21405
866.793	21408
866.924	21458
867.055	21386
867.186	21420
867.317	21279
867.448	21272
867.579	21374
867.71	21348
867.841	21287
867.972	21416
868.103	21275
868.233	21481
868.364	21401
868.495	21393
868.625	21629
868.756	21743
868.886	21462
869.017	21523
869.147	21679
869.278	21743
869.408	21568
869.539	21599
869.669	21728
869.799	21705
869.929	21774
870.06	21705
870.19	21941
870.32	21964
870.45	21884
870.58	22013
870.71	22143
870.84	22048
870.97	21941
871.1	21979
871.23	22166
871.36	22261
871.489	22078
871.619	22154
871.749	22318
871.879	22257
872.008	22417
872.138	22105
872.267	22211
872.397	22112
872.526	22032
872.656	22131
872.785	22036
872.915	22238
873.044	22405
873.173	22295
873.303	22367
873.432	22276
873.561	22337
873.69	22310
873.819	22226
873.948	22268
874.077	22204
874.206	22112
874.335	22223
874.464	22299
874.593	22390
874.722	22455
874.851	22500
874.979	22413
875.108	22504
875.237	22375
875.365	22291
875.494	22421
875.623	22569
875.751	22402
875.88	22428
876.008	22592
876.136	22611
876.265	22816
876.393	23094
876.521	22824
876.65	22957
876.778	22957
876.906	22786
877.034	22786
877.162	22782
877.29	22641
877.418	22729
877.546	22774
877.674	22866
877.802	22839
877.93	22820
878.058	22733
878.185	22717
878.313	22679
878.441	22744
878.568	22523
878.696	22752
878.824	22797
878.951	22778
879.079	22889
879.206	23052
879.333	22965
879.461	22801
879.588	22774
879.715	22946
879.842	23037
879.97	22797
880.097	22592
880.224	22577
880.351	22637
880.478	22672
880.605	22584
880.732	22634
880.859	22782
880.986	22656
881.112	22755
881.239	22569
881.366	22295
881.493	22230
881.619	22086
881.746	22207
881.872	22207
881.999	22025
882.125	22143
882.252	22169
882.378	22143
882.505	22234
882.631	21941
882.757	21926
882.883	22029
883.01	21857
883.136	21701
883.262	21747
883.388	21701
883.514	21789
883.64	21816
883.766	21808
883.892	21603
884.018	21641
884.143	21816
884.269	21827
884.395	21534
884.52	21355
884.646	21534
884.772	21466
884.897	21424
885.023	21561
885.148	21637
885.274	21720
885.399	21580
885.524	21519
885.65	21496
885.775	21557
885.9	21435
886.025	21679
886.15	21530
886.275	21321
886.4	21393
886.525	21359
886.65	21382
886.775	21321
886.9	21511
887.025	21694
887.149	21519
887.274	21321
887.399	21367
887.523	21283
887.648	21161
887.773	21321
887.897	21264
888.021	21302
888.146	21302
888.27	21260
888.395	21329
888.519	21287
888.643	21416
888.767	21359
888.891	21154
889.015	21161
889.139	21131
889.263	21039
889.387	21230
889.511	21272
889.635	21218
889.759	21081
889.883	21070
890.006	21096
890.13	21207
890.254	21096
890.377	21051
890.501	20891
890.624	20800
890.748	20777
890.871	20712
890.995	20621
891.118	20568
891.241	20636
891.364	20594
891.488	20758
891.611	20579
891.734	20632
891.857	20590
891.98	20667
892.103	20739
892.226	20651
892.349	20621
892.471	20415
892.594	20564
892.717	20556
892.839	20446
892.962	20621
893.085	20617
893.207	20579
893.33	20484
893.452	20442
893.575	20579
893.697	20499
893.819	20682
893.941	20594
894.064	20705
894.186	20533
894.308	20389
894.43	20769
894.552	20598
894.674	20617
894.796	20408
894.918	20454
895.04	20476
895.161	20511
895.283	20587
895.405	20393
895.526	20640
895.648	20484
895.769	20568
895.891	20522
896.012	20602
896.134	20484
896.255	20454
896.376	20457
896.498	20465
896.619	20545
896.74	20492
896.861	20545
896.982	20872
897.103	20960
897.224	20712
897.345	20686
897.466	20762
897.587	20750
897.708	20861
897.828	20701
897.949	20708
898.07	20465
898.19	20712
898.311	20769
898.431	20720
898.552	20743
898.672	20838
898.792	20765
898.913	20785
899.033	20571
899.153	20583
899.273	20419
899.393	20495
899.513	20476
899.633	20450
899.753	20431
899.873	20358
899.993	20499
900.113	20473
900.232	20484
900.352	20324
900.472	20450
900.591	20214
900.711	20298
900.83	20142
900.95	20256
901.069	20454
901.189	20058
901.308	19902
901.427	19921
901.546	19845
901.665	19830
901.784	19830
901.904	19655
902.023	19628
902.141	19434
902.26	19419
902.379	19438
902.498	19392
902.617	19449
902.735	19438
902.854	19377
902.973	19209
903.091	18962
903.21	18958
903.328	19129
903.446	18932
903.565	18783
903.683	18890
903.801	18741
903.919	18703
904.038	18692
904.156	18593
904.274	18635
904.392	18448
904.51	18585
904.627	18559
904.745	18665
904.863	18749
904.981	18338
905.098	18174
905.216	18262
905.334	18251
905.451	18247
905.569	18251
905.686	18346
905.803	18270
905.921	18060
906.038	18083
906.155	17912
906.272	17920
906.389	17912
906.506	17729
906.623	17680
906.74	17680
906.857	17604
906.974	17668
907.091	17809
907.208	17916
907.324	17798
907.441	17634
907.557	17562
907.674	17486
907.79	17425
907.907	17490
908.023	17482
908.139	17551
908.256	17379
908.372	17311
908.488	17307
908.604	17296
908.72	17105
908.836	17254
908.952	17185
909.068	17216
909.184	17242
909.3	17170
909.415	17242
909.531	17143
909.647	16828
909.762	16885
909.878	16877
909.993	16869
910.108	16820
910.224	16850
910.339	16866
910.454	16790
910.57	16725
910.685	16771
910.8	16927
910.915	16816
911.03	16736
911.145	16626
911.259	16466
911.374	16478
911.489	16443
911.604	16451
911.718	16268
911.833	16215
911.947	16048
912.062	16006
912.176	16188
912.291	16234
912.405	16261
912.519	16417
912.633	16405
912.748	16299
912.862	16173
912.976	16006
913.09	15895
913.204	15964
913.318	16082
913.431	16131
913.545	16173
913.659	16082
913.772	15953
913.886	15857
914	15789
914.113	15846
914.226	15979
914.34	15842
914.453	15713
914.566	15857
914.68	15743
914.793	15564
914.906	15557
915.019	15477
915.132	15477
915.245	15435
915.358	15462
915.47	15389
915.583	15431
915.696	15507
915.809	15443
915.921	15526
916.034	15359
916.146	15355
916.259	15370
916.371	15492
916.483	15424
916.595	15199
916.708	15260
916.82	15245
916.932	15195
917.044	15233
917.156	15268
917.268	15074
917.38	15123
917.491	15043
917.603	15180
917.715	15165
917.826	15226
917.938	15020
918.049	14944
918.161	14982
918.272	15150
918.384	15051
918.495	14982
918.606	14944
918.717	14830
918.828	14902
918.939	14864
919.05	14708
919.161	14708
919.272	14590
919.383	14655
919.494	14872
919.604	14910
919.715	14773
919.826	14663
919.936	14788
920.047	14880
920.157	14864
920.267	14933
920.378	14842
920.488	14785
920.598	14975
920.708	15020
920.818	14937
920.928	14914
921.038	15009
921.148	15039
921.258	14743
921.368	14667
921.477	14530
921.587	14476
921.697	14339
921.806	14522
921.916	14374
922.025	14206
922.134	14210
922.244	14073
922.353	14229
922.462	14096
922.571	14020
922.68	13795
922.789	13803
922.898	13750
923.007	13784
923.116	13917
923.224	13898
923.333	13693
923.442	13605
923.55	13670
923.659	13681
923.767	13826
923.876	13601
923.984	13632
924.092	13445
924.201	13670
924.309	13571
924.417	13544
924.525	13396
924.633	13537
924.741	14256
924.849	13206
924.956	13476
925.064	13232
925.172	13213
925.279	13209
925.387	13282
925.494	13217
925.602	13297
925.709	13221
925.816	13050
925.924	13107
926.031	13251
926.138	13244
926.245	13088
926.352	13027
926.459	13213
926.566	13183
926.673	12973
926.779	13015
926.886	12920
926.993	12859
927.099	12787
927.206	12711
927.312	12646
927.419	12703
927.525	12703
927.631	12673
927.737	12719
927.843	12559
927.95	12502
928.056	12555
928.162	12597
928.267	12654
928.373	13232
928.479	12608
928.585	12452
928.69	12498
928.796	12521
928.901	12407
929.007	12334
929.112	12456
929.218	12323
929.323	12292
929.428	12357
929.533	12426
929.638	12209
929.743	12110
929.848	12216
929.953	12133
930.058	12121
930.163	11927
930.267	12076
930.372	12186
930.477	11809
930.581	12228
930.685	12022
930.79	11752
930.894	11874
930.998	11859
931.103	11866
931.207	11528
931.311	11448
931.415	11463
931.519	11315
931.623	11315
