Data from test_V78500241_623.txt Node
Date: Fri Mar 25 15:14:11 CST 2022
User: usil
Spectrometer: V785-0024
Trigger mode: 0
Integration Time (sec): 4.000000E-1
Scans to average: 1
Nonlinearity correction enabled: false
Boxcar width: 0
Storing dark spectrum: false
XAxis mode: Wavelengths
Number of Pixels in Spectrum: 1024
>>>>>Begin Spectral Data<<<<<
801.071	27709
801.214	27713
801.356	27462
801.499	27488
801.641	27424
801.783	27260
801.926	27397
802.068	27237
802.211	27218
802.353	27138
802.496	26998
802.638	27077
802.78	27081
802.923	26963
803.065	26857
803.208	26933
803.35	27017
803.492	27005
803.635	27077
803.777	26994
803.919	27066
804.061	27344
804.204	27108
804.346	26891
804.488	27104
804.63	27104
804.773	26883
804.915	27013
805.057	27127
805.199	27062
805.341	27325
805.483	27173
805.626	27211
805.768	27131
805.91	27104
806.052	27192
806.194	27233
806.336	27447
806.478	27192
806.62	27256
806.762	27340
806.904	27526
807.046	27838
807.188	27690
807.33	27675
807.472	27625
807.614	27743
807.756	27572
807.898	27500
808.04	27488
808.182	27496
808.324	27553
808.465	27485
808.607	27576
808.749	27972
808.891	27926
809.033	27880
809.174	27934
809.316	27979
809.458	27937
809.6	27884
809.741	27953
809.883	28070
810.025	28181
810.166	28246
810.308	28147
810.45	27975
810.591	28040
810.733	27968
810.875	27968
811.016	27831
811.158	27679
811.299	28036
811.441	28147
811.582	28029
811.724	27873
811.865	27842
812.007	27835
812.148	27838
812.29	27956
812.431	27930
812.573	28253
812.714	28325
812.855	28493
812.997	28649
813.138	28637
813.279	28607
813.421	28493
813.562	28580
813.703	28287
813.845	28166
813.986	27956
814.127	27625
814.268	27538
814.41	27728
814.551	27591
814.692	27561
814.833	27420
814.974	27481
815.115	27675
815.256	27355
815.397	27427
815.539	27595
815.68	27496
815.821	27325
815.962	27431
816.103	27412
816.244	27252
816.385	27150
816.526	27184
816.666	26910
816.807	26891
816.948	26842
817.089	27070
817.23	26838
817.371	26963
817.512	26937
817.653	26842
817.793	26864
817.934	26800
818.075	26842
818.216	26777
818.356	26887
818.497	26720
818.638	26621
818.778	26511
818.919	26648
819.06	26796
819.2	26769
819.341	26918
819.481	26807
819.622	26982
819.762	27203
819.903	27176
820.043	27047
820.184	27138
820.324	26910
820.465	27112
820.605	26960
820.746	26883
820.886	26864
821.026	26902
821.167	26906
821.307	27165
821.447	26823
821.588	26800
821.728	26571
821.868	26533
822.008	26358
822.149	26381
822.289	26267
822.429	26084
822.569	25966
822.709	26005
822.849	25925
822.99	25849
823.13	25845
823.27	25715
823.41	25658
823.55	25411
823.69	25727
823.83	25502
823.97	25601
824.11	25377
824.25	25571
824.389	25533
824.529	25518
824.669	25590
824.809	25594
824.949	25468
825.089	25575
825.228	25597
825.368	25324
825.508	25343
825.648	25403
825.787	25426
825.927	25567
826.067	25320
826.206	25316
826.346	25327
826.485	25419
826.625	25255
826.765	25384
826.904	25479
827.044	25202
827.183	24989
827.323	25091
827.462	25057
827.601	25148
827.741	25023
827.88	25065
828.02	24920
828.159	25046
828.298	25091
828.437	25038
828.577	25019
828.716	25187
828.855	24985
828.994	24863
829.134	24760
829.273	24875
829.412	24753
829.551	24726
829.69	24875
829.829	24722
829.968	24829
830.107	24654
830.246	24817
830.385	24760
830.524	24544
830.663	24509
830.802	24292
830.941	24311
831.08	24467
831.219	24509
831.357	24582
831.496	24612
831.635	24388
831.774	24258
831.913	24254
832.051	24209
832.19	24053
832.329	24178
832.467	24144
832.606	24057
832.744	24015
832.883	24034
833.022	24018
833.16	24087
833.299	24117
833.437	24045
833.576	24194
833.714	24174
833.852	24178
833.991	24095
834.129	24277
834.267	24201
834.406	24258
834.544	24114
834.682	24079
834.821	24171
834.959	24273
835.097	24106
835.235	24098
835.373	24152
835.511	24110
835.65	24011
835.788	24022
835.926	23851
836.064	23779
836.202	23843
836.34	23916
836.478	24007
836.615	23958
836.753	23927
836.891	23984
837.029	23931
837.167	23977
837.305	23771
837.443	23832
837.58	23714
837.718	23874
837.856	23783
837.993	23756
838.131	23771
838.269	23611
838.406	23786
838.544	23611
838.681	23459
838.819	23360
838.956	23208
839.094	23395
839.231	23273
839.369	23558
839.506	23657
839.643	23573
839.781	23223
839.918	23174
840.055	23356
840.193	23353
840.33	23143
840.467	23239
840.604	23334
840.742	23444
840.879	23056
841.016	23018
841.153	23105
841.29	23170
841.427	23216
841.564	23231
841.701	23227
841.838	23223
841.975	23014
842.112	23064
842.249	22968
842.385	22877
842.522	23083
842.659	22946
842.796	22957
842.933	23041
843.069	22999
843.206	22961
843.343	23006
843.479	22915
843.616	22949
843.752	22767
843.889	22786
844.025	22839
844.162	22683
844.298	22801
844.435	22691
844.571	22664
844.708	22717
844.844	22908
844.98	22687
845.117	22828
845.253	22683
845.389	22527
845.525	22596
845.661	22565
845.798	22542
845.934	22554
846.07	22523
846.206	22573
846.342	22592
846.478	22497
846.614	22325
846.75	22215
846.886	22200
847.022	22112
847.158	22158
847.294	22246
847.429	22200
847.565	22207
847.701	22405
847.837	22112
847.972	22006
848.108	21941
848.244	21991
848.379	21937
848.515	21835
848.65	21713
848.786	21800
848.921	21755
849.057	21903
849.192	21876
849.328	21789
849.463	21865
849.598	21644
849.734	21690
849.869	21622
850.004	21599
850.14	21507
850.275	21580
850.41	21481
850.545	21583
850.68	21549
850.815	21705
850.95	21523
851.085	21713
851.22	21644
851.355	21591
851.49	21534
851.625	21553
851.76	21370
851.895	21416
852.03	21526
852.165	21534
852.299	21538
852.434	21557
852.569	21660
852.703	21633
852.838	21496
852.973	21701
853.107	21694
853.242	21496
853.376	21408
853.511	21188
853.645	21321
853.78	21564
853.914	21382
854.048	21389
854.183	21264
854.317	21355
854.451	21713
854.585	21397
854.72	21291
854.854	21401
854.988	21321
855.122	21412
855.256	21237
855.39	21408
855.524	21428
855.658	21435
855.792	21397
855.926	21412
856.06	21363
856.194	21405
856.327	21420
856.461	21329
856.595	21412
856.729	21298
856.862	21492
856.996	21340
857.13	21359
857.263	21412
857.397	21412
857.53	21329
857.664	21477
857.797	21355
857.931	21568
858.064	21466
858.197	21515
858.331	21329
858.464	21405
858.597	21310
858.731	21332
858.864	21355
858.997	21310
859.13	21363
859.263	21291
859.396	21488
859.529	21321
859.662	21336
859.795	21351
859.928	21298
860.061	21500
860.194	21557
860.327	21332
860.46	21374
860.592	21500
860.725	21591
860.858	21557
860.99	21317
861.123	21367
861.256	21279
861.388	21439
861.521	22253
861.653	21180
861.786	21123
861.918	21165
862.05	21165
862.183	21272
862.315	21268
862.447	21351
862.58	21237
862.712	21131
862.844	21055
862.976	21093
863.108	21165
863.24	21603
863.372	21036
863.504	21119
863.636	21119
863.768	21112
863.9	21135
864.032	20975
864.164	20929
864.296	21119
864.428	21173
864.559	21214
864.691	21176
864.823	21062
864.954	21165
865.086	21081
865.217	20994
865.349	20895
865.48	21009
865.612	20895
865.743	21214
865.875	21005
866.006	20899
866.137	20975
866.269	21051
866.4	21009
866.531	20956
866.662	20960
866.793	20887
866.924	20891
867.055	20960
867.186	20880
867.317	20944
867.448	20765
867.579	20960
867.71	20792
867.841	20804
867.972	20895
868.103	20937
868.233	20937
868.364	20925
868.495	20952
868.625	21161
868.756	21165
868.886	20975
869.017	21077
869.147	21237
869.278	21222
869.408	21211
869.539	21096
869.669	21188
869.799	21226
869.929	21237
870.06	21123
870.19	21443
870.32	21469
870.45	21412
870.58	21469
870.71	21652
870.84	21625
870.97	21580
871.1	21561
871.23	21732
871.36	21747
871.489	21732
871.619	21667
871.749	21705
871.879	21819
872.008	21911
872.138	21747
872.267	21747
872.397	21542
872.526	21564
872.656	21652
872.785	21545
872.915	21812
873.044	21797
873.173	21671
873.303	21755
873.432	21736
873.561	21774
873.69	21781
873.819	21759
873.948	21854
874.077	21743
874.206	21781
874.335	21660
874.464	21857
874.593	22025
874.722	21911
874.851	22082
874.979	21983
875.108	21922
875.237	21884
875.365	21781
875.494	21941
875.623	22090
875.751	22029
875.88	22040
876.008	22055
876.136	22135
876.265	22424
876.393	22519
876.521	22485
876.65	22386
876.778	22242
876.906	22432
877.034	22367
877.162	22447
877.29	22295
877.418	22394
877.546	22325
877.674	22405
877.802	22299
877.93	22432
878.058	22287
878.185	22147
878.313	22265
878.441	22356
878.568	22280
878.696	22272
878.824	22386
878.951	22478
879.079	22390
879.206	22618
879.333	22478
879.461	22325
879.588	22519
879.715	22417
879.842	22611
879.97	22424
880.097	22177
880.224	22158
880.351	22257
880.478	22177
880.605	22112
880.732	22192
880.859	22314
880.986	22207
881.112	22166
881.239	21930
881.366	21926
881.493	21857
881.619	21728
881.746	21766
881.872	21679
881.999	21682
882.125	21591
882.252	21808
882.378	21804
882.505	21838
882.631	21526
882.757	21458
882.883	21412
883.01	21378
883.136	21393
883.262	21389
883.388	21176
883.514	21325
883.64	21530
883.766	21279
883.892	21348
884.018	21325
884.143	21294
884.269	21447
884.395	21291
884.52	20994
884.646	21081
884.772	21051
884.897	20990
885.023	21096
885.148	21142
885.274	21207
885.399	21085
885.524	21024
885.65	21047
885.775	21051
885.9	21077
886.025	21157
886.15	21108
886.275	21032
886.4	20834
886.525	20948
886.65	20941
886.775	20975
886.9	21108
887.025	21313
887.149	21024
887.274	20754
887.399	20781
887.523	20785
887.648	20735
887.773	20743
887.897	20826
888.021	20834
888.146	20743
888.27	20921
888.395	20975
888.519	20933
888.643	20845
888.767	20796
888.891	20857
889.015	20625
889.139	20804
889.263	20648
889.387	20697
889.511	20895
889.635	20689
889.759	20590
889.883	20530
890.006	20697
890.13	20644
890.254	20518
890.377	20533
890.501	20385
890.624	20355
890.748	20339
890.871	20305
890.995	20237
891.118	20225
891.241	20176
891.364	20202
891.488	20313
891.611	20202
891.734	20252
891.857	20240
891.98	20187
892.103	20298
892.226	20267
892.349	20183
892.471	20035
892.594	20142
892.717	20233
892.839	20073
892.962	20142
893.085	20237
893.207	20073
893.33	19845
893.452	20058
893.575	20065
893.697	20142
893.819	20294
893.941	20336
894.064	20317
894.186	20031
894.308	20069
894.43	20172
894.552	20214
894.674	20191
894.796	20001
894.918	20115
895.04	20054
895.161	20168
895.283	20191
895.405	19967
895.526	20062
895.648	20149
895.769	20218
895.891	20145
896.012	20176
896.134	20206
896.255	20039
896.376	20062
896.498	20096
896.619	20107
896.74	20088
896.861	20126
896.982	20476
897.103	20552
897.224	20427
897.345	20336
897.466	20210
897.587	20328
897.708	20415
897.828	20393
897.949	20161
898.07	20183
898.19	20324
898.311	20389
898.431	20252
898.552	20438
898.672	20412
898.792	20438
898.913	20396
899.033	20176
899.153	20202
899.273	20016
899.393	20145
899.513	20012
899.633	20142
899.753	20069
899.873	20065
899.993	20168
900.113	20035
900.232	20062
900.352	19967
900.472	19864
900.591	19833
900.711	19841
900.83	19845
900.95	19845
901.069	19860
901.189	19616
901.308	19594
901.427	19373
901.546	19453
901.665	19464
901.784	19510
901.904	19331
902.023	19152
902.141	18973
902.26	18981
902.379	18954
902.498	18867
902.617	18932
902.735	19042
902.854	18939
902.973	18875
903.091	18700
903.21	18547
903.328	18570
903.446	18521
903.565	18486
903.683	18388
903.801	18308
903.919	18350
904.038	18209
904.156	18106
904.274	18228
904.392	18251
904.51	18171
904.627	18178
904.745	18159
904.863	18235
904.981	17992
905.098	17847
905.216	17779
905.334	17916
905.451	17813
905.569	17992
905.686	17969
905.803	17828
905.921	17657
906.038	17710
906.155	17752
906.272	17532
906.389	17638
906.506	17467
906.623	17414
906.74	17444
906.857	17315
906.974	17414
907.091	17509
907.208	17444
907.324	17490
907.441	17341
907.557	17208
907.674	17056
907.79	17010
907.907	17117
908.023	17151
908.139	17216
908.256	17105
908.372	17041
908.488	16927
908.604	16820
908.72	16759
908.836	16843
908.952	16850
909.068	16869
909.184	16946
909.3	16763
909.415	16877
909.531	16869
909.647	16637
909.762	16607
909.878	16538
909.993	16550
910.108	16535
910.224	16447
910.339	16478
910.454	16443
910.57	16322
910.685	16325
910.8	16512
910.915	16489
911.03	16333
911.145	16215
911.259	16185
911.374	16082
911.489	16071
911.604	16078
911.718	15960
911.833	15873
911.947	15679
912.062	15747
912.176	15861
912.291	15857
912.405	15941
912.519	16017
912.633	16040
912.748	15937
912.862	15876
912.976	15663
913.09	15523
913.204	15603
913.318	15694
913.431	15797
913.545	15774
913.659	15808
913.772	15690
913.886	15496
914	15447
914.113	15625
914.226	15572
914.34	15591
914.453	15313
914.566	15534
914.68	15450
914.793	15340
914.906	15123
915.019	15085
915.132	15119
915.245	15024
915.358	15081
915.47	15108
915.583	15055
915.696	15138
915.809	15214
915.921	15252
916.034	15024
916.146	15036
916.259	14929
916.371	15089
916.483	15146
916.595	14876
916.708	14826
916.82	14937
916.932	14834
917.044	14834
917.156	14849
917.268	14796
917.38	14891
917.491	14872
917.603	14720
917.715	14792
917.826	14861
917.938	14651
918.049	14640
918.161	14632
918.272	14743
918.384	14773
918.495	14606
918.606	14549
918.717	14434
918.828	14549
918.939	14610
919.05	14351
919.161	14492
919.272	14298
919.383	14320
919.494	14568
919.604	14781
919.715	14461
919.826	14355
919.936	14446
920.047	14587
920.157	14518
920.267	14674
920.378	14492
920.488	14393
920.598	14655
920.708	14842
920.818	14613
920.928	14617
921.038	14773
921.148	14651
921.258	14423
921.368	14332
921.477	14294
921.587	14301
921.697	14229
921.806	14248
921.916	14123
922.025	13947
922.134	13864
922.244	13890
922.353	13913
922.462	13734
922.571	13651
922.68	13491
922.789	13502
922.898	13502
923.007	13480
923.116	13563
923.224	13453
923.333	13403
923.442	13346
923.55	13293
923.659	13381
923.767	13373
923.876	13308
923.984	13274
924.092	13164
924.201	13266
924.309	13255
924.417	13244
924.525	13152
924.633	13099
924.741	13936
924.849	13004
924.956	13133
925.064	12973
925.172	12886
925.279	12852
925.387	12962
925.494	12958
925.602	13053
925.709	13088
925.816	12825
925.924	12848
926.031	12886
926.138	12993
926.245	12901
926.352	12821
926.459	12905
926.566	12928
926.673	12886
926.779	12639
926.886	12646
926.993	12502
927.099	12540
927.206	12441
927.312	12410
927.419	12517
927.525	12418
927.631	12551
927.737	12384
927.843	12281
927.95	12167
928.056	12380
928.162	12323
928.267	12330
928.373	13004
928.479	12433
928.585	12136
928.69	12281
928.796	12243
928.901	12121
929.007	12064
929.112	12155
929.218	12057
929.323	12015
929.428	12053
929.533	12072
929.638	12030
929.743	12015
929.848	12026
929.953	11946
930.058	11920
930.163	11756
930.267	11767
930.372	11870
930.477	11710
930.581	11897
930.685	11767
930.79	11627
930.894	11528
930.998	11611
931.103	11688
931.207	11372
931.311	11341
931.415	11155
931.519	11003
931.623	10984
