Data from test_V78500241_962.txt Node
Date: Fri Mar 25 15:16:33 CST 2022
User: usil
Spectrometer: V785-0024
Trigger mode: 0
Integration Time (sec): 4.000000E-1
Scans to average: 1
Nonlinearity correction enabled: false
Boxcar width: 0
Storing dark spectrum: false
XAxis mode: Wavelengths
Number of Pixels in Spectrum: 1024
>>>>>Begin Spectral Data<<<<<
801.071	28010
801.214	27831
801.356	27587
801.499	27526
801.641	27447
801.783	27355
801.926	27564
802.068	27462
802.211	27157
802.353	27348
802.496	27119
802.638	27142
802.78	27233
802.923	27127
803.065	26998
803.208	26918
803.35	27017
803.492	27218
803.635	27325
803.777	27249
803.919	27416
804.061	27629
804.204	27340
804.346	27268
804.488	27332
804.63	27416
804.773	27283
804.915	27431
805.057	27515
805.199	27321
805.341	27325
805.483	27458
805.626	27397
805.768	27264
805.91	27355
806.052	27488
806.194	27340
806.336	27663
806.478	27644
806.62	27458
806.762	27618
806.904	27690
807.046	27979
807.188	27945
807.33	27884
807.472	27934
807.614	27857
807.756	27964
807.898	27876
808.04	27827
808.182	27622
808.324	27739
808.465	27884
808.607	28032
808.749	28093
808.891	28162
809.033	28188
809.174	28128
809.316	28173
809.458	28169
809.6	28059
809.741	28299
809.883	28185
810.025	28516
810.166	28360
810.308	28432
810.45	28409
810.591	28333
810.733	28253
810.875	28044
811.016	28059
811.158	28101
811.299	28200
811.441	28306
811.582	28322
811.724	28101
811.865	28082
812.007	27983
812.148	28032
812.29	28116
812.431	28280
812.573	28561
812.714	28516
812.855	28649
812.997	28755
813.138	28752
813.279	28778
813.421	28645
813.562	28675
813.703	28573
813.845	28462
813.986	28101
814.127	27914
814.268	27789
814.41	27842
814.551	27842
814.692	27838
814.833	27751
814.974	27694
815.115	27671
815.256	27633
815.397	27739
815.539	27694
815.68	27614
815.821	27557
815.962	27656
816.103	27690
816.244	27492
816.385	27530
816.526	27363
816.666	27363
816.807	27081
816.948	27131
817.089	27214
817.23	27173
817.371	27180
817.512	27138
817.653	27123
817.793	27089
817.934	27249
818.075	27302
818.216	27089
818.356	27188
818.497	26986
818.638	26864
818.778	26891
818.919	26952
819.06	26895
819.2	26940
819.341	27020
819.481	27222
819.622	27302
819.762	27397
819.903	27420
820.043	27321
820.184	27173
820.324	27329
820.465	27135
820.605	27123
820.746	27298
820.886	27192
821.026	27294
821.167	27245
821.307	27154
821.447	27112
821.588	27009
821.728	26834
821.868	26754
822.008	26667
822.149	26549
822.289	26476
822.429	26275
822.569	26214
822.709	26328
822.849	26149
822.99	25959
823.13	26020
823.27	26069
823.41	25898
823.55	25928
823.69	25860
823.83	25936
823.97	25932
824.11	25894
824.25	25715
824.389	25833
824.529	25799
824.669	25883
824.809	25879
824.949	25932
825.089	25852
825.228	25879
825.368	25616
825.508	25518
825.648	25712
825.787	25628
825.927	25788
826.067	25647
826.206	25670
826.346	25674
826.485	25784
826.625	25662
826.765	25803
826.904	25719
827.044	25495
827.183	25453
827.323	25270
827.462	25388
827.601	25339
827.741	25255
827.88	25362
828.02	25415
828.159	25396
828.298	25449
828.437	25419
828.577	25270
828.716	25495
828.855	25263
828.994	25095
829.134	25107
829.273	25061
829.412	25099
829.551	25038
829.69	25038
829.829	25027
829.968	25168
830.107	25217
830.246	25031
830.385	25019
830.524	24905
830.663	24783
830.802	24817
830.941	24700
831.08	24669
831.219	24741
831.357	24768
831.496	24992
831.635	24719
831.774	24627
831.913	24707
832.051	24407
832.19	24464
832.329	24505
832.467	24437
832.606	24414
832.744	24224
832.883	24292
833.022	24323
833.16	24334
833.299	24304
833.437	24509
833.576	24525
833.714	24433
833.852	24456
833.991	24418
834.129	24498
834.267	24452
834.406	24433
834.544	24479
834.682	24407
834.821	24429
834.959	24498
835.097	24448
835.235	24452
835.373	24399
835.511	24448
835.65	24403
835.788	24285
835.926	24152
836.064	24053
836.202	24197
836.34	24350
836.478	24289
836.615	24182
836.753	24330
836.891	24300
837.029	24254
837.167	24190
837.305	24174
837.443	24091
837.58	24152
837.718	24197
837.856	24178
837.993	24030
838.131	24155
838.269	24045
838.406	23984
838.544	23958
838.681	23718
838.819	23779
838.956	23501
839.094	23493
839.231	23638
839.369	23691
839.506	23988
839.643	23748
839.781	23566
839.918	23501
840.055	23531
840.193	23589
840.33	23592
840.467	23512
840.604	23646
840.742	23699
840.879	23345
841.016	23455
841.153	23429
841.29	23661
841.427	23482
841.564	23463
841.701	23436
841.838	23486
841.975	23391
842.112	23467
842.249	23315
842.385	23254
842.522	23414
842.659	23398
842.796	23299
842.933	23261
843.069	23193
843.206	23090
843.343	23227
843.479	23318
843.616	23349
843.752	22968
843.889	23075
844.025	23212
844.162	23029
844.298	23159
844.435	23029
844.571	23025
844.708	23086
844.844	23151
844.98	23189
845.117	23185
845.253	22987
845.389	22908
845.525	22949
845.661	22881
845.798	22683
845.934	22877
846.07	22774
846.206	22896
846.342	22847
846.478	22668
846.614	22618
846.75	22527
846.886	22535
847.022	22535
847.158	22485
847.294	22580
847.429	22451
847.565	22367
847.701	22713
847.837	22280
847.972	22154
848.108	22329
848.244	22207
848.379	22120
848.515	22120
848.65	22021
848.786	22097
848.921	22036
849.057	22181
849.192	22265
849.328	22192
849.463	22021
849.598	22036
849.734	22032
849.869	21956
850.004	21873
850.14	21827
850.275	21819
850.41	21739
850.545	21736
850.68	21804
850.815	21865
850.95	21781
851.085	22048
851.22	21895
851.355	21774
851.49	21846
851.625	21804
851.76	21823
851.895	21728
852.03	21739
852.165	21865
852.299	21831
852.434	21918
852.569	21915
852.703	21781
852.838	22025
852.973	22029
853.107	22010
853.242	21793
853.376	21720
853.511	21519
853.645	21629
853.78	21663
853.914	21701
854.048	21701
854.183	21686
854.317	21603
854.451	21781
854.585	21663
854.72	21622
854.854	21713
854.988	21500
855.122	21572
855.256	21610
855.39	21606
855.524	21846
855.658	21736
855.792	21709
855.926	21641
856.06	21667
856.194	21713
856.327	21709
856.461	21606
856.595	21576
856.729	21648
856.862	21827
856.996	21778
857.13	21751
857.263	21774
857.397	21835
857.53	21606
857.664	21671
857.797	21751
857.931	21747
858.064	21774
858.197	21743
858.331	21724
858.464	21682
858.597	21530
858.731	21549
858.864	21587
858.997	21667
859.13	21713
859.263	21717
859.396	21713
859.529	21629
859.662	21660
859.795	21591
859.928	21656
860.061	21682
860.194	21823
860.327	21717
860.46	21694
860.592	21816
860.725	21804
860.858	21732
860.99	21675
861.123	21736
861.256	21568
861.388	21534
861.521	22276
861.653	21534
861.786	21450
861.918	21507
862.05	21667
862.183	21603
862.315	21515
862.447	21663
862.58	21519
862.712	21439
862.844	21473
862.976	21405
863.108	21458
863.24	21800
863.372	21336
863.504	21344
863.636	21481
863.768	21393
863.9	21370
864.032	21291
864.164	21241
864.296	21526
864.428	21485
864.559	21382
864.691	21355
864.823	21359
864.954	21378
865.086	21363
865.217	21207
865.349	21192
865.48	21188
865.612	21184
865.743	21466
865.875	21382
866.006	21161
866.137	21294
866.269	21230
866.4	21169
866.531	21260
866.662	21161
866.793	21199
866.924	21112
867.055	21192
867.186	21249
867.317	21100
867.448	21116
867.579	21264
867.71	21055
867.841	21218
867.972	21230
868.103	21184
868.233	21123
868.364	21096
868.495	21310
868.625	21424
868.756	21469
868.886	21412
869.017	21450
869.147	21485
869.278	21637
869.408	21363
869.539	21416
869.669	21591
869.799	21405
869.929	21542
870.06	21606
870.19	21705
870.32	21789
870.45	21747
870.58	21823
870.71	21892
870.84	21861
870.97	21816
871.1	21854
871.23	22002
871.36	21876
871.489	21903
871.619	21987
871.749	22055
871.879	22036
872.008	22063
872.138	22002
872.267	22010
872.397	21880
872.526	21823
872.656	21797
872.785	21949
872.915	22082
873.044	22162
873.173	22021
873.303	22101
873.432	22078
873.561	22128
873.69	22116
873.819	22116
873.948	22128
874.077	22013
874.206	22044
874.335	22044
874.464	22192
874.593	22249
874.722	22318
874.851	22257
874.979	22238
875.108	22337
875.237	22200
875.365	22200
875.494	22238
875.623	22284
875.751	22067
875.88	22223
876.008	22356
876.136	22432
876.265	22607
876.393	22740
876.521	22763
876.65	22733
876.778	22577
876.906	22599
877.034	22607
877.162	22500
877.29	22550
877.418	22607
877.546	22527
877.674	22656
877.802	22626
877.93	22672
878.058	22447
878.185	22417
878.313	22588
878.441	22459
878.568	22451
878.696	22550
878.824	22675
878.951	22763
879.079	22824
879.206	22934
879.333	22710
879.461	22641
879.588	22740
879.715	22660
879.842	22892
879.97	22687
880.097	22497
880.224	22371
880.351	22527
880.478	22409
880.605	22352
880.732	22504
880.859	22672
880.986	22447
881.112	22398
881.239	22287
881.366	22048
881.493	22002
881.619	21979
881.746	22131
881.872	21930
881.999	21956
882.125	21926
882.252	22044
882.378	21941
882.505	22010
882.631	21922
882.757	21736
882.883	21728
883.01	21724
883.136	21747
883.262	21519
883.388	21389
883.514	21728
883.64	21793
883.766	21606
883.892	21435
884.018	21458
884.143	21549
884.269	21675
884.395	21386
884.52	21363
884.646	21317
884.772	21389
884.897	21123
885.023	21275
885.148	21492
885.274	21523
885.399	21530
885.524	21302
885.65	21351
885.775	21389
885.9	21344
886.025	21378
886.15	21378
886.275	21184
886.4	21214
886.525	21226
886.65	21161
886.775	21367
886.9	21329
887.025	21553
887.149	21306
887.274	21119
887.399	21096
887.523	21043
887.648	21100
887.773	21074
887.897	21104
888.021	21146
888.146	20937
888.27	21226
888.395	21268
888.519	21051
888.643	21085
888.767	21062
888.891	20948
889.015	20967
889.139	21009
889.263	20872
889.387	21032
889.511	21085
889.635	21081
889.759	20880
889.883	20861
890.006	20986
890.13	20891
890.254	20826
890.377	20834
890.501	20659
890.624	20587
890.748	20636
890.871	20480
890.995	20419
891.118	20396
891.241	20412
891.364	20480
891.488	20552
891.611	20324
891.734	20545
891.857	20396
891.98	20473
892.103	20492
892.226	20358
892.349	20469
892.471	20218
892.594	20381
892.717	20423
892.839	20343
892.962	20366
893.085	20442
893.207	20374
893.33	20275
893.452	20225
893.575	20396
893.697	20385
893.819	20419
893.941	20571
894.064	20415
894.186	20290
894.308	20320
894.43	20473
894.552	20438
894.674	20317
894.796	20259
894.918	20313
895.04	20400
895.161	20412
895.283	20454
895.405	20271
895.526	20400
895.648	20385
895.769	20317
895.891	20317
896.012	20412
896.134	20328
896.255	20336
896.376	20267
896.498	20244
896.619	20419
896.74	20336
896.861	20370
896.982	20644
897.103	20796
897.224	20651
897.345	20495
897.466	20495
897.587	20419
897.708	20663
897.828	20644
897.949	20537
898.07	20362
898.19	20442
898.311	20575
898.431	20511
898.552	20385
898.672	20511
898.792	20651
898.913	20571
899.033	20393
899.153	20434
899.273	20237
899.393	20278
899.513	20278
899.633	20263
899.753	20214
899.873	20305
899.993	20305
900.113	20157
900.232	20370
900.352	20119
900.472	20122
900.591	20054
900.711	20084
900.83	19909
900.95	20126
901.069	20111
901.189	19875
901.308	19681
901.427	19696
901.546	19693
901.665	19677
901.784	19632
901.904	19567
902.023	19358
902.141	19164
902.26	19107
902.379	19259
902.498	19168
902.617	19228
902.735	19152
902.854	19114
902.973	19034
903.091	18924
903.21	18882
903.328	18844
903.446	18829
903.565	18601
903.683	18490
903.801	18566
903.919	18593
904.038	18623
904.156	18426
904.274	18486
904.392	18350
904.51	18467
904.627	18342
904.745	18464
904.863	18437
904.981	18125
905.098	18087
905.216	18038
905.334	17999
905.451	18034
905.569	18053
905.686	18133
905.803	17977
905.921	17950
906.038	17939
906.155	17897
906.272	17794
906.389	17752
906.506	17592
906.623	17581
906.74	17615
906.857	17391
906.974	17482
907.091	17691
907.208	17729
907.324	17714
907.441	17512
907.557	17425
907.674	17356
907.79	17292
907.907	17414
908.023	17452
908.139	17402
908.256	17326
908.372	17151
908.488	17151
908.604	17109
908.72	17010
908.836	17090
908.952	17010
909.068	17113
909.184	17159
909.3	16987
909.415	17162
909.531	16991
909.647	16778
909.762	16759
909.878	16729
909.993	16759
910.108	16641
910.224	16725
910.339	16694
910.454	16611
910.57	16565
910.685	16504
910.8	16801
910.915	16687
911.03	16462
911.145	16390
911.259	16398
911.374	16371
911.489	16325
911.604	16200
911.718	16169
911.833	16010
911.947	15972
912.062	15831
912.176	16109
912.291	16124
912.405	16029
912.519	16211
912.633	16299
912.748	16059
912.862	16021
912.976	15804
913.09	15774
913.204	15842
913.318	15812
913.431	15888
913.545	15899
913.659	15994
913.772	15800
913.886	15686
914	15652
914.113	15694
914.226	15762
914.34	15762
914.453	15545
914.566	15652
914.68	15591
914.793	15572
914.906	15332
915.019	15355
915.132	15165
915.245	15298
915.358	15351
915.47	15241
915.583	15275
915.696	15329
915.809	15412
915.921	15466
916.034	15127
916.146	15218
916.259	15176
916.371	15249
916.483	15154
916.595	15233
916.708	15131
916.82	15081
916.932	15123
917.044	15055
917.156	15047
917.268	14937
917.38	14971
917.491	14967
917.603	14986
917.715	15062
917.826	14933
917.938	14899
918.049	14800
918.161	14823
918.272	15020
918.384	14979
918.495	14925
918.606	14731
918.717	14617
918.828	14826
918.939	14739
919.05	14613
919.161	14686
919.272	14450
919.383	14503
919.494	14705
919.604	14906
919.715	14674
919.826	14533
919.936	14644
920.047	14739
920.157	14670
920.267	14880
920.378	14564
920.488	14537
920.598	14758
920.708	14933
920.818	14769
920.928	14796
921.038	14861
921.148	14826
921.258	14629
921.368	14514
921.477	14419
921.587	14370
921.697	14256
921.806	14290
921.916	14214
922.025	14130
922.134	14092
922.244	14016
922.353	14054
922.462	13860
922.571	13761
922.68	13712
922.789	13597
922.898	13689
923.007	13590
923.116	13620
923.224	13609
923.333	13715
923.442	13605
923.55	13457
923.659	13518
923.767	13537
923.876	13377
923.984	13605
924.092	13339
924.201	13411
924.309	13403
924.417	13320
924.525	13274
924.633	13381
924.741	14180
924.849	13129
924.956	13278
925.064	13099
925.172	12981
925.279	13015
925.387	13103
925.494	13084
925.602	13206
925.709	13091
925.816	12985
925.924	13069
926.031	13129
926.138	13061
926.245	13042
926.352	12909
926.459	13046
926.566	13110
926.673	12882
926.779	12783
926.886	12806
926.993	12722
927.099	12490
927.206	12563
927.312	12566
927.419	12639
927.525	12570
927.631	12669
927.737	12502
927.843	12506
927.95	12372
928.056	12369
928.162	12475
928.267	12532
928.373	13076
928.479	12521
928.585	12213
928.69	12391
928.796	12471
928.901	12323
929.007	12251
929.112	12311
929.218	12273
929.323	12148
929.428	12213
929.533	12292
929.638	12068
929.743	12133
929.848	12079
929.953	12114
930.058	11980
930.163	11870
930.267	11889
930.372	12019
930.477	11866
930.581	12030
930.685	11866
930.79	11779
930.894	11695
930.998	11657
931.103	11840
931.207	11551
931.311	11425
931.415	11330
931.519	11155
931.623	11064
