Data from test_V78500241_3525.txt Node
Date: Fri Mar 25 15:34:24 CST 2022
User: usil
Spectrometer: V785-0024
Trigger mode: 0
Integration Time (sec): 4.000000E-1
Scans to average: 1
Nonlinearity correction enabled: false
Boxcar width: 0
Storing dark spectrum: false
XAxis mode: Wavelengths
Number of Pixels in Spectrum: 1024
>>>>>Begin Spectral Data<<<<<
801.071	27447
801.214	27325
801.356	27028
801.499	27108
801.641	26910
801.783	26910
801.926	26990
802.068	26956
802.211	26796
802.353	26765
802.496	26533
802.638	26724
802.78	26530
802.923	26438
803.065	26362
803.208	26537
803.35	26442
803.492	26560
803.635	26708
803.777	26556
803.919	26823
804.061	27199
804.204	26830
804.346	26667
804.488	26545
804.63	26727
804.773	26545
804.915	26762
805.057	26857
805.199	26705
805.341	26815
805.483	26853
805.626	26872
805.768	26845
805.91	26842
806.052	26910
806.194	26819
806.336	26921
806.478	26823
806.62	26716
806.762	26948
806.904	26925
807.046	27344
807.188	27222
807.33	27340
807.472	27249
807.614	27173
807.756	27340
807.898	27013
808.04	26906
808.182	26990
808.324	27096
808.465	27112
808.607	27348
808.749	27511
808.891	27583
809.033	27447
809.174	27580
809.316	27306
809.458	27507
809.6	27332
809.741	27530
809.883	27553
810.025	27686
810.166	27789
810.308	27835
810.45	27568
810.591	27656
810.733	27458
810.875	27447
811.016	27355
811.158	27355
811.299	27397
811.441	27606
811.582	27610
811.724	27336
811.865	27351
812.007	27447
812.148	27450
812.29	27420
812.431	27580
812.573	27637
812.714	27888
812.855	27857
812.997	27998
813.138	28139
813.279	28120
813.421	27895
813.562	27842
813.703	27637
813.845	27622
813.986	27313
814.127	27180
814.268	27127
814.41	27173
814.551	27135
814.692	27233
814.833	27108
814.974	27081
815.115	27085
815.256	26986
815.397	26940
815.539	26994
815.68	26807
815.821	26811
815.962	26929
816.103	26800
816.244	26788
816.385	26594
816.526	26670
816.666	26617
816.807	26305
816.948	26564
817.089	26473
817.23	26393
817.371	26317
817.512	26393
817.653	26282
817.793	26328
817.934	26313
818.075	26412
818.216	26457
818.356	26309
818.497	26168
818.638	26103
818.778	26069
818.919	26115
819.06	26164
819.2	26221
819.341	26290
819.481	26419
819.622	26598
819.762	26629
819.903	26644
820.043	26632
820.184	26480
820.324	26465
820.465	26442
820.605	26560
820.746	26533
820.886	26324
821.026	26328
821.167	26404
821.307	26427
821.447	26419
821.588	26267
821.728	26218
821.868	26065
822.008	25780
822.149	25849
822.289	25788
822.429	25666
822.569	25445
822.709	25502
822.849	25392
822.99	25411
823.13	25388
823.27	25327
823.41	25225
823.55	25091
823.69	25244
823.83	25228
823.97	25053
824.11	24890
824.25	24890
824.389	24840
824.529	25057
824.669	24962
824.809	24981
824.949	25000
825.089	25000
825.228	25027
825.368	24734
825.508	24939
825.648	24897
825.787	24817
825.927	24897
826.067	24783
826.206	24859
826.346	24795
826.485	24802
826.625	24798
826.765	25015
826.904	24878
827.044	24437
827.183	24597
827.323	24582
827.462	24692
827.601	24669
827.741	24578
827.88	24509
828.02	24319
828.159	24525
828.298	24513
828.437	24684
828.577	24422
828.716	24566
828.855	24441
828.994	24342
829.134	24251
829.273	24319
829.412	24159
829.551	24235
829.69	24232
829.829	24311
829.968	24327
830.107	24369
830.246	24308
830.385	24186
830.524	24148
830.663	24053
830.802	23946
830.941	24018
831.08	23821
831.219	24030
831.357	23935
831.496	24068
831.635	23889
831.774	23885
831.913	23733
832.051	23642
832.19	23554
832.329	23676
832.467	23566
832.606	23509
832.744	23398
832.883	23478
833.022	23474
833.16	23516
833.299	23585
833.437	23566
833.576	23722
833.714	23646
833.852	23687
833.991	23748
834.129	23783
834.267	23726
834.406	23623
834.544	23695
834.682	23661
834.821	23577
834.959	23771
835.097	23600
835.235	23562
835.373	23672
835.511	23695
835.65	23520
835.788	23592
835.926	23303
836.064	23334
836.202	23227
836.34	23452
836.478	23573
836.615	23356
836.753	23531
836.891	23524
837.029	23490
837.167	23455
837.305	23318
837.443	23307
837.58	23345
837.718	23185
837.856	23417
837.993	23315
838.131	23330
838.269	23170
838.406	23318
838.544	23151
838.681	22999
838.819	23037
838.956	22809
839.094	22847
839.231	22706
839.369	22995
839.506	23193
839.643	23022
839.781	22763
839.918	22900
840.055	22805
840.193	22744
840.33	22557
840.467	22721
840.604	22831
840.742	23033
840.879	22637
841.016	22698
841.153	22573
841.29	22809
841.427	22717
841.564	22820
841.701	22668
841.838	22645
841.975	22596
842.112	22725
842.249	22615
842.385	22584
842.522	22702
842.659	22637
842.796	22599
842.933	22626
843.069	22504
843.206	22375
843.343	22588
843.479	22333
843.616	22443
843.752	22257
843.889	22375
844.025	22421
844.162	22322
844.298	22386
844.435	22257
844.571	22287
844.708	22303
844.844	22554
844.98	22428
845.117	22405
845.253	22036
845.389	22200
845.525	22063
845.661	22169
845.798	21949
845.934	22093
846.07	21953
846.206	21918
846.342	22139
846.478	22002
846.614	21823
846.75	21701
846.886	21701
847.022	21895
847.158	21865
847.294	21778
847.429	21778
847.565	21717
847.701	22029
847.837	21462
847.972	21435
848.108	21637
848.244	21667
848.379	21450
848.515	21428
848.65	21275
848.786	21370
848.921	21275
849.057	21424
849.192	21542
849.328	21367
849.463	21355
849.598	21397
849.734	21275
849.869	21157
850.004	21146
850.14	21173
850.275	21100
850.41	21100
850.545	21157
850.68	21116
850.815	21150
850.95	21093
851.085	21272
851.22	21332
851.355	21085
851.49	21085
851.625	20990
851.76	21119
851.895	21096
852.03	21036
852.165	21081
852.299	21192
852.434	21245
852.569	21169
852.703	21100
852.838	21169
852.973	21351
853.107	21199
853.242	21108
853.376	21013
853.511	20796
853.645	20849
853.78	21062
853.914	20925
854.048	20864
854.183	20956
854.317	20960
854.451	21188
854.585	20925
854.72	21032
854.854	21017
854.988	20876
855.122	20902
855.256	20826
855.39	20967
855.524	21077
855.658	20880
855.792	20933
855.926	20849
856.06	20944
856.194	20975
856.327	21039
856.461	20895
856.595	20895
856.729	20853
856.862	20925
856.996	20906
857.13	20925
857.263	21043
857.397	20998
857.53	20921
857.664	21055
857.797	20880
857.931	21028
858.064	21024
858.197	21108
858.331	20902
858.464	20849
858.597	20815
858.731	20933
858.864	20891
858.997	20986
859.13	20979
859.263	20967
859.396	21017
859.529	20948
859.662	20914
859.795	20921
859.928	20937
860.061	21089
860.194	21138
860.327	21051
860.46	21020
860.592	20982
860.725	21066
860.858	21074
860.99	20838
861.123	20861
861.256	20887
861.388	20883
861.521	21827
861.653	20815
861.786	20686
861.918	20804
862.05	20792
862.183	20880
862.315	20864
862.447	20994
862.58	20708
862.712	20609
862.844	20659
862.976	20693
863.108	20727
863.24	21123
863.372	20556
863.504	20625
863.636	20648
863.768	20655
863.9	20651
864.032	20674
864.164	20697
864.296	20667
864.428	20750
864.559	20750
864.691	20659
864.823	20606
864.954	20670
865.086	20632
865.217	20552
865.349	20495
865.48	20575
865.612	20518
865.743	20750
865.875	20594
866.006	20461
866.137	20507
866.269	20537
866.4	20606
866.531	20590
866.662	20495
866.793	20499
866.924	20423
867.055	20446
867.186	20541
867.317	20454
867.448	20511
867.579	20492
867.71	20427
867.841	20328
867.972	20499
868.103	20457
868.233	20450
868.364	20514
868.495	20476
868.625	20617
868.756	20948
868.886	20621
869.017	20697
869.147	20815
869.278	20785
869.408	20773
869.539	20811
869.669	20781
869.799	20781
869.929	20906
870.06	20872
870.19	21093
870.32	20979
870.45	21001
870.58	21146
870.71	21245
870.84	21184
870.97	21108
871.1	21157
871.23	21241
871.36	21340
871.489	21108
871.619	21317
871.749	21458
871.879	21340
872.008	21382
872.138	21405
872.267	21450
872.397	21138
872.526	21146
872.656	21173
872.785	21112
872.915	21428
873.044	21382
873.173	21218
873.303	21374
873.432	21351
873.561	21378
873.69	21515
873.819	21313
873.948	21306
874.077	21447
874.206	21336
874.335	21340
874.464	21511
874.593	21660
874.722	21610
874.851	21542
874.979	21618
875.108	21580
875.237	21583
875.365	21576
875.494	21511
875.623	21766
875.751	21496
875.88	21587
876.008	21641
876.136	21838
876.265	22025
876.393	22109
876.521	22116
876.65	22078
876.778	22082
876.906	21915
877.034	21869
877.162	21880
877.29	21941
877.418	22112
877.546	21956
877.674	21903
877.802	22055
877.93	21903
878.058	21960
878.185	21854
878.313	21865
878.441	21964
878.568	21774
878.696	21922
878.824	21968
878.951	21979
879.079	21987
879.206	22333
879.333	22059
879.461	22017
879.588	21991
879.715	22131
879.842	22284
879.97	22090
880.097	21865
880.224	21720
880.351	21793
880.478	21705
880.605	21690
880.732	21918
880.859	22078
880.986	21743
881.112	21827
881.239	21736
881.366	21561
881.493	21454
881.619	21370
881.746	21466
881.872	21466
881.999	21443
882.125	21275
882.252	21462
882.378	21291
882.505	21519
882.631	21256
882.757	21108
882.883	21146
883.01	21081
883.136	21203
883.262	20990
883.388	20986
883.514	21123
883.64	21108
883.766	21036
883.892	20864
884.018	20857
884.143	21009
884.269	21089
884.395	20804
884.52	20651
884.646	20788
884.772	20735
884.897	20670
885.023	20800
885.148	20902
885.274	20891
885.399	20891
885.524	20781
885.65	20773
885.775	20781
885.9	20762
886.025	20796
886.15	20811
886.275	20575
886.4	20750
886.525	20667
886.65	20571
886.775	20765
886.9	20830
887.025	20819
887.149	20644
887.274	20621
887.399	20495
887.523	20575
887.648	20549
887.773	20499
887.897	20492
888.021	20530
888.146	20537
888.27	20590
888.395	20587
888.519	20621
888.643	20469
888.767	20613
888.891	20454
889.015	20457
889.139	20396
889.263	20290
889.387	20412
889.511	20495
889.635	20419
889.759	20259
889.883	20377
890.006	20339
890.13	20533
890.254	20256
890.377	20343
890.501	20176
890.624	19997
890.748	20161
890.871	19986
890.995	19944
891.118	19856
891.241	19826
891.364	19814
891.488	20065
891.611	19875
891.734	19913
891.857	19974
891.98	19944
892.103	19898
892.226	19841
892.349	19856
892.471	19723
892.594	19833
892.717	19811
892.839	19788
892.962	19791
893.085	19917
893.207	19879
893.33	19715
893.452	19788
893.575	19803
893.697	19803
893.819	19845
893.941	19925
894.064	19993
894.186	19674
894.308	19696
894.43	19932
894.552	20027
894.674	19940
894.796	19826
894.918	19742
895.04	19780
895.161	19814
895.283	19784
895.405	19738
895.526	19715
895.648	19677
895.769	19883
895.891	19875
896.012	19849
896.134	19791
896.255	19814
896.376	19784
896.498	19898
896.619	19936
896.74	19784
896.861	19822
896.982	20062
897.103	20282
897.224	20199
897.345	20016
897.466	20020
897.587	20024
897.708	20138
897.828	20111
897.949	19852
898.07	19757
898.19	20062
898.311	20157
898.431	19993
898.552	20027
898.672	20081
898.792	20065
898.913	20134
899.033	19883
899.153	19795
899.273	19635
899.393	19837
899.513	19833
899.633	19712
899.753	19890
899.873	19624
899.993	19803
900.113	19639
900.232	19799
900.352	19689
900.472	19578
900.591	19521
900.711	19510
900.83	19438
900.95	19578
901.069	19727
901.189	19411
901.308	19137
901.427	19236
901.546	19221
901.665	19118
901.784	19152
901.904	18977
902.023	18920
902.141	18707
902.26	18711
902.379	18810
902.498	18684
902.617	18589
902.735	18730
902.854	18684
902.973	18578
903.091	18388
903.21	18327
903.328	18350
903.446	18319
903.565	18102
903.683	18213
903.801	17996
903.919	18121
904.038	18034
904.156	17920
904.274	18003
904.392	17840
904.51	17946
904.627	17931
904.745	18041
904.863	17996
904.981	17699
905.098	17630
905.216	17600
905.334	17680
905.451	17543
905.569	17615
905.686	17509
905.803	17558
905.921	17315
906.038	17532
906.155	17372
906.272	17360
906.389	17292
906.506	17113
906.623	17193
906.74	17117
906.857	17037
906.974	17025
907.091	17140
907.208	17261
907.324	17174
907.441	16984
907.557	16881
907.674	16892
907.79	16805
907.907	16797
908.023	16881
908.139	16896
908.256	16828
908.372	16828
908.488	16771
908.604	16706
908.72	16580
908.836	16607
908.952	16580
909.068	16577
909.184	16698
909.3	16451
909.415	16573
909.531	16615
909.647	16322
909.762	16219
909.878	16238
909.993	16242
910.108	16299
910.224	16265
910.339	16181
910.454	16105
910.57	16082
910.685	16078
910.8	16318
910.915	16276
911.03	16048
911.145	15964
911.259	15823
911.374	15911
911.489	15812
911.604	15736
911.718	15660
911.833	15728
911.947	15561
912.062	15443
912.176	15698
912.291	15614
912.405	15549
912.519	15831
912.633	15797
912.748	15679
912.862	15564
912.976	15488
913.09	15370
913.204	15393
913.318	15488
913.431	15530
913.545	15614
913.659	15568
913.772	15428
913.886	15180
914	15313
914.113	15348
914.226	15298
914.34	15332
914.453	15241
914.566	15192
914.68	15085
914.793	15123
914.906	14880
915.019	14819
915.132	14815
915.245	14895
915.358	14811
915.47	14861
915.583	14849
915.696	14979
915.809	14918
915.921	15017
916.034	14838
916.146	14830
916.259	14792
916.371	14819
916.483	14914
916.595	14651
916.708	14727
916.82	14712
916.932	14610
917.044	14667
917.156	14579
917.268	14594
917.38	14465
917.491	14583
917.603	14568
917.715	14545
917.826	14587
917.938	14473
918.049	14313
918.161	14438
918.272	14552
918.384	14659
918.495	14484
918.606	14298
918.717	14339
918.828	14374
918.939	14336
919.05	14111
919.161	14244
919.272	14103
919.383	14229
919.494	14317
919.604	14457
919.715	14225
919.826	14256
919.936	14225
920.047	14336
920.157	14263
920.267	14484
920.378	14263
920.488	14286
920.598	14499
920.708	14530
920.818	14431
920.928	14351
921.038	14568
921.148	14537
921.258	14206
921.368	14153
921.477	14035
921.587	13982
921.697	13788
921.806	13982
921.916	13856
922.025	13666
922.134	13696
922.244	13632
922.353	13696
922.462	13548
922.571	13430
922.68	13354
922.789	13293
922.898	13362
923.007	13274
923.116	13354
923.224	13251
923.333	13304
923.442	13213
923.55	13168
923.659	13091
923.767	13129
923.876	13114
923.984	13198
924.092	13027
924.201	13061
924.309	13046
924.417	13008
924.525	12875
924.633	12985
924.741	13677
924.849	12791
924.956	12897
925.064	12734
925.172	12642
925.279	12711
925.387	12814
925.494	12711
925.602	12871
925.709	12741
925.816	12650
925.924	12654
926.031	12738
926.138	12730
926.245	12730
926.352	12585
926.459	12711
926.566	12840
926.673	12642
926.779	12574
926.886	12441
926.993	12369
927.099	12346
927.206	12220
927.312	12201
927.419	12361
927.525	12277
927.631	12323
927.737	12182
927.843	12232
927.95	12007
928.056	12102
928.162	12209
928.267	12216
928.373	12627
928.479	12155
928.585	12041
928.69	12015
928.796	12190
928.901	12068
929.007	11908
929.112	11923
929.218	11973
929.323	11847
929.428	11885
929.533	11996
929.638	11779
929.743	11840
929.848	11855
929.953	11847
930.058	11634
930.163	11558
930.267	11581
930.372	11699
930.477	11467
930.581	11733
930.685	11638
930.79	11448
930.894	11455
930.998	11444
931.103	11577
931.207	11242
931.311	11204
931.415	10976
931.519	10778
931.623	10850
