Data from test_V78500241_2288.txt Node
Date: Fri Mar 25 15:25:47 CST 2022
User: usil
Spectrometer: V785-0024
Trigger mode: 0
Integration Time (sec): 4.000000E-1
Scans to average: 1
Nonlinearity correction enabled: false
Boxcar width: 0
Storing dark spectrum: false
XAxis mode: Wavelengths
Number of Pixels in Spectrum: 1024
>>>>>Begin Spectral Data<<<<<
801.071	27705
801.214	27747
801.356	27370
801.499	27386
801.641	27146
801.783	27279
801.926	27359
802.068	27386
802.211	27131
802.353	27104
802.496	26940
802.638	26910
802.78	26963
802.923	26872
803.065	26796
803.208	26811
803.35	26891
803.492	26998
803.635	27184
803.777	26876
803.919	27218
804.061	27412
804.204	27112
804.346	26998
804.488	26906
804.63	27173
804.773	26910
804.915	27116
805.057	27150
805.199	27036
805.341	27203
805.483	27252
805.626	27161
805.768	27226
805.91	27260
806.052	27332
806.194	27142
806.336	27302
806.478	27184
806.62	27188
806.762	27310
806.904	27454
807.046	27504
807.188	27603
807.33	27720
807.472	27682
807.614	27633
807.756	27599
807.898	27443
808.04	27393
808.182	27511
808.324	27709
808.465	27557
808.607	27724
808.749	27949
808.891	27956
809.033	28013
809.174	28006
809.316	27964
809.458	27865
809.6	27816
809.741	27964
809.883	27808
810.025	28135
810.166	28059
810.308	28086
810.45	28040
810.591	28063
810.733	27823
810.875	27911
811.016	27656
811.158	27698
811.299	27831
811.441	28169
811.582	28154
811.724	27876
811.865	27823
812.007	27797
812.148	27854
812.29	27922
812.431	28006
812.573	28188
812.714	28207
812.855	28295
812.997	28382
813.138	28584
813.279	28535
813.421	28337
813.562	28249
813.703	28204
813.845	28112
813.986	27819
814.127	27705
814.268	27542
814.41	27523
814.551	27500
814.692	27549
814.833	27553
814.974	27519
815.115	27519
815.256	27504
815.397	27275
815.539	27348
815.68	27408
815.821	27359
815.962	27260
816.103	27272
816.244	27192
816.385	27074
816.526	27173
816.666	26914
816.807	26781
816.948	26826
817.089	26883
817.23	26800
817.371	26788
817.512	26883
817.653	26891
817.793	26845
817.934	26861
818.075	26861
818.216	26849
818.356	26868
818.497	26724
818.638	26537
818.778	26568
818.919	26533
819.06	26705
819.2	26739
819.341	26777
819.481	26804
819.622	26914
819.762	27077
819.903	27074
820.043	26880
820.184	26956
820.324	26883
820.465	26849
820.605	26849
820.746	26872
820.886	26807
821.026	26921
821.167	26804
821.307	26883
821.447	26705
821.588	26731
821.728	26442
821.868	26499
822.008	26271
822.149	26161
822.289	26271
822.429	25974
822.569	25947
822.709	26062
822.849	25959
822.99	25883
823.13	25681
823.27	25632
823.41	25590
823.55	25597
823.69	25719
823.83	25708
823.97	25544
824.11	25415
824.25	25373
824.389	25396
824.529	25445
824.669	25400
824.809	25540
824.949	25457
825.089	25502
825.228	25457
825.368	25304
825.508	25278
825.648	25251
825.787	25244
825.927	25221
826.067	25263
826.206	25285
826.346	25266
826.485	25202
826.625	25335
826.765	25358
826.904	25266
827.044	25133
827.183	25019
827.323	24996
827.462	24897
827.601	25019
827.741	24875
827.88	24943
828.02	24856
828.159	24916
828.298	24886
828.437	25095
828.577	24924
828.716	24977
828.855	24791
828.994	24616
829.134	24673
829.273	24688
829.412	24627
829.551	24726
829.69	24574
829.829	24631
829.968	24783
830.107	24753
830.246	24650
830.385	24555
830.524	24593
830.663	24551
830.802	24365
830.941	24338
831.08	24289
831.219	24357
831.357	24452
831.496	24467
831.635	24388
831.774	24194
831.913	24155
832.051	24114
832.19	24110
832.329	24140
832.467	23939
832.606	23893
832.744	23969
832.883	23904
833.022	23775
833.16	24015
833.299	23961
833.437	23954
833.576	24022
833.714	24079
833.852	24194
833.991	24129
834.129	24110
834.267	24098
834.406	23988
834.544	24011
834.682	24041
834.821	24018
834.959	24186
835.097	24045
835.235	24091
835.373	23897
835.511	23874
835.65	23874
835.788	23954
835.926	23836
836.064	23726
836.202	23710
836.34	23771
836.478	23897
836.615	23847
836.753	23904
836.891	23889
837.029	23798
837.167	23771
837.305	23798
837.443	23699
837.58	23615
837.718	23657
837.856	23653
837.993	23714
838.131	23619
838.269	23554
838.406	23630
838.544	23531
838.681	23402
838.819	23337
838.956	23227
839.094	23117
839.231	23242
839.369	23353
839.506	23646
839.643	23455
839.781	23242
839.918	23109
840.055	23174
840.193	23029
840.33	23220
840.467	23174
840.604	23166
840.742	23261
840.879	23048
841.016	23060
841.153	23060
841.29	23140
841.427	23136
841.564	23018
841.701	23105
841.838	23044
841.975	22980
842.112	22987
842.249	22900
842.385	22828
842.522	22961
842.659	22946
842.796	22752
842.933	22850
843.069	22866
843.206	22790
843.343	22938
843.479	22862
843.616	22828
843.752	22618
843.889	22577
844.025	22664
844.162	22649
844.298	22592
844.435	22565
844.571	22596
844.708	22694
844.844	22721
844.98	22774
845.117	22767
845.253	22622
845.389	22443
845.525	22493
845.661	22352
845.798	22234
845.934	22295
846.07	22379
846.206	22436
846.342	22394
846.478	22344
846.614	22246
846.75	22040
846.886	22036
847.022	22226
847.158	22238
847.294	22105
847.429	22082
847.565	22048
847.701	22322
847.837	21766
847.972	21846
848.108	21823
848.244	21911
848.379	21679
848.515	21694
848.65	21713
848.786	21625
848.921	21770
849.057	21789
849.192	21747
849.328	21732
849.463	21743
849.598	21656
849.734	21462
849.869	21428
850.004	21473
850.14	21466
850.275	21462
850.41	21283
850.545	21397
850.68	21378
850.815	21458
850.95	21454
851.085	21622
851.22	21610
851.355	21462
851.49	21348
851.625	21367
851.76	21454
851.895	21298
852.03	21283
852.165	21458
852.299	21564
852.434	21603
852.569	21382
852.703	21454
852.838	21454
852.973	21644
853.107	21507
853.242	21435
853.376	21310
853.511	21085
853.645	21233
853.78	21363
853.914	21363
854.048	21329
854.183	21325
854.317	21359
854.451	21408
854.585	21241
854.72	21241
854.854	21237
854.988	21169
855.122	21268
855.256	21108
855.39	21245
855.524	21329
855.658	21218
855.792	21275
855.926	21291
856.06	21351
856.194	21458
856.327	21192
856.461	21203
856.595	21192
856.729	21161
856.862	21370
856.996	21272
857.13	21447
857.263	21264
857.397	21416
857.53	21275
857.664	21321
857.797	21332
857.931	21340
858.064	21275
858.197	21279
858.331	21294
858.464	21096
858.597	21165
858.731	21348
858.864	21176
858.997	21051
859.13	21161
859.263	21287
859.396	21275
859.529	21237
859.662	21195
859.795	21272
859.928	21245
860.061	21515
860.194	21462
860.327	21298
860.46	21256
860.592	21355
860.725	21389
860.858	21275
860.99	21230
861.123	21256
861.256	21081
861.388	21287
861.521	22086
861.653	21211
861.786	20998
861.918	21074
862.05	21173
862.183	21218
862.315	21207
862.447	21214
862.58	21051
862.712	20990
862.844	20902
862.976	21096
863.108	20990
863.24	21211
863.372	20963
863.504	20929
863.636	20937
863.768	20956
863.9	21127
864.032	20883
864.164	20823
864.296	20998
864.428	21043
864.559	21039
864.691	21020
864.823	20982
864.954	20986
865.086	20872
865.217	20948
865.349	20811
865.48	20883
865.612	20853
865.743	21024
865.875	20826
866.006	20819
866.137	20906
866.269	20773
866.4	20861
866.531	20811
866.662	20701
866.793	20838
866.924	20724
867.055	20883
867.186	20811
867.317	20823
867.448	20689
867.579	20849
867.71	20689
867.841	20606
867.972	20708
868.103	20781
868.233	20743
868.364	20781
868.495	20876
868.625	21028
868.756	21119
868.886	20895
869.017	21051
869.147	21116
869.278	21165
869.408	21058
869.539	21009
869.669	21074
869.799	21062
869.929	21211
870.06	21173
870.19	21428
870.32	21188
870.45	21378
870.58	21367
870.71	21549
870.84	21431
870.97	21420
871.1	21382
871.23	21663
871.36	21705
871.489	21561
871.619	21389
871.749	21564
871.879	21583
872.008	21762
872.138	21686
872.267	21599
872.397	21454
872.526	21336
872.656	21473
872.785	21431
872.915	21679
873.044	21789
873.173	21690
873.303	21644
873.432	21709
873.561	21732
873.69	21705
873.819	21717
873.948	21709
874.077	21690
874.206	21595
874.335	21561
874.464	21831
874.593	21854
874.722	21861
874.851	21854
874.979	22010
875.108	21953
875.237	21766
875.365	21842
875.494	21770
875.623	22013
875.751	21770
875.88	21865
876.008	22032
876.136	22162
876.265	22337
876.393	22333
876.521	22402
876.65	22333
876.778	22284
876.906	22333
877.034	22169
877.162	22192
877.29	22181
877.418	22226
877.546	22344
877.674	22325
877.802	22234
877.93	22246
878.058	22223
878.185	22086
878.313	22226
878.441	22226
878.568	22078
878.696	22158
878.824	22238
878.951	22249
879.079	22489
879.206	22455
879.333	22375
879.461	22287
879.588	22249
879.715	22398
879.842	22402
879.97	22360
880.097	21960
880.224	22070
880.351	22154
880.478	22032
880.605	21956
880.732	22135
880.859	22287
880.986	22059
881.112	22120
881.239	21941
881.366	21793
881.493	21663
881.619	21705
881.746	21682
881.872	21625
881.999	21633
882.125	21641
882.252	21641
882.378	21728
882.505	21762
882.631	21553
882.757	21443
882.883	21458
883.01	21439
883.136	21176
883.262	21161
883.388	21165
883.514	21336
883.64	21275
883.766	21241
883.892	21173
884.018	21138
884.143	21176
884.269	21336
884.395	21127
884.52	20952
884.646	20941
884.772	20994
884.897	20895
885.023	21047
885.148	21058
885.274	21119
885.399	20967
885.524	20880
885.65	20937
885.775	21043
885.9	20834
886.025	21089
886.15	20998
886.275	20941
886.4	20971
886.525	20998
886.65	20941
886.775	20792
886.9	21020
887.025	21180
887.149	20921
887.274	20811
887.399	20724
887.523	20769
887.648	20689
887.773	20587
887.897	20815
888.021	20910
888.146	20667
888.27	20708
888.395	20804
888.519	20739
888.643	20788
888.767	20682
888.891	20564
889.015	20564
889.139	20651
889.263	20564
889.387	20602
889.511	20701
889.635	20655
889.759	20526
889.883	20583
890.006	20446
890.13	20560
890.254	20419
890.377	20385
890.501	20377
890.624	20320
890.748	20336
890.871	20271
890.995	20119
891.118	20138
891.241	20187
891.364	20092
891.488	20187
891.611	20050
891.734	20282
891.857	20191
891.98	20016
892.103	19959
892.226	20073
892.349	20122
892.471	19856
892.594	19963
892.717	20012
892.839	19940
892.962	20096
893.085	20062
893.207	19894
893.33	19967
893.452	19864
893.575	20065
893.697	20027
893.819	20145
893.941	20199
894.064	20065
894.186	20016
894.308	19944
894.43	20069
894.552	20259
894.674	20100
894.796	19841
894.918	20005
895.04	19928
895.161	20077
895.283	19970
895.405	19902
895.526	19967
895.648	20001
895.769	19993
895.891	20115
896.012	20065
896.134	20073
896.255	19928
896.376	19967
896.498	20008
896.619	20054
896.74	20012
896.861	20024
896.982	20343
897.103	20454
897.224	20298
897.345	20172
897.466	20240
897.587	20320
897.708	20431
897.828	20332
897.949	20172
898.07	20081
898.19	20210
898.311	20313
898.431	20126
898.552	20176
898.672	20336
898.792	20282
898.913	20149
899.033	20161
899.153	20008
899.273	19951
899.393	20039
899.513	19970
899.633	19887
899.753	20107
899.873	19967
899.993	19925
900.113	19928
900.232	19959
900.352	19902
900.472	19875
900.591	19655
900.711	19913
900.83	19700
900.95	19769
901.069	19928
901.189	19704
901.308	19464
901.427	19430
901.546	19354
901.665	19365
901.784	19457
901.904	19065
902.023	19080
902.141	18947
902.26	18935
902.379	18970
902.498	18825
902.617	18764
902.735	18886
902.854	18787
902.973	18661
903.091	18547
903.21	18528
903.328	18460
903.446	18380
903.565	18407
903.683	18391
903.801	18216
903.919	18296
904.038	18220
904.156	18076
904.274	18194
904.392	18095
904.51	18114
904.627	18045
904.745	18174
904.863	18129
904.981	17942
905.098	17703
905.216	17764
905.334	17790
905.451	17828
905.569	17718
905.686	17901
905.803	17855
905.921	17501
906.038	17672
906.155	17547
906.272	17509
906.389	17429
906.506	17307
906.623	17341
906.74	17330
906.857	17189
906.974	17124
907.091	17341
907.208	17528
907.324	17307
907.441	17185
907.557	17067
907.674	17003
907.79	16995
907.907	16972
908.023	17003
908.139	17128
908.256	17048
908.372	16854
908.488	16850
908.604	16843
908.72	16698
908.836	16717
908.952	16691
909.068	16691
909.184	16843
909.3	16717
909.415	16744
909.531	16679
909.647	16417
909.762	16470
909.878	16352
909.993	16554
910.108	16440
910.224	16428
910.339	16348
910.454	16230
910.57	16261
910.685	16207
910.8	16493
910.915	16379
911.03	16246
911.145	16040
911.259	16036
911.374	16128
911.489	15937
911.604	16006
911.718	15819
911.833	15732
911.947	15663
912.062	15549
912.176	15781
912.291	15732
912.405	15816
912.519	16044
912.633	15949
912.748	15861
912.862	15781
912.976	15542
913.09	15519
913.204	15656
913.318	15507
913.431	15690
913.545	15705
913.659	15656
913.772	15507
913.886	15416
914	15439
914.113	15485
914.226	15584
914.34	15416
914.453	15275
914.566	15488
914.68	15279
914.793	15230
914.906	15138
915.019	14979
915.132	14941
915.245	14941
915.358	15017
915.47	14921
915.583	15127
915.696	15032
915.809	15165
915.921	15093
916.034	15001
916.146	14918
916.259	14960
916.371	14921
916.483	15017
916.595	14792
916.708	14830
916.82	14830
916.932	14739
917.044	14857
917.156	14712
917.268	14716
917.38	14640
917.491	14659
917.603	14655
917.715	14773
917.826	14632
917.938	14583
918.049	14651
918.161	14568
918.272	14670
918.384	14712
918.495	14701
918.606	14514
918.717	14317
918.828	14473
918.939	14454
919.05	14355
919.161	14495
919.272	14225
919.383	14332
919.494	14412
919.604	14590
919.715	14366
919.826	14370
919.936	14408
920.047	14499
920.157	14454
920.267	14594
920.378	14385
920.488	14309
920.598	14514
920.708	14682
920.818	14522
920.928	14530
921.038	14705
921.148	14648
921.258	14381
921.368	14324
921.477	14126
921.587	14145
921.697	13970
921.806	14153
921.916	13963
922.025	13871
922.134	13761
922.244	13734
922.353	13807
922.462	13655
922.571	13601
922.68	13529
922.789	13453
922.898	13499
923.007	13365
923.116	13533
923.224	13362
923.333	13324
923.442	13270
923.55	13217
923.659	13365
923.767	13335
923.876	13213
923.984	13293
924.092	13194
924.201	13213
924.309	13160
924.417	13183
924.525	13000
924.633	13171
924.741	13928
924.849	12882
924.956	13057
925.064	12844
925.172	12844
925.279	12760
925.387	12867
925.494	12886
925.602	13050
925.709	12810
925.816	12719
925.924	12791
926.031	12779
926.138	12779
926.245	12806
926.352	12639
926.459	12886
926.566	12943
926.673	12597
926.779	12631
926.886	12604
926.993	12494
927.099	12418
927.206	12399
927.312	12342
927.419	12494
927.525	12346
927.631	12494
927.737	12353
927.843	12197
927.95	12072
928.056	12224
928.162	12296
928.267	12353
928.373	12768
928.479	12376
928.585	12083
928.69	12194
928.796	12194
928.901	12129
929.007	11878
929.112	12148
929.218	12030
929.323	12019
929.428	12015
929.533	12102
929.638	11927
929.743	11973
929.848	11958
929.953	11935
930.058	11741
930.163	11600
930.267	11642
930.372	11756
930.477	11581
930.581	11908
930.685	11699
930.79	11653
930.894	11684
930.998	11551
931.103	11688
931.207	11322
931.311	11277
931.415	11159
931.519	11083
931.623	10915
