Data from test_V78500241_2574.txt Node
Date: Fri Mar 25 15:27:46 CST 2022
User: usil
Spectrometer: V785-0024
Trigger mode: 0
Integration Time (sec): 4.000000E-1
Scans to average: 1
Nonlinearity correction enabled: false
Boxcar width: 0
Storing dark spectrum: false
XAxis mode: Wavelengths
Number of Pixels in Spectrum: 1024
>>>>>Begin Spectral Data<<<<<
801.071	27340
801.214	27287
801.356	27055
801.499	26929
801.641	26785
801.783	26815
801.926	27028
802.068	26857
802.211	26731
802.353	26750
802.496	26526
802.638	26598
802.78	26507
802.923	26453
803.065	26301
803.208	26457
803.35	26484
803.492	26590
803.635	26579
803.777	26507
803.919	26651
804.061	27013
804.204	26678
804.346	26514
804.488	26579
804.63	26568
804.773	26545
804.915	26674
805.057	26754
805.199	26575
805.341	26621
805.483	26769
805.626	26598
805.768	26648
805.91	26693
806.052	26845
806.194	26678
806.336	26910
806.478	26693
806.62	26693
806.762	26864
806.904	27005
807.046	27180
807.188	27226
807.33	27306
807.472	27230
807.614	27074
807.756	27036
807.898	27047
808.04	27009
808.182	26967
808.324	26963
808.465	27081
808.607	27119
808.749	27329
808.891	27344
809.033	27507
809.174	27306
809.316	27370
809.458	27435
809.6	27203
809.741	27469
809.883	27568
810.025	27652
810.166	27656
810.308	27583
810.45	27538
810.591	27458
810.733	27401
810.875	27226
811.016	27291
811.158	27195
811.299	27542
811.441	27568
811.582	27625
811.724	27401
811.865	27317
812.007	27203
812.148	27279
812.29	27344
812.431	27454
812.573	27675
812.714	27667
812.855	27812
812.997	27937
813.138	28040
813.279	27907
813.421	27766
813.562	27736
813.703	27504
813.845	27485
813.986	27199
814.127	27074
814.268	27070
814.41	27028
814.551	26754
814.692	26944
814.833	26857
814.974	26933
815.115	27062
815.256	26861
815.397	26819
815.539	26849
815.68	26746
815.821	26640
815.962	26716
816.103	26686
816.244	26693
816.385	26609
816.526	26488
816.666	26298
816.807	26202
816.948	26358
817.089	26259
817.23	26248
817.371	26210
817.512	26332
817.653	26237
817.793	26183
817.934	26415
818.075	26309
818.216	26168
818.356	26103
818.497	26119
818.638	25974
818.778	26043
818.919	25974
819.06	26134
819.2	26332
819.341	26263
819.481	26225
819.622	26305
819.762	26594
819.903	26583
820.043	26541
820.184	26412
820.324	26343
820.465	26453
820.605	26317
820.746	26336
820.886	26259
821.026	26271
821.167	26381
821.307	26419
821.447	26267
821.588	26183
821.728	26142
821.868	25921
822.008	25753
822.149	25700
822.289	25849
822.429	25468
822.569	25438
822.709	25411
822.849	25274
822.99	25240
823.13	25164
823.27	25187
823.41	25114
823.55	24947
823.69	25084
823.83	25118
823.97	24951
824.11	24932
824.25	24772
824.389	24882
824.529	24932
824.669	24920
824.809	24840
824.949	24924
825.089	24859
825.228	24894
825.368	24673
825.508	24642
825.648	24779
825.787	24688
825.927	24753
826.067	24715
826.206	24970
826.346	24802
826.485	24935
826.625	24760
826.765	24951
826.904	24821
827.044	24479
827.183	24646
827.323	24350
827.462	24608
827.601	24505
827.741	24536
827.88	24570
828.02	24395
828.159	24460
828.298	24456
828.437	24593
828.577	24414
828.716	24467
828.855	24479
828.994	24144
829.134	24239
829.273	24182
829.412	24186
829.551	24186
829.69	24152
829.829	24174
829.968	24342
830.107	24311
830.246	24243
830.385	24076
830.524	24102
830.663	23980
830.802	23851
830.941	23851
831.08	23802
831.219	23851
831.357	23813
831.496	24110
831.635	23745
831.774	23752
831.913	23745
832.051	23657
832.19	23585
832.329	23543
832.467	23501
832.606	23463
832.744	23444
832.883	23482
833.022	23368
833.16	23535
833.299	23539
833.437	23539
833.576	23524
833.714	23463
833.852	23558
833.991	23551
834.129	23608
834.267	23623
834.406	23562
834.544	23528
834.682	23509
834.821	23501
834.959	23722
835.097	23554
835.235	23661
835.373	23665
835.511	23463
835.65	23436
835.788	23406
835.926	23288
836.064	23162
836.202	23250
836.34	23326
836.478	23474
836.615	23299
836.753	23349
836.891	23452
837.029	23372
837.167	23402
837.305	23368
837.443	23383
837.58	23288
837.718	23292
837.856	23261
837.993	23227
838.131	23200
838.269	23147
838.406	23132
838.544	23109
838.681	22953
838.819	22968
838.956	22691
839.094	22691
839.231	22793
839.369	22828
839.506	23121
839.643	22915
839.781	22869
839.918	22653
840.055	22812
840.193	22615
840.33	22694
840.467	22694
840.604	22717
840.742	22999
840.879	22713
841.016	22698
841.153	22596
841.29	22672
841.427	22599
841.564	22611
841.701	22440
841.838	22691
841.975	22519
842.112	22675
842.249	22577
842.385	22497
842.522	22801
842.659	22569
842.796	22500
842.933	22432
843.069	22318
843.206	22424
843.343	22459
843.479	22470
843.616	22314
843.752	22257
843.889	22200
844.025	22272
844.162	22196
844.298	22226
844.435	22177
844.571	22177
844.708	22314
844.844	22428
844.98	22413
845.117	22329
845.253	22207
845.389	22002
845.525	22150
845.661	22040
845.798	21869
845.934	22021
846.07	21953
846.206	21994
846.342	22010
846.478	21888
846.614	21629
846.75	21629
846.886	21755
847.022	21736
847.158	21812
847.294	21690
847.429	21736
847.565	21698
847.701	21918
847.837	21473
847.972	21473
848.108	21515
848.244	21306
848.379	21317
848.515	21214
848.65	21214
848.786	21321
848.921	21298
849.057	21344
849.192	21313
849.328	21336
849.463	21192
849.598	21252
849.734	21226
849.869	21142
850.004	21074
850.14	21024
850.275	21032
850.41	21047
850.545	21036
850.68	21055
850.815	21112
850.95	20994
851.085	21272
851.22	21218
851.355	20986
851.49	20941
851.625	20902
851.76	21005
851.895	20914
852.03	20891
852.165	21058
852.299	20979
852.434	21138
852.569	21173
852.703	21074
852.838	21017
852.973	21093
853.107	21096
853.242	21009
853.376	20876
853.511	20804
853.645	20781
853.78	20975
853.914	20937
854.048	20880
854.183	20849
854.317	20944
854.451	21058
854.585	20838
854.72	20891
854.854	21013
854.988	20785
855.122	20834
855.256	20834
855.39	20944
855.524	21047
855.658	20838
855.792	20815
855.926	20849
856.06	20853
856.194	20842
856.327	20906
856.461	20800
856.595	20804
856.729	20887
856.862	20960
856.996	20826
857.13	20963
857.263	20998
857.397	20941
857.53	20804
857.664	20868
857.797	20777
857.931	20986
858.064	20800
858.197	21009
858.331	20857
858.464	20887
858.597	20788
858.731	20853
858.864	20788
858.997	20811
859.13	20861
859.263	20948
859.396	20963
859.529	20899
859.662	20788
859.795	20807
859.928	20872
860.061	21047
860.194	20929
860.327	20986
860.46	20937
860.592	20975
860.725	21036
860.858	20914
860.99	20880
861.123	20845
861.256	20743
861.388	20914
861.521	21583
861.653	20739
861.786	20613
861.918	20640
862.05	20796
862.183	20883
862.315	20667
862.447	20975
862.58	20788
862.712	20514
862.844	20476
862.976	20648
863.108	20552
863.24	21104
863.372	20465
863.504	20594
863.636	20541
863.768	20583
863.9	20495
864.032	20590
864.164	20556
864.296	20575
864.428	20682
864.559	20735
864.691	20651
864.823	20533
864.954	20609
865.086	20568
865.217	20431
865.349	20473
865.48	20358
865.612	20389
865.743	20697
865.875	20442
866.006	20381
866.137	20366
866.269	20336
866.4	20507
866.531	20396
866.662	20374
866.793	20438
866.924	20336
867.055	20415
867.186	20377
867.317	20393
867.448	20469
867.579	20286
867.71	20313
867.841	20298
867.972	20461
868.103	20476
868.233	20381
868.364	20473
868.495	20507
868.625	20678
868.756	20777
868.886	20606
869.017	20735
869.147	20834
869.278	20727
869.408	20743
869.539	20682
869.669	20708
869.799	20674
869.929	20746
870.06	20804
870.19	20899
870.32	20849
870.45	20956
870.58	21036
870.71	21081
870.84	21112
870.97	21055
871.1	21142
871.23	21161
871.36	21165
871.489	21123
871.619	21233
871.749	21233
871.879	21344
872.008	21420
872.138	21310
872.267	21218
872.397	21100
872.526	21051
872.656	21123
872.785	21142
872.915	21245
873.044	21374
873.173	21268
873.303	21150
873.432	21340
873.561	21355
873.69	21222
873.819	21146
873.948	21260
874.077	21317
874.206	21222
874.335	21207
874.464	21435
874.593	21572
874.722	21511
874.851	21606
874.979	21477
875.108	21526
875.237	21408
875.365	21378
875.494	21580
875.623	21576
875.751	21545
875.88	21587
876.008	21614
876.136	21686
876.265	21987
876.393	22002
876.521	21869
876.65	21987
876.778	22013
876.906	21945
877.034	21899
877.162	21835
877.29	21854
877.418	21941
877.546	21781
877.674	21819
877.802	21884
877.93	21979
878.058	21766
878.185	21652
878.313	21884
878.441	21861
878.568	21667
878.696	21854
878.824	21907
878.951	21945
879.079	22086
879.206	22086
879.333	22051
879.461	21892
879.588	22029
879.715	22032
879.842	22223
879.97	22021
880.097	21671
880.224	21701
880.351	21762
880.478	21739
880.605	21538
880.732	21671
880.859	21953
880.986	21812
881.112	21751
881.239	21599
881.366	21344
881.493	21256
881.619	21214
881.746	21340
881.872	21252
881.999	21340
882.125	21089
882.252	21302
882.378	21222
882.505	21401
882.631	21138
882.757	20975
882.883	21058
883.01	20952
883.136	20921
883.262	20902
883.388	20857
883.514	20929
883.64	21001
883.766	20834
883.892	20724
884.018	20765
884.143	20982
884.269	20986
884.395	20796
884.52	20609
884.646	20708
884.772	20507
884.897	20549
885.023	20670
885.148	20727
885.274	20853
885.399	20655
885.524	20667
885.65	20655
885.775	20606
885.9	20644
886.025	20796
886.15	20682
886.275	20545
886.4	20480
886.525	20568
886.65	20629
886.775	20549
886.9	20800
887.025	20769
887.149	20651
887.274	20507
887.399	20355
887.523	20343
887.648	20377
887.773	20294
887.897	20469
888.021	20507
888.146	20305
888.27	20431
888.395	20415
888.519	20343
888.643	20533
888.767	20370
888.891	20298
889.015	20119
889.139	20259
889.263	20168
889.387	20347
889.511	20415
889.635	20240
889.759	20199
889.883	20168
890.006	20119
890.13	20256
890.254	20161
890.377	20008
890.501	20012
890.624	19845
890.748	19947
890.871	19936
890.995	19757
891.118	19795
891.241	19909
891.364	19860
891.488	19902
891.611	19811
891.734	19811
891.857	19837
891.98	19803
892.103	19879
892.226	19742
892.349	19750
892.471	19647
892.594	19738
892.717	19788
892.839	19616
892.962	19788
893.085	19666
893.207	19662
893.33	19582
893.452	19582
893.575	19658
893.697	19704
893.819	19807
893.941	19925
894.064	19799
894.186	19613
894.308	19556
894.43	19727
894.552	19906
894.674	19727
894.796	19693
894.918	19750
895.04	19647
895.161	19674
895.283	19742
895.405	19616
895.526	19696
895.648	19533
895.769	19624
895.891	19715
896.012	19814
896.134	19712
896.255	19616
896.376	19677
896.498	19738
896.619	19769
896.74	19643
896.861	19772
896.982	20054
897.103	20119
897.224	19921
897.345	20012
897.466	19830
897.587	19894
897.708	20043
897.828	19944
897.949	19917
898.07	19822
898.19	19788
898.311	19944
898.431	19833
898.552	19898
898.672	19921
898.792	19982
898.913	19890
899.033	19887
899.153	19841
899.273	19628
899.393	19681
899.513	19746
899.633	19700
899.753	19727
899.873	19601
899.993	19765
900.113	19647
900.232	19658
900.352	19582
900.472	19476
900.591	19221
900.711	19460
900.83	19510
900.95	19559
901.069	19434
901.189	19346
901.308	19145
901.427	19015
901.546	19012
901.665	19141
901.784	19088
901.904	18886
902.023	18829
902.141	18646
902.26	18528
902.379	18601
902.498	18563
902.617	18532
902.735	18460
902.854	18479
902.973	18414
903.091	18285
903.21	18148
903.328	18194
903.446	18091
903.565	18083
903.683	18045
903.801	18019
903.919	17992
904.038	18030
904.156	17878
904.274	17904
904.392	17790
904.51	17771
904.627	17794
904.745	17843
904.863	17889
904.981	17547
905.098	17528
905.216	17478
905.334	17585
905.451	17573
905.569	17433
905.686	17543
905.803	17478
905.921	17288
906.038	17395
906.155	17200
906.272	17136
906.389	17128
906.506	17052
906.623	17041
906.74	16987
906.857	16900
906.974	16900
907.091	17162
907.208	17121
907.324	16991
907.441	17025
907.557	16744
907.674	16797
907.79	16660
907.907	16664
908.023	16763
908.139	16672
908.256	16717
908.372	16622
908.488	16630
908.604	16546
908.72	16447
908.836	16432
908.952	16462
909.068	16546
909.184	16630
909.3	16542
909.415	16443
909.531	16443
909.647	16272
909.762	16215
909.878	16188
909.993	16234
910.108	16135
910.224	16097
910.339	16204
910.454	16071
910.57	16051
910.685	15930
910.8	16162
910.915	16101
911.03	15922
911.145	15892
911.259	15861
911.374	15808
911.489	15717
911.604	15652
911.718	15519
911.833	15534
911.947	15485
912.062	15492
912.176	15519
912.291	15542
912.405	15492
912.519	15759
912.633	15736
912.748	15542
912.862	15572
912.976	15340
913.09	15211
913.204	15283
913.318	15370
913.431	15416
913.545	15450
913.659	15435
913.772	15313
913.886	15218
914	15203
914.113	15268
914.226	15306
914.34	15108
914.453	14979
914.566	15195
914.68	15013
914.793	15108
914.906	14857
915.019	14849
915.132	14830
915.245	14769
915.358	14724
915.47	14727
915.583	14796
915.696	14750
915.809	14990
915.921	14899
916.034	14701
916.146	14686
916.259	14606
916.371	14796
916.483	14792
916.595	14629
916.708	14583
916.82	14693
916.932	14629
917.044	14541
917.156	14473
917.268	14419
917.38	14549
917.491	14476
917.603	14377
917.715	14507
917.826	14579
917.938	14362
918.049	14206
918.161	14351
918.272	14530
918.384	14545
918.495	14450
918.606	14282
918.717	14225
918.828	14263
918.939	14248
919.05	14058
919.161	14149
919.272	13826
919.383	14149
919.494	14309
919.604	14317
919.715	14161
919.826	14084
919.936	14172
920.047	14221
920.157	14161
920.267	14339
920.378	14123
920.488	14153
920.598	14240
920.708	14431
920.818	14317
920.928	14267
921.038	14526
921.148	14419
921.258	14130
921.368	14107
921.477	13997
921.587	13887
921.697	13753
921.806	13947
921.916	13776
922.025	13674
922.134	13590
922.244	13518
922.353	13605
922.462	13419
922.571	13381
922.68	13263
922.789	13202
922.898	13152
923.007	13183
923.116	13331
923.224	13232
923.333	13285
923.442	13099
923.55	13042
923.659	13107
923.767	13129
923.876	12985
923.984	13065
924.092	13023
924.201	12981
924.309	12951
924.417	12993
924.525	12890
924.633	13000
924.741	13826
924.849	12703
924.956	12783
925.064	12715
925.172	12601
925.279	12601
925.387	12715
925.494	12722
925.602	12798
925.709	12673
925.816	12582
925.924	12616
926.031	12696
926.138	12555
926.245	12635
926.352	12467
926.459	12658
926.566	12715
926.673	12521
926.779	12429
926.886	12361
926.993	12216
927.099	12262
927.206	12197
927.312	12114
927.419	12201
927.525	12270
927.631	12353
927.737	12106
927.843	12057
927.95	11992
928.056	12057
928.162	12045
928.267	12110
928.373	12547
928.479	12121
928.585	11935
928.69	11984
928.796	12003
928.901	11885
929.007	11851
929.112	11927
929.218	11878
929.323	11817
929.428	11847
929.533	11904
929.638	11726
929.743	11688
929.848	11729
929.953	11649
930.058	11657
930.163	11493
930.267	11554
930.372	11665
930.477	11395
930.581	11570
930.685	11547
930.79	11391
930.894	11334
930.998	11334
931.103	11558
931.207	11056
931.311	11003
931.415	11003
931.519	10774
931.623	10755
