Data from test_V78500241_2819.txt Node
Date: Fri Mar 25 15:29:29 CST 2022
User: usil
Spectrometer: V785-0024
Trigger mode: 0
Integration Time (sec): 4.000000E-1
Scans to average: 1
Nonlinearity correction enabled: false
Boxcar width: 0
Storing dark spectrum: false
XAxis mode: Wavelengths
Number of Pixels in Spectrum: 1024
>>>>>Begin Spectral Data<<<<<
801.071	27252
801.214	27218
801.356	27020
801.499	26864
801.641	26902
801.783	26769
801.926	26857
802.068	26792
802.211	26731
802.353	26617
802.496	26492
802.638	26381
802.78	26294
802.923	26328
803.065	26324
803.208	26263
803.35	26381
803.492	26545
803.635	26564
803.777	26400
803.919	26579
804.061	26864
804.204	26541
804.346	26484
804.488	26560
804.63	26522
804.773	26484
804.915	26590
805.057	26644
805.199	26560
805.341	26609
805.483	26670
805.626	26651
805.768	26594
805.91	26590
806.052	26629
806.194	26644
806.336	26944
806.478	26727
806.62	26708
806.762	26861
806.904	26952
807.046	27222
807.188	27104
807.33	27131
807.472	27104
807.614	27009
807.756	27116
807.898	26994
808.04	26883
808.182	26842
808.324	26906
808.465	26994
808.607	27135
808.749	27249
808.891	27359
809.033	27367
809.174	27405
809.316	27218
809.458	27344
809.6	27195
809.741	27275
809.883	27283
810.025	27663
810.166	27530
810.308	27549
810.45	27393
810.591	27469
810.733	27416
810.875	27161
811.016	27154
811.158	27302
811.299	27260
811.441	27644
811.582	27485
811.724	27408
811.865	27207
812.007	27154
812.148	27203
812.29	27245
812.431	27492
812.573	27576
812.714	27530
812.855	27732
812.997	27892
813.138	27934
813.279	27804
813.421	27667
813.562	27713
813.703	27450
813.845	27348
813.986	27188
814.127	26891
814.268	26891
814.41	26960
814.551	26838
814.692	27104
814.833	26918
814.974	26887
815.115	26804
815.256	26823
815.397	26754
815.539	26777
815.68	26727
815.821	26617
815.962	26716
816.103	26629
816.244	26564
816.385	26434
816.526	26469
816.666	26381
816.807	26244
816.948	26199
817.089	26343
817.23	26271
817.371	26142
817.512	26164
817.653	26191
817.793	26050
817.934	26199
818.075	26225
818.216	26065
818.356	26263
818.497	26054
818.638	25849
818.778	25951
818.919	25917
819.06	25966
819.2	26039
819.341	26214
819.481	26324
819.622	26221
819.762	26473
819.903	26381
820.043	26404
820.184	26278
820.324	26202
820.465	26408
820.605	26309
820.746	26282
820.886	26092
821.026	26355
821.167	26271
821.307	26282
821.447	26119
821.588	26157
821.728	26001
821.868	25727
822.008	25658
822.149	25533
822.289	25780
822.429	25491
822.569	25354
822.709	25282
822.849	25213
822.99	25133
823.13	25057
823.27	25103
823.41	24916
823.55	24878
823.69	24890
823.83	25019
823.97	24905
824.11	24684
824.25	24791
824.389	24764
824.529	24890
824.669	24867
824.809	24829
824.949	24970
825.089	24760
825.228	24753
825.368	24589
825.508	24604
825.648	24684
825.787	24661
825.927	24604
826.067	24642
826.206	24658
826.346	24635
826.485	24692
826.625	24623
826.765	24802
826.904	24646
827.044	24570
827.183	24456
827.323	24369
827.462	24292
827.601	24399
827.741	24308
827.88	24441
828.02	24380
828.159	24205
828.298	24304
828.437	24346
828.577	24254
828.716	24258
828.855	24327
828.994	23977
829.134	24049
829.273	24114
829.412	24053
829.551	23882
829.69	24087
829.829	24155
829.968	24136
830.107	23946
830.246	24053
830.385	24034
830.524	23851
830.663	23828
830.802	23821
830.941	23581
831.08	23547
831.219	23802
831.357	23821
831.496	23847
831.635	23802
831.774	23623
831.913	23596
832.051	23326
832.19	23467
832.329	23395
832.467	23265
832.606	23208
832.744	23258
832.883	23280
833.022	23311
833.16	23299
833.299	23345
833.437	23318
833.576	23395
833.714	23402
833.852	23379
833.991	23326
834.129	23501
834.267	23414
834.406	23368
834.544	23478
834.682	23417
834.821	23356
834.959	23535
835.097	23269
835.235	23368
835.373	23326
835.511	23315
835.65	23239
835.788	23261
835.926	23029
836.064	23086
836.202	23113
836.34	23185
836.478	23322
836.615	23292
836.753	23170
836.891	23220
837.029	23197
837.167	23155
837.305	23075
837.443	23090
837.58	23128
837.718	23132
837.856	23060
837.993	23025
838.131	22984
838.269	22858
838.406	23018
838.544	22793
838.681	22774
838.819	22698
838.956	22535
839.094	22554
839.231	22531
839.369	22755
839.506	22885
839.643	22744
839.781	22523
839.918	22500
840.055	22447
840.193	22592
840.33	22462
840.467	22535
840.604	22607
840.742	22736
840.879	22356
841.016	22424
841.153	22360
841.29	22523
841.427	22436
841.564	22489
841.701	22405
841.838	22367
841.975	22363
842.112	22303
842.249	22246
842.385	22253
842.522	22554
842.659	22325
842.796	22207
842.933	22215
843.069	22215
843.206	22219
843.343	22322
843.479	22238
843.616	22143
843.752	22013
843.889	21937
844.025	22139
844.162	21857
844.298	22188
844.435	21968
844.571	21926
844.708	22021
844.844	22063
844.98	22116
845.117	22192
845.253	21994
845.389	21899
845.525	21869
845.661	21736
845.798	21652
845.934	21698
846.07	21709
846.206	21690
846.342	21701
846.478	21660
846.614	21492
846.75	21420
846.886	21492
847.022	21500
847.158	21488
847.294	21462
847.429	21553
847.565	21477
847.701	21610
847.837	21135
847.972	21138
848.108	21287
848.244	21199
848.379	21131
848.515	21081
848.65	21013
848.786	21108
848.921	21070
849.057	21131
849.192	21138
849.328	21161
849.463	21051
849.598	21047
849.734	20982
849.869	20868
850.004	20853
850.14	20933
850.275	20845
850.41	20765
850.545	20880
850.68	20739
850.815	20788
850.95	20743
851.085	21089
851.22	20982
851.355	20727
851.49	20792
851.625	20868
851.76	20868
851.895	20823
852.03	20773
852.165	20914
852.299	20887
852.434	20937
852.569	20883
852.703	20769
852.838	20906
852.973	21013
853.107	20864
853.242	20804
853.376	20693
853.511	20518
853.645	20689
853.78	20769
853.914	20705
854.048	20587
854.183	20613
854.317	20693
854.451	20861
854.585	20587
854.72	20663
854.854	20853
854.988	20598
855.122	20644
855.256	20488
855.39	20590
855.524	20678
855.658	20663
855.792	20659
855.926	20758
856.06	20583
856.194	20724
856.327	20644
856.461	20518
856.595	20530
856.729	20545
856.862	20765
856.996	20705
857.13	20727
857.263	20842
857.397	20674
857.53	20670
857.664	20712
857.797	20697
857.931	20823
858.064	20731
858.197	20754
858.331	20568
858.464	20659
858.597	20583
858.731	20670
858.864	20636
858.997	20594
859.13	20663
859.263	20651
859.396	20640
859.529	20617
859.662	20587
859.795	20583
859.928	20670
860.061	20724
860.194	20804
860.327	20796
860.46	20674
860.592	20765
860.725	20701
860.858	20842
860.99	20579
861.123	20587
861.256	20575
861.388	20693
861.521	21252
861.653	20446
861.786	20412
861.918	20476
862.05	20693
862.183	20522
862.315	20533
862.447	20663
862.58	20560
862.712	20362
862.844	20347
862.976	20438
863.108	20400
863.24	20705
863.372	20320
863.504	20351
863.636	20347
863.768	20332
863.9	20313
864.032	20301
864.164	20275
864.296	20282
864.428	20492
864.559	20400
864.691	20431
864.823	20404
864.954	20309
865.086	20252
865.217	20248
865.349	20206
865.48	20229
865.612	20377
865.743	20488
865.875	20347
866.006	20305
866.137	20298
866.269	20298
866.4	20271
866.531	20161
866.662	20145
866.793	20229
866.924	20065
867.055	20286
867.186	20142
867.317	20157
867.448	20077
867.579	20130
867.71	20122
867.841	20024
867.972	20195
868.103	20271
868.233	20271
868.364	20286
868.495	20195
868.625	20396
868.756	20488
868.886	20358
869.017	20377
869.147	20629
869.278	20503
869.408	20518
869.539	20404
869.669	20495
869.799	20499
869.929	20503
870.06	20575
870.19	20731
870.32	20769
870.45	20701
870.58	20868
870.71	20929
870.84	20883
870.97	20826
871.1	20807
871.23	21116
871.36	21100
871.489	20853
871.619	20971
871.749	21043
871.879	21085
872.008	21154
872.138	21081
872.267	21081
872.397	20960
872.526	20925
872.656	20902
872.785	20842
872.915	21024
873.044	21100
873.173	21081
873.303	21036
873.432	21180
873.561	21074
873.69	21085
873.819	21013
873.948	21081
874.077	21184
874.206	21058
874.335	20994
874.464	21138
874.593	21249
874.722	21287
874.851	21348
874.979	21344
875.108	21401
875.237	21157
875.365	21241
875.494	21321
875.623	21325
875.751	21199
875.88	21412
876.008	21405
876.136	21545
876.265	21778
876.393	21846
876.521	21812
876.65	21755
876.778	21804
876.906	21591
877.034	21576
877.162	21724
877.29	21667
877.418	21743
877.546	21663
877.674	21625
877.802	21641
877.93	21545
878.058	21595
878.185	21606
878.313	21587
878.441	21564
878.568	21530
878.696	21656
878.824	21671
878.951	21774
879.079	21827
879.206	21903
879.333	21861
879.461	21747
879.588	21819
879.715	21827
879.842	22013
879.97	21709
880.097	21485
880.224	21511
880.351	21477
880.478	21587
880.605	21481
880.732	21606
880.859	21686
880.986	21492
881.112	21504
881.239	21382
881.366	21188
881.493	21138
881.619	21020
881.746	21013
881.872	21081
881.999	21157
882.125	21009
882.252	21150
882.378	21127
882.505	21024
882.631	20948
882.757	20773
882.883	20830
883.01	20864
883.136	20716
883.262	20686
883.388	20644
883.514	20864
883.64	20887
883.766	20663
883.892	20560
884.018	20613
884.143	20765
884.269	20758
884.395	20579
884.52	20434
884.646	20309
884.772	20454
884.897	20301
885.023	20446
885.148	20556
885.274	20533
885.399	20507
885.524	20412
885.65	20522
885.775	20480
885.9	20400
886.025	20552
886.15	20469
886.275	20495
886.4	20343
886.525	20404
886.65	20408
886.775	20415
886.9	20522
887.025	20552
887.149	20374
887.274	20301
887.399	20210
887.523	20100
887.648	20237
887.773	20134
887.897	20214
888.021	20214
888.146	20092
888.27	20206
888.395	20301
888.519	20142
888.643	20267
888.767	20233
888.891	20100
889.015	20088
889.139	20062
889.263	19989
889.387	20168
889.511	20252
889.635	20142
889.759	19940
889.883	19906
890.006	20088
890.13	20126
890.254	20012
890.377	19959
890.501	19803
890.624	19742
890.748	19734
890.871	19655
890.995	19506
891.118	19540
891.241	19552
891.364	19643
891.488	19738
891.611	19578
891.734	19578
891.857	19670
891.98	19609
892.103	19624
892.226	19685
892.349	19449
892.471	19362
892.594	19540
892.717	19422
892.839	19518
892.962	19495
893.085	19590
893.207	19594
893.33	19384
893.452	19487
893.575	19590
893.697	19529
893.819	19814
893.941	19715
894.064	19780
894.186	19381
894.308	19601
894.43	19609
894.552	19715
894.674	19616
894.796	19537
894.918	19605
895.04	19438
895.161	19662
895.283	19597
895.405	19533
895.526	19499
895.648	19575
895.769	19662
895.891	19521
896.012	19639
896.134	19613
896.255	19464
896.376	19605
896.498	19601
896.619	19586
896.74	19571
896.861	19605
896.982	19978
897.103	20081
897.224	19894
897.345	19632
897.466	19727
897.587	19769
897.708	19917
897.828	19784
897.949	19841
898.07	19628
898.19	19635
898.311	19913
898.431	19940
898.552	19799
898.672	19784
898.792	19791
898.913	19852
899.033	19639
899.153	19540
899.273	19407
899.393	19635
899.513	19556
899.633	19548
899.753	19480
899.873	19563
899.993	19529
900.113	19358
900.232	19506
900.352	19373
900.472	19434
900.591	19304
900.711	19411
900.83	19324
900.95	19506
901.069	19449
901.189	19259
901.308	18993
901.427	18871
901.546	18913
901.665	18973
901.784	18913
901.904	18749
902.023	18696
902.141	18498
902.26	18471
902.379	18597
902.498	18517
902.617	18391
902.735	18498
902.854	18525
902.973	18350
903.091	18148
903.21	18083
903.328	18057
903.446	18072
903.565	17965
903.683	18045
903.801	17790
903.919	17912
904.038	17863
904.156	17676
904.274	17786
904.392	17760
904.51	17722
904.627	17649
904.745	17726
904.863	17748
904.981	17543
905.098	17398
905.216	17364
905.334	17395
905.451	17337
905.569	17292
905.686	17406
905.803	17402
905.921	17166
906.038	17265
906.155	17155
906.272	17003
906.389	17132
906.506	16881
906.623	16957
906.74	16923
906.857	16736
906.974	16774
907.091	16923
907.208	17071
907.324	16904
907.441	16809
907.557	16683
907.674	16793
907.79	16641
907.907	16687
908.023	16599
908.139	16626
908.256	16527
908.372	16546
908.488	16607
908.604	16470
908.72	16253
908.836	16417
908.952	16295
909.068	16299
909.184	16508
909.3	16322
909.415	16356
909.531	16367
909.647	16211
909.762	16051
909.878	16025
909.993	16048
910.108	15983
910.224	16112
910.339	15987
910.454	15915
910.57	15949
910.685	15762
910.8	16090
910.915	15949
911.03	15903
911.145	15743
911.259	15724
911.374	15732
911.489	15625
911.604	15603
911.718	15378
911.833	15416
911.947	15294
912.062	15355
912.176	15526
912.291	15420
912.405	15462
912.519	15671
912.633	15618
912.748	15393
912.862	15374
912.976	15237
913.09	15184
913.204	15226
913.318	15237
913.431	15287
913.545	15252
913.659	15230
913.772	15260
913.886	15127
914	14982
914.113	15218
914.226	15188
914.34	15100
914.453	14967
914.566	15017
914.68	14998
914.793	14990
914.906	14735
915.019	14651
915.132	14678
915.245	14655
915.358	14693
915.47	14667
915.583	14636
915.696	14720
915.809	14762
915.921	14807
916.034	14648
916.146	14587
916.259	14495
916.371	14541
916.483	14594
916.595	14465
916.708	14518
916.82	14514
916.932	14389
917.044	14450
917.156	14438
917.268	14305
917.38	14358
917.491	14278
917.603	14370
917.715	14343
917.826	14415
917.938	14275
918.049	14218
918.161	14218
918.272	14400
918.384	14442
918.495	14328
918.606	14240
918.717	14012
918.828	14123
918.939	14176
919.05	14065
919.161	14058
919.272	13936
919.383	13917
919.494	14164
919.604	14339
919.715	14119
919.826	13947
919.936	14031
920.047	14149
920.157	14092
920.267	14256
920.378	14161
920.488	13970
920.598	14153
920.708	14343
920.818	14225
920.928	14206
921.038	14351
921.148	14358
921.258	13986
921.368	13951
921.477	13868
921.587	13795
921.697	13704
921.806	13822
921.916	13632
922.025	13506
922.134	13548
922.244	13510
922.353	13495
922.462	13434
922.571	13365
922.68	13190
922.789	13141
922.898	13221
923.007	13023
923.116	13171
923.224	13072
923.333	12977
923.442	13050
923.55	12878
923.659	12954
923.767	13038
923.876	12882
923.984	12954
924.092	12894
924.201	12802
924.309	12856
924.417	12894
924.525	12787
924.633	12859
924.741	13597
924.849	12646
924.956	12757
925.064	12589
925.172	12547
925.279	12570
925.387	12601
925.494	12528
925.602	12673
925.709	12627
925.816	12441
925.924	12627
926.031	12635
926.138	12528
926.245	12559
926.352	12369
926.459	12544
926.566	12654
926.673	12414
926.779	12391
926.886	12323
926.993	12194
927.099	12110
927.206	12159
927.312	12102
927.419	12213
927.525	12155
927.631	12121
927.737	12076
927.843	12003
927.95	11863
928.056	11920
928.162	11992
928.267	12015
928.373	12593
928.479	12072
928.585	11832
928.69	11916
928.796	11973
928.901	11904
929.007	11771
929.112	11870
929.218	11802
929.323	11729
929.428	11722
929.533	11863
929.638	11680
929.743	11642
929.848	11764
929.953	11623
930.058	11577
930.163	11406
930.267	11402
930.372	11486
930.477	11417
930.581	11604
930.685	11474
930.79	11303
930.894	11318
930.998	11204
931.103	11425
931.207	11006
931.311	11025
931.415	10866
931.519	10683
931.623	10645
