Data from test_V78500241_2110.txt Node
Date: Fri Mar 25 15:24:33 CST 2022
User: usil
Spectrometer: V785-0024
Trigger mode: 0
Integration Time (sec): 4.000000E-1
Scans to average: 1
Nonlinearity correction enabled: false
Boxcar width: 0
Storing dark spectrum: false
XAxis mode: Wavelengths
Number of Pixels in Spectrum: 1024
>>>>>Begin Spectral Data<<<<<
801.071	27827
801.214	27698
801.356	27492
801.499	27583
801.641	27485
801.783	27386
801.926	27530
802.068	27382
802.211	27321
802.353	27306
802.496	27100
802.638	27119
802.78	27070
802.923	27039
803.065	26940
803.208	26925
803.35	26994
803.492	27131
803.635	27249
803.777	27131
803.919	27260
804.061	27481
804.204	27340
804.346	27241
804.488	27112
804.63	27214
804.773	27192
804.915	27214
805.057	27325
805.199	27226
805.341	27222
805.483	27355
805.626	27329
805.768	27173
805.91	27416
806.052	27279
806.194	27279
806.336	27549
806.478	27348
806.62	27443
806.762	27568
806.904	27561
807.046	27827
807.188	27591
807.33	27850
807.472	27934
807.614	27679
807.756	27800
807.898	27667
808.04	27686
808.182	27564
808.324	27713
808.465	27797
808.607	27835
808.749	28040
808.891	28029
809.033	28093
809.174	28051
809.316	28147
809.458	27941
809.6	28040
809.741	28139
809.883	28109
810.025	28128
810.166	28185
810.308	28158
810.45	28150
810.591	28139
810.733	27880
810.875	27907
811.016	27751
811.158	27895
811.299	28135
811.441	28040
811.582	28215
811.724	28101
811.865	27914
812.007	27884
812.148	28006
812.29	27972
812.431	28211
812.573	28337
812.714	28478
812.855	28489
812.997	28637
813.138	28599
813.279	28797
813.421	28504
813.562	28428
813.703	28360
813.845	28341
813.986	27994
814.127	27770
814.268	27698
814.41	27686
814.551	27774
814.692	27835
814.833	27458
814.974	27690
815.115	27694
815.256	27629
815.397	27530
815.539	27443
815.68	27538
815.821	27389
815.962	27473
816.103	27458
816.244	27386
816.385	27252
816.526	27085
816.666	27211
816.807	26944
816.948	27081
817.089	27104
817.23	27104
817.371	26948
817.512	27036
817.653	27127
817.793	26769
817.934	26906
818.075	26971
818.216	26906
818.356	26914
818.497	26982
818.638	26674
818.778	26682
818.919	26716
819.06	26765
819.2	26823
819.341	27055
819.481	26887
819.622	27146
819.762	27252
819.903	27116
820.043	27165
820.184	27013
820.324	27077
820.465	27150
820.605	27032
820.746	26948
820.886	26830
821.026	27066
821.167	27119
821.307	27039
821.447	26906
821.588	26849
821.728	26826
821.868	26556
822.008	26347
822.149	26412
822.289	26290
822.429	26149
822.569	26142
822.709	26073
822.849	26058
822.99	25860
823.13	25966
823.27	25909
823.41	25734
823.55	25757
823.69	25864
823.83	25826
823.97	25590
824.11	25514
824.25	25457
824.389	25510
824.529	25620
824.669	25434
824.809	25685
824.949	25635
825.089	25689
825.228	25620
825.368	25396
825.508	25495
825.648	25479
825.787	25434
825.927	25540
826.067	25400
826.206	25377
826.346	25411
826.485	25559
826.625	25400
826.765	25487
826.904	25506
827.044	25327
827.183	25232
827.323	25202
827.462	25091
827.601	25175
827.741	25126
827.88	25187
828.02	25080
828.159	25019
828.298	25118
828.437	25084
828.577	25061
828.716	25107
828.855	24928
828.994	24821
829.134	24837
829.273	24814
829.412	24791
829.551	24814
829.69	24806
829.829	24821
829.968	24871
830.107	24871
830.246	24734
830.385	24783
830.524	24753
830.663	24616
830.802	24547
830.941	24441
831.08	24384
831.219	24654
831.357	24525
831.496	24555
831.635	24513
831.774	24380
831.913	24281
832.051	24300
832.19	24235
832.329	24296
832.467	24121
832.606	24140
832.744	24129
832.883	24117
833.022	24060
833.16	24201
833.299	24144
833.437	24159
833.576	24182
833.714	24083
833.852	24220
833.991	24235
834.129	24266
834.267	24285
834.406	24098
834.544	24205
834.682	24102
834.821	24083
834.959	24289
835.097	24095
835.235	24095
835.373	23969
835.511	24121
835.65	24068
835.788	24095
835.926	23912
836.064	23840
836.202	23813
836.34	23946
836.478	24053
836.615	23904
836.753	23908
836.891	23893
837.029	24003
837.167	24057
837.305	24003
837.443	23874
837.58	23843
837.718	23923
837.856	23798
837.993	23866
838.131	23901
838.269	23707
838.406	23764
838.544	23741
838.681	23482
838.819	23455
838.956	23220
839.094	23315
839.231	23421
839.369	23570
839.506	23710
839.643	23531
839.781	23330
839.918	23208
840.055	23254
840.193	23284
840.33	23193
840.467	23296
840.604	23170
840.742	23486
840.879	23037
841.016	23121
841.153	23052
841.29	23292
841.427	23265
841.564	23189
841.701	23231
841.838	23159
841.975	23128
842.112	23151
842.249	23003
842.385	22835
842.522	23220
842.659	22984
842.796	22896
842.933	22881
843.069	22968
843.206	22919
843.343	23075
843.479	22957
843.616	22873
843.752	22820
843.889	22869
844.025	22984
844.162	22698
844.298	22889
844.435	22713
844.571	22752
844.708	22862
844.844	22934
844.98	22797
845.117	22824
845.253	22713
845.389	22702
845.525	22626
845.661	22622
845.798	22550
845.934	22516
846.07	22413
846.206	22421
846.342	22554
846.478	22344
846.614	22253
846.75	22162
846.886	22207
847.022	22257
847.158	22257
847.294	22280
847.429	22325
847.565	22196
847.701	22443
847.837	21987
847.972	21812
848.108	22067
848.244	21964
848.379	21892
848.515	21911
848.65	21660
848.786	21827
848.921	21854
849.057	21869
849.192	21812
849.328	21911
849.463	21778
849.598	21739
849.734	21682
849.869	21690
850.004	21538
850.14	21637
850.275	21519
850.41	21542
850.545	21439
850.68	21523
850.815	21583
850.95	21515
851.085	21717
851.22	21793
851.355	21747
851.49	21492
851.625	21637
851.76	21675
851.895	21450
852.03	21424
852.165	21580
852.299	21557
852.434	21698
852.569	21568
852.703	21625
852.838	21614
852.973	21690
853.107	21743
853.242	21401
853.376	21435
853.511	21218
853.645	21473
853.78	21450
853.914	21466
854.048	21416
854.183	21397
854.317	21363
854.451	21564
854.585	21374
854.72	21378
854.854	21393
854.988	21317
855.122	21447
855.256	21264
855.39	21279
855.524	21450
855.658	21397
855.792	21363
855.926	21412
856.06	21420
856.194	21408
856.327	21359
856.461	21363
856.595	21237
856.729	21424
856.862	21431
856.996	21389
857.13	21378
857.263	21477
857.397	21416
857.53	21431
857.664	21515
857.797	21534
857.931	21477
858.064	21408
858.197	21507
858.331	21279
858.464	21218
858.597	21241
858.731	21340
858.864	21332
858.997	21397
859.13	21397
859.263	21348
859.396	21435
859.529	21306
859.662	21393
859.795	21325
859.928	21389
860.061	21504
860.194	21671
860.327	21450
860.46	21348
860.592	21466
860.725	21473
860.858	21488
860.99	21321
861.123	21504
861.256	21401
861.388	21393
861.521	22044
861.653	21222
861.786	21058
861.918	21154
862.05	21275
862.183	21264
862.315	21367
862.447	21408
862.58	21199
862.712	21100
862.844	21112
862.976	21226
863.108	21157
863.24	21625
863.372	20941
863.504	21020
863.636	20979
863.768	21188
863.9	21028
864.032	21226
864.164	21119
864.296	21093
864.428	21161
864.559	21165
864.691	21222
864.823	21184
864.954	21066
865.086	21024
865.217	21043
865.349	20914
865.48	21077
865.612	20982
865.743	21138
865.875	21070
866.006	20925
866.137	20986
866.269	20960
866.4	20963
866.531	20838
866.662	20914
866.793	20914
866.924	20933
867.055	21028
867.186	20963
867.317	20883
867.448	20788
867.579	20864
867.71	20963
867.841	20883
867.972	20906
868.103	20861
868.233	20971
868.364	21032
868.495	20937
868.625	21142
868.756	21275
868.886	21093
869.017	21047
869.147	21268
869.278	21325
869.408	21047
869.539	21233
869.669	21298
869.799	21192
869.929	21089
870.06	21237
870.19	21397
870.32	21447
870.45	21466
870.58	21644
870.71	21656
870.84	21603
870.97	21633
871.1	21553
871.23	21629
871.36	21778
871.489	21488
871.619	21709
871.749	21701
871.879	21838
872.008	21861
872.138	21838
872.267	21736
872.397	21599
872.526	21576
872.656	21572
872.785	21705
872.915	21873
873.044	21930
873.173	21800
873.303	21812
873.432	21812
873.561	21861
873.69	21789
873.819	21694
873.948	21972
874.077	21899
874.206	21755
874.335	21911
874.464	21835
874.593	21922
874.722	21903
874.851	22116
874.979	22150
875.108	22086
875.237	21926
875.365	21861
875.494	21987
875.623	22070
875.751	21930
875.88	21956
876.008	22032
876.136	22192
876.265	22386
876.393	22577
876.521	22497
876.65	22405
876.778	22432
876.906	22310
877.034	22344
877.162	22337
877.29	22291
877.418	22276
877.546	22382
877.674	22314
877.802	22337
877.93	22333
878.058	22162
878.185	22310
878.313	22413
878.441	22280
878.568	22200
878.696	22314
878.824	22409
878.951	22375
879.079	22493
879.206	22489
879.333	22481
879.461	22443
879.588	22382
879.715	22485
879.842	22634
879.97	22402
880.097	22162
880.224	22181
880.351	22211
880.478	22223
880.605	22120
880.732	22230
880.859	22421
880.986	22181
881.112	22207
881.239	22040
881.366	21945
881.493	21770
881.619	21724
881.746	21804
881.872	21724
881.999	21686
882.125	21797
882.252	21724
882.378	21709
882.505	21762
882.631	21481
882.757	21439
882.883	21519
883.01	21561
883.136	21329
883.262	21424
883.388	21329
883.514	21382
883.64	21435
883.766	21477
883.892	21077
884.018	21275
884.143	21325
884.269	21408
884.395	21199
884.52	20963
884.646	21036
884.772	20941
884.897	21081
885.023	21169
885.148	21199
885.274	21237
885.399	21146
885.524	21138
885.65	21039
885.775	21081
885.9	21036
886.025	21268
886.15	21047
886.275	20948
886.4	20952
886.525	21070
886.65	20998
886.775	21074
886.9	21055
887.025	21161
887.149	20914
887.274	20933
887.399	20800
887.523	20845
887.648	20868
887.773	20781
887.897	20975
888.021	20933
888.146	20712
888.27	20944
888.395	20929
888.519	20906
888.643	20906
888.767	20868
888.891	20739
889.015	20602
889.139	20739
889.263	20659
889.387	20746
889.511	20834
889.635	20724
889.759	20648
889.883	20686
890.006	20598
890.13	20682
890.254	20594
890.377	20659
890.501	20419
890.624	20362
890.748	20404
890.871	20309
890.995	20168
891.118	20115
891.241	20355
891.364	20164
891.488	20366
891.611	20332
891.734	20130
891.857	20172
891.98	20221
892.103	20237
892.226	20134
892.349	20202
892.471	20081
892.594	20225
892.717	20130
892.839	20168
892.962	20126
893.085	20214
893.207	19989
893.33	19944
893.452	20054
893.575	20176
893.697	20210
893.819	20233
893.941	20309
894.064	20168
894.186	20096
894.308	19997
894.43	20191
894.552	20362
894.674	20191
894.796	20164
894.918	20043
895.04	20161
895.161	20248
895.283	20126
895.405	20126
895.526	20073
895.648	20088
895.769	20100
895.891	20157
896.012	20320
896.134	20248
896.255	20046
896.376	20058
896.498	20126
896.619	20122
896.74	20161
896.861	20202
896.982	20476
897.103	20541
897.224	20328
897.345	20301
897.466	20370
897.587	20377
897.708	20454
897.828	20362
897.949	20271
898.07	20183
898.19	20298
898.311	20457
898.431	20183
898.552	20351
898.672	20404
898.792	20324
898.913	20396
899.033	20229
899.153	20271
899.273	20092
899.393	19944
899.513	20183
899.633	20039
899.753	20058
899.873	19993
899.993	20077
900.113	20027
900.232	20092
900.352	19917
900.472	19890
900.591	19967
900.711	19822
900.83	19852
900.95	19909
901.069	19967
901.189	19769
901.308	19563
901.427	19460
901.546	19559
901.665	19533
901.784	19419
901.904	19289
902.023	19255
902.141	19019
902.26	19015
902.379	19084
902.498	18928
902.617	18985
902.735	19004
902.854	18909
902.973	18844
903.091	18673
903.21	18639
903.328	18578
903.446	18528
903.565	18388
903.683	18376
903.801	18422
903.919	18380
904.038	18304
904.156	18262
904.274	18323
904.392	18273
904.51	18106
904.627	18209
904.745	18232
904.863	18224
904.981	17946
905.098	17870
905.216	17840
905.334	17851
905.451	17912
905.569	17828
905.686	17866
905.803	17866
905.921	17623
906.038	17809
906.155	17646
906.272	17562
906.389	17672
906.506	17406
906.623	17467
906.74	17356
906.857	17216
906.974	17303
907.091	17562
907.208	17573
907.324	17425
907.441	17220
907.557	17170
907.674	17109
907.79	17136
907.907	17052
908.023	17132
908.139	17094
908.256	17121
908.372	16953
908.488	17056
908.604	16991
908.72	16850
908.836	16755
908.952	16759
909.068	16896
909.184	16805
909.3	16934
909.415	16771
909.531	16717
909.647	16706
909.762	16516
909.878	16432
909.993	16508
910.108	16516
910.224	16527
910.339	16474
910.454	16481
910.57	16405
910.685	16272
910.8	16554
910.915	16497
911.03	16314
911.145	16211
911.259	16177
911.374	16173
911.489	16090
911.604	16002
911.718	15873
911.833	15861
911.947	15766
912.062	15698
912.176	15835
912.291	15895
912.405	15720
912.519	16086
912.633	16051
912.748	15888
912.862	15922
912.976	15644
913.09	15629
913.204	15564
913.318	15770
913.431	15785
913.545	15751
913.659	15728
913.772	15724
913.886	15584
914	15435
914.113	15633
914.226	15637
914.34	15618
914.453	15386
914.566	15534
914.68	15389
914.793	15420
914.906	15112
915.019	15097
915.132	15089
915.245	15028
915.358	15074
915.47	15123
915.583	15093
915.696	15131
915.809	15173
915.921	15169
916.034	15070
916.146	14963
916.259	15020
916.371	15100
916.483	15112
916.595	15036
916.708	14944
916.82	14986
916.932	14933
917.044	14861
917.156	14731
917.268	14712
917.38	14670
917.491	14781
917.603	14819
917.715	14815
917.826	14849
917.938	14678
918.049	14678
918.161	14727
918.272	14902
918.384	14830
918.495	14754
918.606	14564
918.717	14526
918.828	14499
918.939	14552
919.05	14476
919.161	14518
919.272	14294
919.383	14355
919.494	14522
919.604	14716
919.715	14499
919.826	14438
919.936	14423
920.047	14442
920.157	14545
920.267	14651
920.378	14568
920.488	14423
920.598	14530
920.708	14883
920.818	14636
920.928	14629
921.038	14765
921.148	14739
921.258	14385
921.368	14320
921.477	14214
921.587	14282
921.697	14123
921.806	14248
921.916	14111
922.025	13997
922.134	13868
922.244	13769
922.353	13761
922.462	13811
922.571	13693
922.68	13445
922.789	13548
922.898	13559
923.007	13525
923.116	13453
923.224	13491
923.333	13426
923.442	13411
923.55	13282
923.659	13392
923.767	13411
923.876	13327
923.984	13381
924.092	13308
924.201	13285
924.309	13278
924.417	13274
924.525	13168
924.633	13118
924.741	13898
924.849	12943
924.956	13088
925.064	12901
925.172	12871
925.279	12825
925.387	12901
925.494	12901
925.602	13072
925.709	12973
925.816	12863
925.924	12909
926.031	12947
926.138	12844
926.245	12913
926.352	12772
926.459	12951
926.566	12848
926.673	12897
926.779	12688
926.886	12730
926.993	12528
927.099	12486
927.206	12407
927.312	12410
927.419	12506
927.525	12445
927.631	12475
927.737	12353
927.843	12422
927.95	12133
928.056	12315
928.162	12304
928.267	12376
928.373	12981
928.479	12330
928.585	12152
928.69	12216
928.796	12266
928.901	12224
929.007	12068
929.112	12159
929.218	12072
929.323	12007
929.428	12007
929.533	12136
929.638	11935
929.743	11954
929.848	11999
929.953	12011
930.058	11946
930.163	11703
930.267	11695
930.372	11798
930.477	11630
930.581	11916
930.685	11805
930.79	11619
930.894	11615
930.998	11585
931.103	11668
931.207	11334
931.311	11299
931.415	11261
931.519	11056
931.623	10976
