Data from test_V78500241_232.txt Node
Date: Fri Mar 25 15:11:28 CST 2022
User: usil
Spectrometer: V785-0024
Trigger mode: 0
Integration Time (sec): 4.000000E-1
Scans to average: 1
Nonlinearity correction enabled: false
Boxcar width: 0
Storing dark spectrum: false
XAxis mode: Wavelengths
Number of Pixels in Spectrum: 1024
>>>>>Begin Spectral Data<<<<<
801.071	27633
801.214	27496
801.356	27363
801.499	27184
801.641	27062
801.783	26933
801.926	27028
802.068	27123
802.211	26853
802.353	26895
802.496	26674
802.638	26720
802.78	26617
802.923	26571
803.065	26575
803.208	26590
803.35	26530
803.492	26739
803.635	26872
803.777	26594
803.919	26663
804.061	27169
804.204	26743
804.346	26594
804.488	26571
804.63	26705
804.773	26522
804.915	26598
805.057	26842
805.199	26705
805.341	26868
805.483	26682
805.626	26746
805.768	26693
805.91	26754
806.052	26967
806.194	26743
806.336	26929
806.478	26807
806.62	26823
806.762	26872
806.904	27077
807.046	27249
807.188	27138
807.33	27104
807.472	27287
807.614	27081
807.756	27070
807.898	27047
808.04	27051
808.182	26967
808.324	26986
808.465	26921
808.607	27279
808.749	27245
808.891	27473
809.033	27530
809.174	27351
809.316	27408
809.458	27310
809.6	27363
809.741	27511
809.883	27412
810.025	27667
810.166	27530
810.308	27511
810.45	27603
810.591	27382
810.733	27332
810.875	27317
811.016	27184
811.158	27104
811.299	27298
811.441	27374
811.582	27279
811.724	27275
811.865	27275
812.007	27146
812.148	27325
812.29	27393
812.431	27416
812.573	27466
812.714	27618
812.855	27770
812.997	27846
813.138	28017
813.279	27941
813.421	27751
813.562	27717
813.703	27515
813.845	27496
813.986	27138
814.127	27116
814.268	26883
814.41	26906
814.551	26785
814.692	27005
814.833	26990
814.974	26842
815.115	26918
815.256	26758
815.397	26651
815.539	26731
815.68	26705
815.821	26507
815.962	26724
816.103	26773
816.244	26480
816.385	26530
816.526	26488
816.666	26202
816.807	25974
816.948	26210
817.089	26103
817.23	26100
817.371	26149
817.512	26195
817.653	26149
817.793	25997
817.934	26107
818.075	26077
818.216	26077
818.356	26115
818.497	25993
818.638	25818
818.778	25849
818.919	25731
819.06	25875
819.2	26005
819.341	26024
819.481	25997
819.622	26145
819.762	26336
819.903	26301
820.043	26233
820.184	26016
820.324	26134
820.465	26328
820.605	26195
820.746	26267
820.886	25989
821.026	26073
821.167	25993
821.307	26069
821.447	25974
821.588	26062
821.728	25791
821.868	25586
822.008	25483
822.149	25449
822.289	25460
822.429	25278
822.569	25164
822.709	25084
822.849	24909
822.99	25084
823.13	24943
823.27	24970
823.41	24730
823.55	24616
823.69	24825
823.83	24749
823.97	24859
824.11	24669
824.25	24616
824.389	24399
824.529	24753
824.669	24494
824.809	24597
824.949	24604
825.089	24783
825.228	24642
825.368	24399
825.508	24445
825.648	24422
825.787	24433
825.927	24517
826.067	24376
826.206	24475
826.346	24384
826.485	24509
826.625	24384
826.765	24559
826.904	24437
827.044	24216
827.183	24110
827.323	24117
827.462	24129
827.601	24186
827.741	23996
827.88	24095
828.02	23935
828.159	24053
828.298	24030
828.437	24030
828.577	24049
828.716	24190
828.855	24174
828.994	23794
829.134	23977
829.273	23855
829.412	23863
829.551	23741
829.69	23847
829.829	23745
829.968	23893
830.107	23821
830.246	23874
830.385	23809
830.524	23707
830.663	23554
830.802	23452
830.941	23337
831.08	23303
831.219	23512
831.357	23482
831.496	23668
831.635	23398
831.774	23398
831.913	23246
832.051	23086
832.19	23174
832.329	23261
832.467	23033
832.606	22961
832.744	23022
832.883	23018
833.022	22976
833.16	23117
833.299	23102
833.437	23083
833.576	23155
833.714	23151
833.852	23151
833.991	23216
834.129	23181
834.267	23136
834.406	23143
834.544	23010
834.682	23121
834.821	23052
834.959	23235
835.097	23044
835.235	23143
835.373	23098
835.511	23102
835.65	23044
835.788	22968
835.926	22877
836.064	22672
836.202	22687
836.34	23033
836.478	23018
836.615	22915
836.753	23037
836.891	23025
837.029	22957
837.167	22923
837.305	22725
837.443	22923
837.58	22710
837.718	22816
837.856	22782
837.993	22744
838.131	22740
838.269	22675
838.406	22736
838.544	22516
838.681	22432
838.819	22322
838.956	22257
839.094	22211
839.231	22162
839.369	22493
839.506	22649
839.643	22577
839.781	22082
839.918	22131
840.055	22344
840.193	22093
840.33	22166
840.467	22070
840.604	22101
840.742	22360
840.879	22025
841.016	22067
841.153	22120
841.29	22291
841.427	22116
841.564	22082
841.701	22112
841.838	22090
841.975	22032
842.112	22105
842.249	21899
842.385	21774
842.522	22112
842.659	21949
842.796	21934
842.933	21934
843.069	21751
843.206	21899
843.343	21926
843.479	21926
843.616	21857
843.752	21781
843.889	21724
844.025	21732
844.162	21660
844.298	21701
844.435	21606
844.571	21732
844.708	21660
844.844	21797
844.98	21781
845.117	21789
845.253	21572
845.389	21401
845.525	21614
845.661	21500
845.798	21241
845.934	21306
846.07	21359
846.206	21355
846.342	21447
846.478	21321
846.614	21142
846.75	20979
846.886	21108
847.022	21135
847.158	21089
847.294	21036
847.429	21135
847.565	21184
847.701	21214
847.837	20857
847.972	20762
848.108	20933
848.244	20956
848.379	20659
848.515	20762
848.65	20701
848.786	20693
848.921	20674
849.057	20823
849.192	20659
849.328	20579
849.463	20712
849.598	20663
849.734	20701
849.869	20522
850.004	20336
850.14	20412
850.275	20381
850.41	20290
850.545	20286
850.68	20431
850.815	20431
850.95	20381
851.085	20545
851.22	20434
851.355	20438
851.49	20393
851.625	20305
851.76	20370
851.895	20244
852.03	20275
852.165	20328
852.299	20374
852.434	20533
852.569	20415
852.703	20446
852.838	20438
852.973	20461
853.107	20492
853.242	20431
853.376	20271
853.511	20187
853.645	20183
853.78	20362
853.914	20271
854.048	20259
854.183	20221
854.317	20221
854.451	20328
854.585	20240
854.72	20081
854.854	20214
854.988	20168
855.122	20142
855.256	20073
855.39	20161
855.524	20313
855.658	20259
855.792	20332
855.926	20218
856.06	20271
856.194	20385
856.327	20172
856.461	20122
856.595	20157
856.729	20145
856.862	20294
856.996	20199
857.13	20286
857.263	20248
857.397	20225
857.53	20172
857.664	20122
857.797	20210
857.931	20263
858.064	20218
858.197	20370
858.331	20122
858.464	20138
858.597	20195
858.731	20115
858.864	20149
858.997	20126
859.13	20248
859.263	20313
859.396	20237
859.529	20134
859.662	20138
859.795	20073
859.928	20157
860.061	20278
860.194	20351
860.327	20282
860.46	20172
860.592	20389
860.725	20366
860.858	20259
860.99	20145
861.123	20145
861.256	20065
861.388	20256
861.521	20952
861.653	20008
861.786	20005
861.918	19932
862.05	20012
862.183	20138
862.315	20149
862.447	20259
862.58	20157
862.712	20077
862.844	19879
862.976	20031
863.108	20031
863.24	20393
863.372	19830
863.504	19868
863.636	19875
863.768	19986
863.9	19807
864.032	19955
864.164	19761
864.296	19902
864.428	19974
864.559	19879
864.691	19986
864.823	19833
864.954	19841
865.086	19883
865.217	19780
865.349	19788
865.48	19845
865.612	19822
865.743	19860
865.875	19871
866.006	19738
866.137	19845
866.269	19753
866.4	19727
866.531	19693
866.662	19712
866.793	19727
866.924	19670
867.055	19784
867.186	19746
867.317	19738
867.448	19635
867.579	19613
867.71	19643
867.841	19635
867.972	19784
868.103	19704
868.233	19761
868.364	19685
868.495	19822
868.625	19917
868.756	20008
868.886	19974
869.017	20088
869.147	19932
869.278	20206
869.408	20145
869.539	19970
869.669	20043
869.799	20035
869.929	20027
870.06	20168
870.19	20290
870.32	20271
870.45	20374
870.58	20317
870.71	20385
870.84	20377
870.97	20313
871.1	20324
871.23	20488
871.36	20514
871.489	20469
871.619	20469
871.749	20545
871.879	20560
872.008	20697
872.138	20598
872.267	20530
872.397	20374
872.526	20301
872.656	20358
872.785	20537
872.915	20678
873.044	20689
873.173	20617
873.303	20514
873.432	20541
873.561	20842
873.69	20488
873.819	20526
873.948	20621
874.077	20556
874.206	20648
874.335	20495
874.464	20621
874.593	20769
874.722	20705
874.851	20906
874.979	21020
875.108	20861
875.237	20876
875.365	20678
875.494	20819
875.623	20857
875.751	20826
875.88	20838
876.008	20921
876.136	21085
876.265	21325
876.393	21424
876.521	21302
876.65	21283
876.778	21188
876.906	21093
877.034	21291
877.162	21233
877.29	21184
877.418	21325
877.546	21207
877.674	21214
877.802	21192
877.93	21241
878.058	21112
878.185	21093
878.313	21085
878.441	21146
878.568	21036
878.696	21135
878.824	21195
878.951	21310
879.079	21401
879.206	21610
879.333	21378
879.461	21294
879.588	21268
879.715	21275
879.842	21507
879.97	21256
880.097	21020
880.224	20948
880.351	21081
880.478	20944
880.605	21051
880.732	20971
880.859	21173
880.986	21104
881.112	21009
881.239	21062
881.366	20651
881.493	20712
881.619	20560
881.746	20686
881.872	20617
881.999	20541
882.125	20549
882.252	20609
882.378	20499
882.505	20636
882.631	20438
882.757	20461
882.883	20434
883.01	20393
883.136	20233
883.262	20134
883.388	20187
883.514	20370
883.64	20313
883.766	20244
883.892	20088
884.018	20206
884.143	20301
884.269	20507
884.395	20043
884.52	19944
884.646	20084
884.772	20001
884.897	19811
885.023	19993
885.148	20084
885.274	20122
885.399	20100
885.524	19909
885.65	19906
885.775	20088
885.9	20065
886.025	20103
886.15	20096
886.275	19917
886.4	19845
886.525	19860
886.65	19860
886.775	19997
886.9	20172
887.025	20039
887.149	19974
887.274	19746
887.399	19719
887.523	19772
887.648	19632
887.773	19620
887.897	19746
888.021	19788
888.146	19689
888.27	19845
888.395	19868
888.519	19868
888.643	19784
888.767	19830
888.891	19658
889.015	19616
889.139	19624
889.263	19449
889.387	19681
889.511	19746
889.635	19704
889.759	19586
889.883	19487
890.006	19533
890.13	19601
890.254	19502
890.377	19453
890.501	19304
890.624	19304
890.748	19369
890.871	19171
890.995	19069
891.118	19065
891.241	19183
891.364	19190
891.488	19263
891.611	19225
891.734	19065
891.857	19232
891.98	19198
892.103	19129
892.226	19187
892.349	19019
892.471	18897
892.594	19114
892.717	19122
892.839	19015
892.962	19053
893.085	19133
893.207	19110
893.33	19023
893.452	19088
893.575	19129
893.697	19031
893.819	19061
893.941	19141
894.064	19160
894.186	18962
894.308	18935
894.43	19091
894.552	19240
894.674	19221
894.796	18970
894.918	19110
895.04	19084
895.161	19145
895.283	19179
895.405	19031
895.526	19031
895.648	19072
895.769	19133
895.891	19076
896.012	19126
896.134	19129
896.255	19129
896.376	19099
896.498	19175
896.619	19156
896.74	19038
896.861	19289
896.982	19483
897.103	19597
897.224	19430
897.345	19301
897.466	19266
897.587	19282
897.708	19502
897.828	19441
897.949	19324
898.07	19065
898.19	19225
898.311	19464
898.431	19187
898.552	19384
898.672	19483
898.792	19422
898.913	19354
899.033	19202
899.153	19148
899.273	19008
899.393	19038
899.513	19194
899.633	19012
899.753	19088
899.873	19000
899.993	19171
900.113	19061
900.232	19110
900.352	19008
900.472	18913
900.591	18863
900.711	18920
900.83	18825
900.95	18993
901.069	18943
901.189	18734
901.308	18540
901.427	18486
901.546	18536
901.665	18631
901.784	18513
901.904	18384
902.023	18270
902.141	18155
902.26	18030
902.379	18079
902.498	17999
902.617	17958
902.735	18011
902.854	17866
902.973	17885
903.091	17646
903.21	17687
903.328	17611
903.446	17577
903.565	17497
903.683	17493
903.801	17417
903.919	17497
904.038	17326
904.156	17326
904.274	17292
904.392	17189
904.51	17159
904.627	17265
904.745	17212
904.863	17353
904.981	17136
905.098	16942
905.216	16942
905.334	16946
905.451	16793
905.569	16953
905.686	16927
905.803	16946
905.921	16759
906.038	16843
906.155	16729
906.272	16580
906.389	16672
906.506	16493
906.623	16432
906.74	16512
906.857	16443
906.974	16371
907.091	16481
907.208	16546
907.324	16485
907.441	16337
907.557	16261
907.674	16200
907.79	16090
907.907	16093
908.023	16249
908.139	16116
908.256	16173
908.372	16040
908.488	16063
908.604	15884
908.72	15846
908.836	15941
908.952	15838
909.068	15880
909.184	15968
909.3	15812
909.415	15903
909.531	15739
909.647	15641
909.762	15591
909.878	15553
909.993	15488
910.108	15622
910.224	15564
910.339	15644
910.454	15386
910.57	15310
910.685	15332
910.8	15644
910.915	15568
911.03	15477
911.145	15161
911.259	15199
911.374	15222
911.489	15028
911.604	15047
911.718	14998
911.833	14857
911.947	14750
912.062	14621
912.176	14933
912.291	14960
912.405	14807
912.519	15074
912.633	15085
912.748	15009
912.862	14948
912.976	14762
913.09	14640
913.204	14629
913.318	14678
913.431	14754
913.545	14773
913.659	14887
913.772	14739
913.886	14571
914	14545
914.113	14621
914.226	14716
914.34	14617
914.453	14499
914.566	14571
914.68	14461
914.793	14503
914.906	14218
915.019	14221
915.132	14149
915.245	14263
915.358	14252
915.47	14195
915.583	14119
915.696	14248
915.809	14412
915.921	14252
916.034	14183
916.146	14035
916.259	14123
916.371	14199
916.483	14157
916.595	14111
916.708	14103
916.82	14001
916.932	13993
917.044	14062
917.156	14024
917.268	13852
917.38	14001
917.491	13845
917.603	13936
917.715	13940
917.826	13967
917.938	13814
918.049	13712
918.161	13750
918.272	13890
918.384	13940
918.495	13871
918.606	13757
918.717	13708
918.828	13658
918.939	13651
919.05	13575
919.161	13719
919.272	13426
919.383	13384
919.494	13746
919.604	13776
919.715	13658
919.826	13537
919.936	13651
920.047	13681
920.157	13696
920.267	13753
920.378	13636
920.488	13704
920.598	13868
920.708	14012
920.818	13769
920.928	13731
921.038	13936
921.148	13967
921.258	13632
921.368	13434
921.477	13365
921.587	13320
921.697	13297
921.806	13415
921.916	13190
922.025	13050
922.134	12985
922.244	13004
922.353	13110
922.462	12821
922.571	12852
922.68	12703
922.789	12650
922.898	12722
923.007	12669
923.116	12787
923.224	12654
923.333	12563
923.442	12582
923.55	12426
923.659	12555
923.767	12525
923.876	12502
923.984	12467
924.092	12376
924.201	12460
924.309	12517
924.417	12441
924.525	12330
924.633	12380
924.741	13088
924.849	12224
924.956	12296
925.064	12152
925.172	12087
925.279	12155
925.387	12190
925.494	12167
925.602	12243
925.709	12289
925.816	12053
925.924	12079
926.031	12247
926.138	12030
926.245	12159
926.352	12015
926.459	12091
926.566	12159
926.673	12003
926.779	11908
926.886	11980
926.993	11657
927.099	11722
927.206	11756
927.312	11657
927.419	11733
927.525	11745
927.631	11783
927.737	11554
927.843	11573
927.95	11497
928.056	11509
928.162	11566
928.267	11619
928.373	12178
928.479	11695
928.585	11452
928.69	11539
928.796	11566
928.901	11414
929.007	11330
929.112	11516
929.218	11402
929.323	11353
929.428	11284
929.533	11410
929.638	11246
929.743	11246
929.848	11387
929.953	11254
930.058	11189
930.163	10991
930.267	10991
930.372	11204
930.477	10991
930.581	11178
930.685	11052
930.79	10877
930.894	10965
930.998	10923
931.103	11060
931.207	10668
931.311	10558
931.415	10508
931.519	10379
931.623	10257
