Data from test_V78500241_2191.txt Node
Date: Fri Mar 25 15:25:06 CST 2022
User: usil
Spectrometer: V785-0024
Trigger mode: 0
Integration Time (sec): 4.000000E-1
Scans to average: 1
Nonlinearity correction enabled: false
Boxcar width: 0
Storing dark spectrum: false
XAxis mode: Wavelengths
Number of Pixels in Spectrum: 1024
>>>>>Begin Spectral Data<<<<<
801.071	27732
801.214	27709
801.356	27500
801.499	27435
801.641	27222
801.783	27272
801.926	27241
802.068	27302
802.211	27188
802.353	27180
802.496	26899
802.638	26921
802.78	26838
802.923	26956
803.065	26842
803.208	26914
803.35	26914
803.492	26910
803.635	27192
803.777	26960
803.919	27203
804.061	27351
804.204	27089
804.346	27024
804.488	26994
804.63	27032
804.773	27116
804.915	27062
805.057	27135
805.199	27055
805.341	27051
805.483	27279
805.626	27180
805.768	26982
805.91	27226
806.052	27287
806.194	27138
806.336	27321
806.478	27112
806.62	27260
806.762	27386
806.904	27580
807.046	27713
807.188	27614
807.33	27656
807.472	27785
807.614	27583
807.756	27641
807.898	27454
808.04	27534
808.182	27500
808.324	27401
808.465	27431
808.607	27770
808.749	27876
808.891	27979
809.033	27964
809.174	27956
809.316	27857
809.458	27808
809.6	27751
809.741	28017
809.883	28150
810.025	28112
810.166	28124
810.308	28284
810.45	27987
810.591	28059
810.733	27991
810.875	27835
811.016	27686
811.158	27622
811.299	27888
811.441	27987
811.582	27956
811.724	27880
811.865	27888
812.007	27789
812.148	27823
812.29	27972
812.431	28051
812.573	28204
812.714	28234
812.855	28287
812.997	28428
813.138	28497
813.279	28360
813.421	28436
813.562	28382
813.703	28109
813.845	28150
813.986	27838
814.127	27580
814.268	27424
814.41	27622
814.551	27523
814.692	27701
814.833	27485
814.974	27462
815.115	27538
815.256	27473
815.397	27431
815.539	27393
815.68	27325
815.821	27306
815.962	27412
816.103	27344
816.244	27207
816.385	27203
816.526	27188
816.666	26842
816.807	26861
816.948	26807
817.089	26963
817.23	26811
817.371	26883
817.512	26906
817.653	26785
817.793	26746
817.934	26670
818.075	26735
818.216	26819
818.356	26735
818.497	26724
818.638	26556
818.778	26571
818.919	26648
819.06	26492
819.2	26644
819.341	26765
819.481	26773
819.622	26906
819.762	27173
819.903	27051
820.043	27009
820.184	26880
820.324	26849
820.465	27047
820.605	26906
820.746	26834
820.886	26769
821.026	26910
821.167	27005
821.307	26975
821.447	26952
821.588	26731
821.728	26602
821.868	26473
822.008	26218
822.149	26282
822.289	26366
822.429	26031
822.569	26046
822.709	25928
822.849	25909
822.99	25742
823.13	25772
823.27	25723
823.41	25537
823.55	25537
823.69	25590
823.83	25605
823.97	25540
824.11	25392
824.25	25369
824.389	25373
824.529	25400
824.669	25377
824.809	25411
824.949	25567
825.089	25533
825.228	25544
825.368	25403
825.508	25324
825.648	25358
825.787	25232
825.927	25304
826.067	25285
826.206	25221
826.346	25266
826.485	25571
826.625	25263
826.765	25419
826.904	25430
827.044	25004
827.183	24992
827.323	24947
827.462	25179
827.601	24992
827.741	24924
827.88	25019
828.02	24840
828.159	25034
828.298	24985
828.437	24996
828.577	24916
828.716	25209
828.855	24806
828.994	24661
829.134	24734
829.273	24730
829.412	24563
829.551	24532
829.69	24692
829.829	24719
829.968	24749
830.107	24776
830.246	24677
830.385	24673
830.524	24574
830.663	24479
830.802	24437
830.941	24251
831.08	24319
831.219	24277
831.357	24346
831.496	24426
831.635	24289
831.774	24205
831.913	24205
832.051	24152
832.19	24053
832.329	24068
832.467	24034
832.606	24030
832.744	23874
832.883	23992
833.022	23863
833.16	23996
833.299	24026
833.437	23935
833.576	24026
833.714	24079
833.852	24060
833.991	24076
834.129	24163
834.267	24114
834.406	23954
834.544	24167
834.682	23988
834.821	23988
834.959	24228
835.097	23916
835.235	24022
835.373	23920
835.511	23984
835.65	23904
835.788	23965
835.926	23741
836.064	23672
836.202	23695
836.34	23931
836.478	23908
836.615	23809
836.753	23927
836.891	23802
837.029	23847
837.167	23691
837.305	23703
837.443	23756
837.58	23581
837.718	23882
837.856	23642
837.993	23653
838.131	23638
838.269	23478
838.406	23589
838.544	23368
838.681	23387
838.819	23269
838.956	23265
839.094	23136
839.231	23166
839.369	23341
839.506	23581
839.643	23436
839.781	23117
839.918	23086
840.055	23166
840.193	23216
840.33	23044
840.467	23056
840.604	23010
840.742	23261
840.879	22927
841.016	22889
841.153	22949
841.29	23132
841.427	22965
841.564	23060
841.701	23029
841.838	22968
841.975	23060
842.112	22961
842.249	22869
842.385	22793
842.522	23018
842.659	22889
842.796	22805
842.933	22869
843.069	22790
843.206	22748
843.343	22869
843.479	22820
843.616	22733
843.752	22527
843.889	22569
844.025	22793
844.162	22649
844.298	22637
844.435	22512
844.571	22596
844.708	22649
844.844	22778
844.98	22713
845.117	22618
845.253	22436
845.389	22459
845.525	22432
845.661	22504
845.798	22291
845.934	22306
846.07	22166
846.206	22306
846.342	22398
846.478	22333
846.614	22219
846.75	21968
846.886	22105
847.022	22048
847.158	22188
847.294	22074
847.429	22097
847.565	22017
847.701	22402
847.837	21903
847.972	21797
848.108	21895
848.244	21739
848.379	21755
848.515	21614
848.65	21603
848.786	21622
848.921	21545
849.057	21675
849.192	21785
849.328	21762
849.463	21663
849.598	21526
849.734	21485
849.869	21599
850.004	21370
850.14	21564
850.275	21542
850.41	21283
850.545	21355
850.68	21466
850.815	21439
850.95	21405
851.085	21519
851.22	21561
851.355	21367
851.49	21393
851.625	21329
851.76	21378
851.895	21370
852.03	21306
852.165	21393
852.299	21401
852.434	21393
852.569	21355
852.703	21374
852.838	21496
852.973	21496
853.107	21557
853.242	21325
853.376	21146
853.511	21157
853.645	21131
853.78	21397
853.914	21161
854.048	21237
854.183	21245
854.317	21260
854.451	21454
854.585	21249
854.72	21332
854.854	21279
854.988	21169
855.122	21287
855.256	21138
855.39	21214
855.524	21329
855.658	21195
855.792	21226
855.926	21245
856.06	21237
856.194	21336
856.327	21116
856.461	21066
856.595	21138
856.729	21135
856.862	21291
856.996	21298
857.13	21298
857.263	21348
857.397	21348
857.53	21195
857.664	21302
857.797	21321
857.931	21367
858.064	21256
858.197	21363
858.331	21165
858.464	21150
858.597	21131
858.731	21123
858.864	21222
858.997	21222
859.13	21237
859.263	21230
859.396	21469
859.529	21119
859.662	21131
859.795	21165
859.928	21249
860.061	21359
860.194	21500
860.327	21260
860.46	21226
860.592	21272
860.725	21420
860.858	21363
860.99	21116
861.123	21096
861.256	21138
861.388	21256
861.521	21827
861.653	21157
861.786	20937
861.918	21093
862.05	21047
862.183	21222
862.315	21184
862.447	21203
862.58	21142
862.712	20982
862.844	20868
862.976	21074
863.108	21013
863.24	21370
863.372	20804
863.504	20880
863.636	21039
863.768	20902
863.9	20952
864.032	20743
864.164	20956
864.296	20979
864.428	21089
864.559	20929
864.691	20990
864.823	20944
864.954	21024
865.086	20861
865.217	20834
865.349	20864
865.48	20834
865.612	20868
865.743	21017
865.875	20899
866.006	20861
866.137	20678
866.269	20838
866.4	20845
866.531	20819
866.662	20769
866.793	20883
866.924	20807
867.055	20845
867.186	20701
867.317	20682
867.448	20807
867.579	20785
867.71	20663
867.841	20682
867.972	20735
868.103	20796
868.233	20838
868.364	20670
868.495	20796
868.625	21039
868.756	21070
868.886	20971
869.017	20994
869.147	21028
869.278	21100
869.408	20986
869.539	20921
869.669	21146
869.799	21062
869.929	21188
870.06	21020
870.19	21397
870.32	21272
870.45	21249
870.58	21363
870.71	21587
870.84	21462
870.97	21389
871.1	21424
871.23	21519
871.36	21610
871.489	21599
871.619	21557
871.749	21523
871.879	21599
872.008	21724
872.138	21728
872.267	21698
872.397	21469
872.526	21378
872.656	21496
872.785	21382
872.915	21606
873.044	21720
873.173	21576
873.303	21633
873.432	21694
873.561	21808
873.69	21694
873.819	21557
873.948	21724
874.077	21656
874.206	21583
874.335	21587
874.464	21766
874.593	21800
874.722	21835
874.851	21869
874.979	21785
875.108	21998
875.237	21789
875.365	21804
875.494	21778
875.623	21964
875.751	21888
875.88	21956
876.008	21960
876.136	22059
876.265	22230
876.393	22329
876.521	22299
876.65	22188
876.778	22215
876.906	22226
877.034	22192
877.162	22196
877.29	22105
877.418	22204
877.546	22215
877.674	22200
877.802	22238
877.93	22162
878.058	22169
878.185	22093
878.313	22242
878.441	22150
878.568	22124
878.696	22192
878.824	22169
878.951	22166
879.079	22356
879.206	22519
879.333	22329
879.461	22207
879.588	22268
879.715	22379
879.842	22417
879.97	22230
880.097	22048
880.224	22116
880.351	21987
880.478	22048
880.605	21991
880.732	22036
880.859	22223
880.986	22082
881.112	22158
881.239	21827
881.366	21679
881.493	21682
881.619	21682
881.746	21686
881.872	21625
881.999	21530
882.125	21511
882.252	21603
882.378	21622
882.505	21648
882.631	21310
882.757	21374
882.883	21340
883.01	21344
883.136	21249
883.262	21287
883.388	21154
883.514	21157
883.64	21222
883.766	21218
883.892	21119
884.018	21093
884.143	21161
884.269	21310
884.395	21066
884.52	20929
884.646	20861
884.772	20792
884.897	20815
885.023	20914
885.148	21138
885.274	21062
885.399	21009
885.524	20868
885.65	20967
885.775	20941
885.9	20830
886.025	21104
886.15	20902
886.275	20845
886.4	20815
886.525	20872
886.65	20781
886.775	20899
886.9	21043
887.025	21039
887.149	20796
887.274	20708
887.399	20773
887.523	20727
887.648	20693
887.773	20629
887.897	20861
888.021	20781
888.146	20587
888.27	20963
888.395	20842
888.519	20746
888.643	20716
888.767	20697
888.891	20556
889.015	20442
889.139	20571
889.263	20457
889.387	20575
889.511	20670
889.635	20609
889.759	20431
889.883	20556
890.006	20670
890.13	20758
890.254	20461
890.377	20419
890.501	20358
890.624	20244
890.748	20332
890.871	20176
890.995	20183
891.118	20012
891.241	20058
891.364	20130
891.488	20183
891.611	20153
891.734	19989
891.857	20145
891.98	20092
892.103	20065
892.226	20161
892.349	20020
892.471	19837
892.594	20043
892.717	20081
892.839	19947
892.962	19913
893.085	19993
893.207	20031
893.33	19822
893.452	19913
893.575	20043
893.697	19978
893.819	20092
893.941	20195
894.064	20115
894.186	19879
894.308	19925
894.43	20050
894.552	20107
894.674	20084
894.796	19830
894.918	19925
895.04	20046
895.161	20115
895.283	20065
895.405	19883
895.526	19909
895.648	19993
895.769	19970
895.891	20020
896.012	19986
896.134	20054
896.255	19963
896.376	19940
896.498	19993
896.619	20084
896.74	19932
896.861	20016
896.982	20328
897.103	20404
897.224	20355
897.345	20278
897.466	20111
897.587	20191
897.708	20244
897.828	20275
897.949	20084
898.07	20001
898.19	20187
898.311	20298
898.431	20221
898.552	20214
898.672	20206
898.792	20195
898.913	20290
899.033	20142
899.153	20111
899.273	19993
899.393	19890
899.513	19989
899.633	19947
899.753	19955
899.873	19936
899.993	20073
900.113	19913
900.232	19871
900.352	19967
900.472	19769
900.591	19662
900.711	19898
900.83	19704
900.95	19856
901.069	19791
901.189	19571
901.308	19403
901.427	19407
901.546	19285
901.665	19339
901.784	19346
901.904	19156
902.023	19038
902.141	18894
902.26	18973
902.379	18928
902.498	18890
902.617	18810
902.735	18867
902.854	18760
902.973	18696
903.091	18551
903.21	18623
903.328	18498
903.446	18479
903.565	18346
903.683	18410
903.801	18235
903.919	18216
904.038	18258
904.156	18163
904.274	18228
904.392	18015
904.51	18144
904.627	18057
904.745	18133
904.863	18281
904.981	17980
905.098	17729
905.216	17832
905.334	17809
905.451	17851
905.569	17657
905.686	17840
905.803	17783
905.921	17611
906.038	17687
906.155	17619
906.272	17467
906.389	17528
906.506	17452
906.623	17353
906.74	17368
906.857	17147
906.974	17204
907.091	17349
907.208	17440
907.324	17288
907.441	17174
907.557	17045
907.674	17025
907.79	17003
907.907	17006
908.023	17029
908.139	17052
908.256	16961
908.372	16877
908.488	16839
908.604	16748
908.72	16706
908.836	16740
908.952	16634
909.068	16733
909.184	16908
909.3	16725
909.415	16752
909.531	16733
909.647	16519
909.762	16398
909.878	16470
909.993	16459
910.108	16421
910.224	16360
910.339	16402
910.454	16295
910.57	16299
910.685	16215
910.8	16417
910.915	16413
911.03	16234
911.145	15956
911.259	16139
911.374	15975
911.489	16044
911.604	15823
911.718	15720
911.833	15728
911.947	15603
912.062	15606
912.176	15770
912.291	15774
912.405	15774
912.519	15953
912.633	15983
912.748	15720
912.862	15618
912.976	15557
913.09	15500
913.204	15557
913.318	15606
913.431	15679
913.545	15599
913.659	15698
913.772	15481
913.886	15401
914	15332
914.113	15386
914.226	15595
914.34	15511
914.453	15310
914.566	15386
914.68	15264
914.793	15272
914.906	15074
915.019	15032
915.132	14921
915.245	15055
915.358	15043
915.47	15028
915.583	15024
915.696	14998
915.809	15188
915.921	15131
916.034	14975
916.146	14883
916.259	14906
916.371	14994
916.483	14925
916.595	14769
916.708	14849
916.82	14758
916.932	14838
917.044	14815
917.156	14754
917.268	14678
917.38	14632
917.491	14590
917.603	14724
917.715	14785
917.826	14659
917.938	14686
918.049	14541
918.161	14621
918.272	14804
918.384	14644
918.495	14511
918.606	14442
918.717	14282
918.828	14480
918.939	14484
919.05	14336
919.161	14461
919.272	14176
919.383	14229
919.494	14484
919.604	14629
919.715	14492
919.826	14240
919.936	14389
920.047	14362
920.157	14450
920.267	14503
920.378	14427
920.488	14446
920.598	14636
920.708	14689
920.818	14492
920.928	14503
921.038	14667
921.148	14568
921.258	14332
921.368	14282
921.477	14054
921.587	14115
921.697	14016
921.806	14153
921.916	13997
922.025	13849
922.134	13742
922.244	13780
922.353	13837
922.462	13658
922.571	13620
922.68	13457
922.789	13354
922.898	13510
923.007	13426
923.116	13369
923.224	13354
923.333	13293
923.442	13187
923.55	13327
923.659	13289
923.767	13266
923.876	13213
923.984	13194
924.092	13118
924.201	13236
924.309	13179
924.417	13149
924.525	13122
924.633	13050
924.741	13890
924.849	12943
924.956	12993
925.064	12890
925.172	12810
925.279	12806
925.387	12772
925.494	12795
925.602	12958
925.709	12859
925.816	12692
925.924	12779
926.031	12894
926.138	12696
926.245	12871
926.352	12608
926.459	12802
926.566	12856
926.673	12741
926.779	12601
926.886	12490
926.993	12445
927.099	12426
927.206	12308
927.312	12372
927.419	12528
927.525	12395
927.631	12509
927.737	12277
927.843	12285
927.95	12186
928.056	12205
928.162	12289
928.267	12323
928.373	12817
928.479	12334
928.585	12022
928.69	12220
928.796	12232
928.901	12068
929.007	11988
929.112	12079
929.218	12034
929.323	11984
929.428	11916
929.533	12068
929.638	11939
929.743	11977
929.848	11908
929.953	11874
930.058	11760
930.163	11653
930.267	11665
930.372	11794
930.477	11630
930.581	11824
930.685	11680
930.79	11570
930.894	11619
930.998	11551
931.103	11642
931.207	11330
931.311	11227
931.415	11159
931.519	10938
931.623	10957
