Data from test_V78500241_1177.txt Node
Date: Fri Mar 25 15:18:03 CST 2022
User: usil
Spectrometer: V785-0024
Trigger mode: 0
Integration Time (sec): 4.000000E-1
Scans to average: 1
Nonlinearity correction enabled: false
Boxcar width: 0
Storing dark spectrum: false
XAxis mode: Wavelengths
Number of Pixels in Spectrum: 1024
>>>>>Begin Spectral Data<<<<<
801.071	28032
801.214	27793
801.356	27728
801.499	27656
801.641	27397
801.783	27481
801.926	27523
802.068	27454
802.211	27386
802.353	27374
802.496	27199
802.638	27077
802.78	27085
802.923	27123
803.065	26967
803.208	27127
803.35	27104
803.492	27287
803.635	27310
803.777	27142
803.919	27249
804.061	27641
804.204	27462
804.346	27233
804.488	27294
804.63	27241
804.773	27275
804.915	27317
805.057	27504
805.199	27378
805.341	27359
805.483	27458
805.626	27557
805.768	27389
805.91	27344
806.052	27523
806.194	27329
806.336	27720
806.478	27519
806.62	27412
806.762	27641
806.904	27720
807.046	27983
807.188	27884
807.33	27800
807.472	27937
807.614	27797
807.756	28032
807.898	27720
808.04	27698
808.182	27686
808.324	27724
808.465	27774
808.607	27975
808.749	28013
808.891	28131
809.033	28295
809.174	28032
809.316	27956
809.458	28025
809.6	28040
809.741	28207
809.883	28284
810.025	28371
810.166	28348
810.308	28382
810.45	28310
810.591	28188
810.733	28211
810.875	28093
811.016	27949
811.158	28040
811.299	28074
811.441	28375
811.582	28158
811.724	28070
811.865	28013
812.007	28063
812.148	28055
812.29	28234
812.431	28204
812.573	28451
812.714	28538
812.855	28535
812.997	28717
813.138	28904
813.279	28782
813.421	28557
813.562	28459
813.703	28535
813.845	28284
813.986	28105
814.127	27953
814.268	27682
814.41	27884
814.551	27857
814.692	27975
814.833	27766
814.974	27865
815.115	27854
815.256	27816
815.397	27599
815.539	27720
815.68	27599
815.821	27633
815.962	27827
816.103	27622
816.244	27397
816.385	27424
816.526	27268
816.666	27127
816.807	27085
816.948	27249
817.089	27291
817.23	27150
817.371	27028
817.512	27214
817.653	27188
817.793	27020
817.934	27146
818.075	27142
818.216	27195
818.356	26979
818.497	26948
818.638	26788
818.778	26940
818.919	26861
819.06	26921
819.2	26998
819.341	27089
819.481	27192
819.622	27325
819.762	27431
819.903	27325
820.043	27249
820.184	27279
820.324	27272
820.465	27321
820.605	27207
820.746	27241
820.886	27116
821.026	27294
821.167	27058
821.307	27222
821.447	27017
821.588	26994
821.728	26826
821.868	26853
822.008	26617
822.149	26644
822.289	26526
822.429	26256
822.569	26275
822.709	26252
822.849	26172
822.99	26263
823.13	26039
823.27	26046
823.41	26008
823.55	25750
823.69	25989
823.83	25947
823.97	25936
824.11	25704
824.25	25715
824.389	25647
824.529	25791
824.669	25727
824.809	25902
824.949	25837
825.089	25818
825.228	25822
825.368	25567
825.508	25651
825.648	25525
825.787	25616
825.927	25769
826.067	25750
826.206	25643
826.346	25521
826.485	25483
826.625	25518
826.765	25769
826.904	25681
827.044	25506
827.183	25445
827.323	25373
827.462	25476
827.601	25232
827.741	25335
827.88	25388
828.02	25240
828.159	25434
828.298	25324
828.437	25411
828.577	25350
828.716	25491
828.855	25228
828.994	25061
829.134	25171
829.273	25038
829.412	24977
829.551	25034
829.69	25061
829.829	25110
829.968	25137
830.107	25110
830.246	25015
830.385	25008
830.524	25012
830.663	24821
830.802	24825
830.941	24635
831.08	24654
831.219	24791
831.357	24749
831.496	24871
831.635	24593
831.774	24582
831.913	24616
832.051	24475
832.19	24410
832.329	24467
832.467	24365
832.606	24350
832.744	24178
832.883	24270
833.022	24372
833.16	24384
833.299	24270
833.437	24372
833.576	24410
833.714	24399
833.852	24452
833.991	24429
834.129	24601
834.267	24513
834.406	24388
834.544	24566
834.682	24334
834.821	24346
834.959	24608
835.097	24357
835.235	24593
835.373	24338
835.511	24388
835.65	24190
835.788	24334
835.926	24228
836.064	24049
836.202	24220
836.34	24213
836.478	24346
836.615	24213
836.753	24174
836.891	24399
837.029	24194
837.167	24205
837.305	24114
837.443	24057
837.58	24072
837.718	24155
837.856	24015
837.993	24053
838.131	24018
838.269	24053
838.406	23897
838.544	23863
838.681	23817
838.819	23737
838.956	23524
839.094	23573
839.231	23642
839.369	23771
839.506	23893
839.643	23855
839.781	23554
839.918	23661
840.055	23653
840.193	23501
840.33	23501
840.467	23486
840.604	23592
840.742	23703
840.879	23391
841.016	23452
841.153	23383
841.29	23547
841.427	23501
841.564	23463
841.701	23520
841.838	23433
841.975	23402
842.112	23433
842.249	23239
842.385	23170
842.522	23474
842.659	23376
842.796	23242
842.933	23334
843.069	23292
843.206	23299
843.343	23204
843.479	23250
843.616	23318
843.752	22995
843.889	22991
844.025	23258
844.162	23003
844.298	23174
844.435	22919
844.571	23044
844.708	23067
844.844	23239
844.98	23197
845.117	23109
845.253	23010
845.389	22740
845.525	22961
845.661	22854
845.798	22816
845.934	22835
846.07	22672
846.206	22824
846.342	22812
846.478	22809
846.614	22493
846.75	22565
846.886	22402
847.022	22542
847.158	22497
847.294	22363
847.429	22554
847.565	22360
847.701	22748
847.837	22181
847.972	22207
848.108	22310
848.244	22280
848.379	22109
848.515	22105
848.65	22067
848.786	22048
848.921	22120
849.057	22196
849.192	22150
849.328	22070
849.463	22143
849.598	22067
849.734	21979
849.869	21945
850.004	21895
850.14	21789
850.275	21732
850.41	21667
850.545	21808
850.68	21789
850.815	21911
850.95	21888
851.085	22086
851.22	21903
851.355	21831
851.49	21876
851.625	21770
851.76	21755
851.895	21720
852.03	21663
852.165	21857
852.299	21892
852.434	21835
852.569	21865
852.703	21869
852.838	21884
852.973	21888
853.107	21873
853.242	21804
853.376	21797
853.511	21671
853.645	21439
853.78	21793
853.914	21629
854.048	21701
854.183	21591
854.317	21633
854.451	21876
854.585	21682
854.72	21705
854.854	21762
854.988	21580
855.122	21641
855.256	21443
855.39	21675
855.524	21755
855.658	21698
855.792	21694
855.926	21793
856.06	21751
856.194	21781
856.327	21671
856.461	21637
856.595	21641
856.729	21583
856.862	21831
856.996	21656
857.13	21736
857.263	21797
857.397	21682
857.53	21606
857.664	21701
857.797	21770
857.931	21732
858.064	21595
858.197	21819
858.331	21610
858.464	21542
858.597	21526
858.731	21587
858.864	21652
858.997	21545
859.13	21732
859.263	21595
859.396	21743
859.529	21591
859.662	21675
859.795	21614
859.928	21671
860.061	21762
860.194	21838
860.327	21671
860.46	21637
860.592	21728
860.725	21770
860.858	21770
860.99	21667
861.123	21466
861.256	21644
861.388	21652
861.521	22436
861.653	21568
861.786	21416
861.918	21466
862.05	21572
862.183	21587
862.315	21561
862.447	21648
862.58	21515
862.712	21389
862.844	21386
862.976	21477
863.108	21412
863.24	21656
863.372	21348
863.504	21424
863.636	21298
863.768	21370
863.9	21439
864.032	21264
864.164	21378
864.296	21447
864.428	21405
864.559	21382
864.691	21424
864.823	21363
864.954	21313
865.086	21359
865.217	21313
865.349	21176
865.48	21218
865.612	21306
865.743	21317
865.875	21329
866.006	21245
866.137	21203
866.269	21260
866.4	21359
866.531	21260
866.662	21100
866.793	21161
866.924	21192
867.055	21279
867.186	21233
867.317	21256
867.448	21104
867.579	21241
867.71	21104
867.841	21100
867.972	21146
868.103	21260
868.233	21161
868.364	21180
868.495	21249
868.625	21374
868.756	21435
868.886	21378
869.017	21344
869.147	21401
869.278	21606
869.408	21435
869.539	21405
869.669	21564
869.799	21443
869.929	21507
870.06	21595
870.19	21656
870.32	21644
870.45	21781
870.58	21789
870.71	21964
870.84	21975
870.97	21724
871.1	21778
871.23	22021
871.36	21941
871.489	21869
871.619	22006
871.749	22067
871.879	21983
872.008	22166
872.138	21994
872.267	22059
872.397	21819
872.526	21751
872.656	21903
872.785	21903
872.915	22067
873.044	22154
873.173	22017
873.303	22025
873.432	22097
873.561	22135
873.69	22059
873.819	21987
873.948	22040
874.077	22032
874.206	21842
874.335	22010
874.464	22116
874.593	22325
874.722	22128
874.851	22295
874.979	22226
875.108	22276
875.237	22268
875.365	22143
875.494	22272
875.623	22318
875.751	22131
875.88	22204
876.008	22443
876.136	22417
876.265	22691
876.393	22755
876.521	22660
876.65	22748
876.778	22618
876.906	22508
877.034	22550
877.162	22626
877.29	22546
877.418	22637
877.546	22615
877.674	22634
877.802	22516
877.93	22527
878.058	22481
878.185	22542
878.313	22440
878.441	22550
878.568	22485
878.696	22580
878.824	22611
878.951	22733
879.079	22771
879.206	22976
879.333	22687
879.461	22516
879.588	22630
879.715	22885
879.842	22934
879.97	22694
880.097	22542
880.224	22447
880.351	22440
880.478	22451
880.605	22325
880.732	22489
880.859	22683
880.986	22443
881.112	22436
881.239	22284
881.366	22086
881.493	22036
881.619	22010
881.746	21987
881.872	22059
881.999	21922
882.125	21960
882.252	21991
882.378	21972
882.505	22112
882.631	21755
882.757	21766
882.883	21797
883.01	21724
883.136	21603
883.262	21519
883.388	21557
883.514	21755
883.64	21679
883.766	21557
883.892	21435
884.018	21523
884.143	21576
884.269	21660
884.395	21332
884.52	21450
884.646	21344
884.772	21389
884.897	21256
885.023	21370
885.148	21294
885.274	21302
885.399	21431
885.524	21260
885.65	21294
885.775	21351
885.9	21252
886.025	21492
886.15	21336
886.275	21291
886.4	21264
886.525	21340
886.65	21180
886.775	21287
886.9	21283
887.025	21492
887.149	21279
887.274	21093
887.399	21135
887.523	21039
887.648	21062
887.773	21055
887.897	21150
888.021	21154
888.146	20956
888.27	21123
888.395	21131
888.519	21093
888.643	21085
888.767	21180
888.891	20975
889.015	20868
889.139	21005
889.263	20937
889.387	20921
889.511	21051
889.635	20876
889.759	20921
889.883	20815
890.006	20796
890.13	21013
890.254	20727
890.377	20754
890.501	20541
890.624	20659
890.748	20663
890.871	20522
890.995	20351
891.118	20317
891.241	20495
891.364	20343
891.488	20541
891.611	20549
891.734	20423
891.857	20606
891.98	20404
892.103	20560
892.226	20480
892.349	20408
892.471	20301
892.594	20396
892.717	20366
892.839	20256
892.962	20366
893.085	20434
893.207	20271
893.33	20100
893.452	20271
893.575	20377
893.697	20427
893.819	20514
893.941	20648
894.064	20377
894.186	20278
894.308	20282
894.43	20400
894.552	20434
894.674	20358
894.796	20240
894.918	20343
895.04	20336
895.161	20355
895.283	20393
895.405	20271
895.526	20263
895.648	20362
895.769	20351
895.891	20374
896.012	20434
896.134	20511
896.255	20252
896.376	20347
896.498	20240
896.619	20427
896.74	20317
896.861	20351
896.982	20663
897.103	20754
897.224	20609
897.345	20495
897.466	20408
897.587	20522
897.708	20606
897.828	20545
897.949	20488
898.07	20393
898.19	20423
898.311	20579
898.431	20560
898.552	20457
898.672	20587
898.792	20583
898.913	20530
899.033	20450
899.153	20336
899.273	20214
899.393	20374
899.513	20263
899.633	20149
899.753	20233
899.873	20199
899.993	20412
900.113	20145
900.232	20298
900.352	20168
900.472	20138
900.591	20084
900.711	20054
900.83	19997
900.95	20161
901.069	20202
901.189	19978
901.308	19700
901.427	19693
901.546	19521
901.665	19609
901.784	19666
901.904	19472
902.023	19422
902.141	19221
902.26	19213
902.379	19263
902.498	19289
902.617	19133
902.735	19179
902.854	19156
902.973	19065
903.091	18932
903.21	18798
903.328	18798
903.446	18681
903.565	18627
903.683	18631
903.801	18559
903.919	18490
904.038	18532
904.156	18509
904.274	18513
904.392	18376
904.51	18342
904.627	18346
904.745	18422
904.863	18483
904.981	18251
905.098	18087
905.216	18053
905.334	18171
905.451	18057
905.569	17969
905.686	18057
905.803	17954
905.921	17885
906.038	18022
906.155	17954
906.272	17821
906.389	17703
906.506	17714
906.623	17562
906.74	17547
906.857	17493
906.974	17490
907.091	17687
907.208	17680
907.324	17642
907.441	17448
907.557	17356
907.674	17235
907.79	17299
907.907	17368
908.023	17311
908.139	17284
908.256	17315
908.372	17216
908.488	17193
908.604	17102
908.72	16930
908.836	16953
908.952	16984
909.068	17079
909.184	17124
909.3	16953
909.415	17064
909.531	17102
909.647	16812
909.762	16713
909.878	16656
909.993	16771
910.108	16664
910.224	16691
910.339	16710
910.454	16603
910.57	16386
910.685	16459
910.8	16790
910.915	16615
911.03	16615
911.145	16424
911.259	16367
911.374	16421
911.489	16299
911.604	16207
911.718	15991
911.833	16109
911.947	15949
912.062	15960
912.176	15964
912.291	15945
912.405	16048
912.519	16325
912.633	16131
912.748	16173
912.862	16059
912.976	15793
913.09	15698
913.204	15861
913.318	15808
913.431	15998
913.545	15960
913.659	16002
913.772	15739
913.886	15770
914	15584
914.113	15747
914.226	15838
914.34	15667
914.453	15538
914.566	15656
914.68	15504
914.793	15526
914.906	15363
915.019	15302
915.132	15226
915.245	15245
915.358	15275
915.47	15313
915.583	15195
915.696	15237
915.809	15389
915.921	15283
916.034	15233
916.146	15245
916.259	15127
916.371	15317
916.483	15226
916.595	15138
916.708	15097
916.82	15100
916.932	15165
917.044	15005
917.156	14948
917.268	15020
917.38	15028
917.491	14899
917.603	14963
917.715	14899
917.826	14994
917.938	14769
918.049	14720
918.161	14902
918.272	15077
918.384	14960
918.495	14769
918.606	14705
918.717	14655
918.828	14899
918.939	14708
919.05	14530
919.161	14644
919.272	14450
919.383	14549
919.494	14708
919.604	14918
919.715	14640
919.826	14602
919.936	14697
920.047	14651
920.157	14705
920.267	14796
920.378	14697
920.488	14640
920.598	14743
920.708	14967
920.818	14762
920.928	14754
921.038	14967
921.148	14815
921.258	14549
921.368	14427
921.477	14355
921.587	14351
921.697	14202
921.806	14339
921.916	14271
922.025	14058
922.134	14073
922.244	13883
922.353	14027
922.462	13887
922.571	13696
922.68	13643
922.789	13719
922.898	13613
923.007	13700
923.116	13715
923.224	13662
923.333	13556
923.442	13445
923.55	13525
923.659	13578
923.767	13441
923.876	13396
923.984	13491
924.092	13320
924.201	13384
924.309	13441
924.417	13441
924.525	13301
924.633	13312
924.741	14252
924.849	13171
924.956	13240
925.064	13023
925.172	13031
925.279	13031
925.387	13091
925.494	13126
925.602	13236
925.709	13152
925.816	12939
925.924	12996
926.031	13088
926.138	12973
926.245	13099
926.352	12878
926.459	13076
926.566	13019
926.673	12962
926.779	12776
926.886	12798
926.993	12593
927.099	12677
927.206	12650
927.312	12585
927.419	12677
927.525	12589
927.631	12566
927.737	12506
927.843	12395
927.95	12350
928.056	12388
928.162	12391
928.267	12490
928.373	13004
928.479	12502
928.585	12258
928.69	12456
928.796	12441
928.901	12273
929.007	12133
929.112	12311
929.218	12281
929.323	12235
929.428	12273
929.533	12315
929.638	12121
929.743	12095
929.848	12201
929.953	12129
930.058	12034
930.163	11950
930.267	11901
930.372	12019
930.477	11786
930.581	11965
930.685	11851
930.79	11786
930.894	11771
930.998	11619
931.103	11855
931.207	11463
931.311	11452
931.415	11349
931.519	11113
931.623	11067
