Data from test_V78500241_282.txt Node
Date: Fri Mar 25 15:11:49 CST 2022
User: usil
Spectrometer: V785-0024
Trigger mode: 0
Integration Time (sec): 4.000000E-1
Scans to average: 1
Nonlinearity correction enabled: false
Boxcar width: 0
Storing dark spectrum: false
XAxis mode: Wavelengths
Number of Pixels in Spectrum: 1024
>>>>>Begin Spectral Data<<<<<
801.071	27819
801.214	27838
801.356	27633
801.499	27599
801.641	27485
801.783	27523
801.926	27473
802.068	27435
802.211	27275
802.353	27340
802.496	27173
802.638	27127
802.78	26990
802.923	27074
803.065	26963
803.208	27055
803.35	26929
803.492	27127
803.635	27176
803.777	27089
803.919	27241
804.061	27492
804.204	27268
804.346	27211
804.488	26933
804.63	27077
804.773	27081
804.915	27096
805.057	27230
805.199	27264
805.341	27256
805.483	27275
805.626	27272
805.768	27199
805.91	27218
806.052	27260
806.194	27154
806.336	27447
806.478	27340
806.62	27321
806.762	27325
806.904	27561
807.046	27701
807.188	27606
807.33	27686
807.472	27648
807.614	27542
807.756	27591
807.898	27504
808.04	27447
808.182	27431
808.324	27439
808.465	27473
808.607	27644
808.749	27770
808.891	27968
809.033	28002
809.174	28040
809.316	27884
809.458	27751
809.6	27914
809.741	27975
809.883	28010
810.025	28090
810.166	27994
810.308	28109
810.45	28074
810.591	28063
810.733	27994
810.875	27884
811.016	27759
811.158	27759
811.299	27778
811.441	27930
811.582	27945
811.724	27728
811.865	27751
812.007	27865
812.148	27762
812.29	27812
812.431	27907
812.573	28063
812.714	28162
812.855	28139
812.997	28322
813.138	28607
813.279	28481
813.421	28382
813.562	28226
813.703	28135
813.845	27930
813.986	27747
814.127	27519
814.268	27477
814.41	27534
814.551	27256
814.692	27454
814.833	27431
814.974	27370
815.115	27454
815.256	27222
815.397	27230
815.539	27252
815.68	27146
815.821	27123
815.962	27119
816.103	27275
816.244	27157
816.385	27055
816.526	27013
816.666	26853
816.807	26655
816.948	26762
817.089	26826
817.23	26792
817.371	26670
817.512	26724
817.653	26686
817.793	26583
817.934	26651
818.075	26678
818.216	26644
818.356	26651
818.497	26511
818.638	26355
818.778	26377
818.919	26362
819.06	26457
819.2	26473
819.341	26511
819.481	26636
819.622	26823
819.762	27043
819.903	26986
820.043	26724
820.184	26845
820.324	26788
820.465	26781
820.605	26785
820.746	26644
820.886	26682
821.026	26663
821.167	26785
821.307	26659
821.447	26594
821.588	26488
821.728	26484
821.868	26252
822.008	26084
822.149	26065
822.289	26081
822.429	25830
822.569	25852
822.709	25723
822.849	25506
822.99	25601
823.13	25419
823.27	25502
823.41	25430
823.55	25327
823.69	25293
823.83	25236
823.97	25396
824.11	25255
824.25	25228
824.389	25221
824.529	25312
824.669	25038
824.809	25479
824.949	25339
825.089	25259
825.228	25202
825.368	25031
825.508	24943
825.648	24992
825.787	25038
825.927	25168
826.067	25042
826.206	24932
826.346	25023
826.485	25065
826.625	24985
826.765	25168
826.904	24970
827.044	24882
827.183	24844
827.323	24616
827.462	24833
827.601	24741
827.741	24753
827.88	24673
828.02	24658
828.159	24650
828.298	24749
828.437	24760
828.577	24665
828.716	24852
828.855	24753
828.994	24597
829.134	24502
829.273	24551
829.412	24353
829.551	24376
829.69	24429
829.829	24418
829.968	24422
830.107	24456
830.246	24308
830.385	24372
830.524	24235
830.663	24216
830.802	24251
830.941	24053
831.08	24136
831.219	24106
831.357	24114
831.496	24167
831.635	24117
831.774	23767
831.913	23992
832.051	23885
832.19	23813
832.329	23866
832.467	23802
832.606	23653
832.744	23516
832.883	23760
833.022	23748
833.16	23604
833.299	23703
833.437	23726
833.576	23817
833.714	23821
833.852	23870
833.991	23775
834.129	23836
834.267	23851
834.406	23729
834.544	23741
834.682	23764
834.821	23764
834.959	23851
835.097	23646
835.235	23767
835.373	23619
835.511	23684
835.65	23611
835.788	23672
835.926	23410
836.064	23471
836.202	23440
836.34	23505
836.478	23638
836.615	23634
836.753	23520
836.891	23573
837.029	23509
837.167	23516
837.305	23463
837.443	23444
837.58	23288
837.718	23421
837.856	23425
837.993	23379
838.131	23398
838.269	23334
838.406	23372
838.544	23181
838.681	23022
838.819	23029
838.956	22862
839.094	22858
839.231	22869
839.369	23151
839.506	23280
839.643	23147
839.781	22824
839.918	22748
840.055	22835
840.193	22782
840.33	22733
840.467	22850
840.604	22828
840.742	23121
840.879	22599
841.016	22630
841.153	22645
841.29	22881
841.427	22816
841.564	22675
841.701	22706
841.838	22584
841.975	22679
842.112	22630
842.249	22500
842.385	22580
842.522	22702
842.659	22523
842.796	22462
842.933	22508
843.069	22348
843.206	22447
843.343	22493
843.479	22382
843.616	22428
843.752	22268
843.889	22120
844.025	22436
844.162	22299
844.298	22280
844.435	22348
844.571	22109
844.708	22265
844.844	22569
844.98	22394
845.117	22390
845.253	22223
845.389	22070
845.525	22188
845.661	22105
845.798	22010
845.934	21975
846.07	21979
846.206	21945
846.342	22230
846.478	22048
846.614	21804
846.75	21694
846.886	21641
847.022	21854
847.158	21785
847.294	21888
847.429	21808
847.565	21724
847.701	21915
847.837	21511
847.972	21553
848.108	21523
848.244	21580
848.379	21450
848.515	21287
848.65	21393
848.786	21367
848.921	21249
849.057	21557
849.192	21378
849.328	21363
849.463	21325
849.598	21306
849.734	21207
849.869	21127
850.004	21150
850.14	21203
850.275	21062
850.41	21043
850.545	21070
850.68	20944
850.815	20975
850.95	21096
851.085	21176
851.22	21252
851.355	21199
851.49	21005
851.625	20899
851.76	21013
851.895	20979
852.03	20929
852.165	20963
852.299	21009
852.434	21135
852.569	20979
852.703	21051
852.838	21173
852.973	21123
853.107	21184
853.242	21058
853.376	20864
853.511	20689
853.645	20937
853.78	20925
853.914	20842
854.048	20902
854.183	20902
854.317	20918
854.451	21089
854.585	20887
854.72	20811
854.854	20963
854.988	20796
855.122	20880
855.256	20716
855.39	20872
855.524	20887
855.658	20937
855.792	20788
855.926	20891
856.06	20872
856.194	20975
856.327	20765
856.461	20842
856.595	20861
856.729	20868
856.862	20918
856.996	20876
857.13	20925
857.263	20929
857.397	20975
857.53	20804
857.664	20842
857.797	20857
857.931	20861
858.064	20765
858.197	20918
858.331	20754
858.464	20739
858.597	20785
858.731	20861
858.864	20842
858.997	20823
859.13	20807
859.263	20887
859.396	20960
859.529	20819
859.662	20826
859.795	20815
859.928	20785
860.061	20849
860.194	20960
860.327	20887
860.46	20830
860.592	20956
860.725	20990
860.858	20872
860.99	20910
861.123	20678
861.256	20735
861.388	20758
861.521	21401
861.653	20659
861.786	20640
861.918	20750
862.05	20598
862.183	20807
862.315	20743
862.447	20781
862.58	20762
862.712	20545
862.844	20526
862.976	20587
863.108	20602
863.24	21005
863.372	20408
863.504	20587
863.636	20522
863.768	20518
863.9	20469
864.032	20381
864.164	20549
864.296	20530
864.428	20632
864.559	20552
864.691	20598
864.823	20545
864.954	20606
865.086	20511
865.217	20469
865.349	20336
865.48	20408
865.612	20495
865.743	20518
865.875	20408
866.006	20396
866.137	20438
866.269	20442
866.4	20423
866.531	20427
866.662	20374
866.793	20393
866.924	20446
867.055	20423
867.186	20336
867.317	20237
867.448	20343
867.579	20374
867.71	20259
867.841	20237
867.972	20381
868.103	20237
868.233	20320
868.364	20446
868.495	20533
868.625	20651
868.756	20712
868.886	20465
869.017	20629
869.147	20712
869.278	20727
869.408	20712
869.539	20659
869.669	20781
869.799	20640
869.929	20640
870.06	20735
870.19	20876
870.32	20967
870.45	20887
870.58	20994
870.71	21100
870.84	21066
870.97	21017
871.1	21017
871.23	21245
871.36	21218
871.489	21085
871.619	21218
871.749	21195
871.879	21230
872.008	21272
872.138	21188
872.267	21116
872.397	20963
872.526	21093
872.656	21009
872.785	21127
872.915	21268
873.044	21279
873.173	21313
873.303	21310
873.432	21272
873.561	21340
873.69	21112
873.819	21275
873.948	21332
874.077	21214
874.206	21218
874.335	21192
874.464	21268
874.593	21485
874.722	21507
874.851	21420
874.979	21618
875.108	21481
875.237	21549
875.365	21367
875.494	21443
875.623	21492
875.751	21481
875.88	21340
876.008	21561
876.136	21713
876.265	21846
876.393	21956
876.521	21899
876.65	22006
876.778	21884
876.906	21766
877.034	21778
877.162	21937
877.29	21599
877.418	21960
877.546	21873
877.674	21880
877.802	21926
877.93	21831
878.058	21739
878.185	21720
878.313	21728
878.441	21831
878.568	21595
878.696	21751
878.824	21869
878.951	21838
879.079	21873
879.206	22070
879.333	21991
879.461	21808
879.588	21926
879.715	21930
879.842	22067
879.97	22017
880.097	21629
880.224	21587
880.351	21682
880.478	21564
880.605	21488
880.732	21614
880.859	21781
880.986	21698
881.112	21625
881.239	21568
881.366	21389
881.493	21268
881.619	21218
881.746	21237
881.872	21302
881.999	21161
882.125	21176
882.252	21252
882.378	21222
882.505	21329
882.631	21112
882.757	20929
882.883	21096
883.01	20883
883.136	20864
883.262	20891
883.388	20804
883.514	20895
883.64	21070
883.766	20830
883.892	20686
884.018	20849
884.143	20891
884.269	20849
884.395	20682
884.52	20629
884.646	20590
884.772	20461
884.897	20492
885.023	20648
885.148	20629
885.274	20739
885.399	20693
885.524	20518
885.65	20552
885.775	20587
885.9	20579
886.025	20705
886.15	20579
886.275	20488
886.4	20533
886.525	20659
886.65	20446
886.775	20313
886.9	20632
887.025	20781
887.149	20705
887.274	20503
887.399	20324
887.523	20389
887.648	20320
887.773	20191
887.897	20317
888.021	20313
888.146	20355
888.27	20454
888.395	20332
888.519	20374
888.643	20427
888.767	20324
888.891	20324
889.015	20065
889.139	20172
889.263	20221
889.387	20278
889.511	20358
889.635	20214
889.759	20088
889.883	20138
890.006	20244
890.13	20168
890.254	20043
890.377	20077
890.501	19936
890.624	19925
890.748	19909
890.871	19757
890.995	19769
891.118	19681
891.241	19647
891.364	19723
891.488	19811
891.611	19811
891.734	19757
891.857	19750
891.98	19731
892.103	19788
892.226	19681
892.349	19670
892.471	19609
892.594	19666
892.717	19746
892.839	19635
892.962	19715
893.085	19647
893.207	19670
893.33	19445
893.452	19548
893.575	19658
893.697	19689
893.819	19776
893.941	19925
894.064	19712
894.186	19556
894.308	19518
894.43	19696
894.552	19849
894.674	19833
894.796	19571
894.918	19658
895.04	19643
895.161	19719
895.283	19795
895.405	19700
895.526	19556
895.648	19639
895.769	19639
895.891	19788
896.012	19788
896.134	19647
896.255	19761
896.376	19624
896.498	19624
896.619	19666
896.74	19677
896.861	19674
896.982	20027
897.103	20130
897.224	20001
897.345	19997
897.466	19906
897.587	19974
897.708	19944
897.828	19989
897.949	19928
898.07	19624
898.19	19917
898.311	19917
898.431	19761
898.552	20088
898.672	19841
898.792	19811
898.913	19871
899.033	19719
899.153	19666
899.273	19518
899.393	19605
899.513	19670
899.633	19613
899.753	19655
899.873	19620
899.993	19620
900.113	19518
900.232	19662
900.352	19529
900.472	19441
900.591	19377
900.711	19396
900.83	19460
900.95	19533
901.069	19472
901.189	19278
901.308	19171
901.427	18989
901.546	19004
901.665	19046
901.784	19076
901.904	18867
902.023	18814
902.141	18574
902.26	18612
902.379	18509
902.498	18437
902.617	18445
902.735	18536
902.854	18483
902.973	18509
903.091	18140
903.21	18270
903.328	18194
903.446	18155
903.565	17942
903.683	17954
903.801	17874
903.919	17950
904.038	17996
904.156	17707
904.274	17931
904.392	17748
904.51	17649
904.627	17756
904.745	17904
904.863	17828
904.981	17528
905.098	17455
905.216	17448
905.334	17417
905.451	17512
905.569	17467
905.686	17448
905.803	17364
905.921	17242
906.038	17315
906.155	17284
906.272	17185
906.389	17162
906.506	16991
906.623	16991
906.74	16961
906.857	17003
906.974	16911
907.091	16934
907.208	17109
907.324	16968
907.441	16953
907.557	16710
907.674	16596
907.79	16580
907.907	16736
908.023	16691
908.139	16759
908.256	16641
908.372	16558
908.488	16451
908.604	16451
908.72	16325
908.836	16443
908.952	16447
909.068	16405
909.184	16455
909.3	16306
909.415	16375
909.531	16333
909.647	16067
909.762	16097
909.878	16124
909.993	16090
910.108	15994
910.224	15991
910.339	16101
910.454	15983
910.57	15892
910.685	15880
910.8	16166
910.915	16090
911.03	15895
911.145	15682
911.259	15743
911.374	15774
911.489	15705
911.604	15507
911.718	15401
911.833	15424
911.947	15374
912.062	15214
912.176	15363
912.291	15424
912.405	15488
912.519	15507
912.633	15614
912.748	15530
912.862	15420
912.976	15291
913.09	15131
913.204	15192
913.318	15298
913.431	15351
913.545	15313
913.659	15310
913.772	15192
913.886	15169
914	15081
914.113	15093
914.226	15195
914.34	15169
914.453	14944
914.566	15165
914.68	14921
914.793	14883
914.906	14811
915.019	14705
915.132	14674
915.245	14670
915.358	14777
915.47	14682
915.583	14727
915.696	14746
915.809	14830
915.921	14838
916.034	14625
916.146	14476
916.259	14575
916.371	14663
916.483	14636
916.595	14495
916.708	14560
916.82	14484
916.932	14590
917.044	14499
917.156	14465
917.268	14355
917.38	14339
917.491	14328
917.603	14366
917.715	14476
917.826	14423
917.938	14301
918.049	14191
918.161	14347
918.272	14358
918.384	14362
918.495	14214
918.606	14176
918.717	14130
918.828	14187
918.939	14225
919.05	14069
919.161	14016
919.272	13879
919.383	13887
919.494	14016
919.604	14393
919.715	14111
919.826	13936
919.936	14043
920.047	14164
920.157	14187
920.267	14259
920.378	14069
920.488	14043
920.598	14271
920.708	14339
920.818	14214
920.928	14172
921.038	14317
921.148	14263
921.258	14035
921.368	13982
921.477	13803
921.587	13765
921.697	13674
921.806	13807
921.916	13727
922.025	13594
922.134	13460
922.244	13411
922.353	13514
922.462	13445
922.571	13289
922.68	13091
922.789	13084
922.898	13061
923.007	13000
923.116	13190
923.224	13118
923.333	13027
923.442	13031
923.55	12913
923.659	12890
923.767	13042
923.876	12890
923.984	12916
924.092	12806
924.201	12856
924.309	12814
924.417	12875
924.525	12840
924.633	12749
924.741	13533
924.849	12715
924.956	12741
925.064	12616
925.172	12525
925.279	12551
925.387	12642
925.494	12578
925.602	12745
925.709	12642
925.816	12494
925.924	12486
926.031	12547
926.138	12437
926.245	12498
926.352	12456
926.459	12574
926.566	12585
926.673	12521
926.779	12388
926.886	12353
926.993	12292
927.099	12076
927.206	12129
927.312	12102
927.419	12190
927.525	12133
927.631	12182
927.737	12034
927.843	12038
927.95	11908
928.056	12011
928.162	11946
928.267	12011
928.373	12620
928.479	11999
928.585	11889
928.69	11832
928.796	11931
928.901	11817
929.007	11729
929.112	11802
929.218	11745
929.323	11809
929.428	11691
929.533	11775
929.638	11600
929.743	11604
929.848	11718
929.953	11539
930.058	11627
930.163	11360
930.267	11353
930.372	11509
930.477	11337
930.581	11562
930.685	11448
930.79	11254
930.894	11307
930.998	11273
931.103	11440
931.207	11045
931.311	10965
931.415	10904
931.519	10656
931.623	10607
