Data from test_V78500241_92.txt Node
Date: Fri Mar 25 15:10:30 CST 2022
User: usil
Spectrometer: V785-0024
Trigger mode: 0
Integration Time (sec): 4.000000E-1
Scans to average: 1
Nonlinearity correction enabled: false
Boxcar width: 0
Storing dark spectrum: false
XAxis mode: Wavelengths
Number of Pixels in Spectrum: 1024
>>>>>Begin Spectral Data<<<<<
801.071	28470
801.214	28333
801.356	28055
801.499	27968
801.641	27903
801.783	27850
801.926	27964
802.068	27827
802.211	27827
802.353	27682
802.496	27564
802.638	27686
802.78	27336
802.923	27549
803.065	27355
803.208	27359
803.35	27336
803.492	27481
803.635	27682
803.777	27481
803.919	27625
804.061	27854
804.204	27534
804.346	27431
804.488	27405
804.63	27420
804.773	27545
804.915	27443
805.057	27656
805.199	27534
805.341	27564
805.483	27747
805.626	27629
805.768	27538
805.91	27519
806.052	27648
806.194	27595
806.336	27759
806.478	27637
806.62	27591
806.762	27698
806.904	27797
807.046	28128
807.188	27987
807.33	27991
807.472	28082
807.614	27800
807.756	27854
807.898	27743
808.04	27686
808.182	27751
808.324	27762
808.465	27759
808.607	27968
808.749	28173
808.891	28162
809.033	28188
809.174	28188
809.316	28181
809.458	28128
809.6	28147
809.741	28242
809.883	28128
810.025	28466
810.166	28379
810.308	28306
810.45	28223
810.591	28200
810.733	28131
810.875	27975
811.016	27922
811.158	28010
811.299	28150
811.441	28128
811.582	28109
811.724	27899
811.865	27926
812.007	27991
812.148	28036
812.29	27991
812.431	28192
812.573	28360
812.714	28379
812.855	28538
812.997	28596
813.138	28805
813.279	28630
813.421	28588
813.562	28428
813.703	28295
813.845	28215
813.986	27907
814.127	27694
814.268	27648
814.41	27759
814.551	27789
814.692	27781
814.833	27679
814.974	27622
815.115	27679
815.256	27473
815.397	27507
815.539	27386
815.68	27302
815.821	27408
815.962	27466
816.103	27348
816.244	27317
816.385	27135
816.526	27104
816.666	26963
816.807	26861
816.948	26800
817.089	26845
817.23	26800
817.371	26754
817.512	26838
817.653	26739
817.793	26773
817.934	26864
818.075	26716
818.216	26765
818.356	26625
818.497	26663
818.638	26480
818.778	26602
818.919	26667
819.06	26450
819.2	26625
819.341	26640
819.481	26682
819.622	26819
819.762	27051
819.903	26937
820.043	26834
820.184	26796
820.324	26853
820.465	26773
820.605	26845
820.746	26842
820.886	26720
821.026	26823
821.167	26602
821.307	26754
821.447	26670
821.588	26530
821.728	26503
821.868	26286
822.008	26122
822.149	26054
822.289	26084
822.429	25898
822.569	25909
822.709	25879
822.849	25537
822.99	25613
823.13	25506
823.27	25731
823.41	25472
823.55	25156
823.69	25506
823.83	25457
823.97	25430
824.11	25206
824.25	25209
824.389	25221
824.529	25225
824.669	25259
824.809	25270
824.949	25350
825.089	25324
825.228	25270
825.368	24920
825.508	24920
825.648	25091
825.787	25004
825.927	25137
826.067	24920
826.206	25046
826.346	24943
826.485	25012
826.625	25034
826.765	25053
826.904	25126
827.044	24719
827.183	24806
827.323	24798
827.462	24871
827.601	24700
827.741	24608
827.88	24764
828.02	24631
828.159	24551
828.298	24642
828.437	24772
828.577	24814
828.716	24578
828.855	24616
828.994	24365
829.134	24471
829.273	24456
829.412	24182
829.551	24258
829.69	24296
829.829	24418
829.968	24285
830.107	24323
830.246	24426
830.385	24296
830.524	24292
830.663	24076
830.802	24026
830.941	23897
831.08	23843
831.219	23901
831.357	23958
831.496	24102
831.635	23904
831.774	23927
831.913	23851
832.051	23566
832.19	23509
832.329	23543
832.467	23630
832.606	23490
832.744	23596
832.883	23589
833.022	23455
833.16	23501
833.299	23516
833.437	23531
833.576	23608
833.714	23509
833.852	23512
833.991	23699
834.129	23634
834.267	23619
834.406	23436
834.544	23547
834.682	23608
834.821	23535
834.959	23657
835.097	23425
835.235	23619
835.373	23512
835.511	23535
835.65	23425
835.788	23353
835.926	23258
836.064	23102
836.202	23235
836.34	23303
836.478	23315
836.615	23277
836.753	23296
836.891	23379
837.029	23406
837.167	23326
837.305	23326
837.443	23299
837.58	23143
837.718	23212
837.856	23193
837.993	23147
838.131	23200
838.269	23060
838.406	23235
838.544	23083
838.681	22881
838.819	22797
838.956	22668
839.094	22706
839.231	22744
839.369	22908
839.506	23086
839.643	22771
839.781	22710
839.918	22542
840.055	22489
840.193	22508
840.33	22516
840.467	22451
840.604	22580
840.742	22683
840.879	22478
841.016	22371
841.153	22478
841.29	22596
841.427	22527
841.564	22641
841.701	22519
841.838	22440
841.975	22432
842.112	22276
842.249	22295
842.385	22166
842.522	22284
842.659	22135
842.796	22154
842.933	22166
843.069	22166
843.206	22188
843.343	22188
843.479	22173
843.616	22181
843.752	22059
843.889	21876
844.025	22116
844.162	22029
844.298	22112
844.435	21892
844.571	21895
844.708	22040
844.844	22169
844.98	22059
845.117	21979
845.253	21953
845.389	21747
845.525	21816
845.661	21831
845.798	21682
845.934	21732
846.07	21614
846.206	21698
846.342	21907
846.478	21694
846.614	21492
846.75	21424
846.886	21428
847.022	21500
847.158	21447
847.294	21473
847.429	21469
847.565	21321
847.701	21610
847.837	21237
847.972	21108
848.108	21157
848.244	21104
848.379	20998
848.515	21020
848.65	20963
848.786	20933
848.921	20956
849.057	21135
849.192	21020
849.328	20971
849.463	21001
849.598	20857
849.734	20834
849.869	20857
850.004	20712
850.14	20769
850.275	20659
850.41	20686
850.545	20537
850.68	20648
850.815	20754
850.95	20670
851.085	20910
851.22	20868
851.355	20689
851.49	20697
851.625	20625
851.76	20701
851.895	20514
852.03	20495
852.165	20648
852.299	20632
852.434	20720
852.569	20834
852.703	20625
852.838	20705
852.973	20724
853.107	20792
853.242	20564
853.376	20450
853.511	20423
853.645	20374
853.78	20579
853.914	20571
854.048	20488
854.183	20473
854.317	20461
854.451	20579
854.585	20423
854.72	20461
854.854	20602
854.988	20389
855.122	20526
855.256	20305
855.39	20568
855.524	20526
855.658	20469
855.792	20575
855.926	20461
856.06	20640
856.194	20651
856.327	20495
856.461	20457
856.595	20404
856.729	20434
856.862	20693
856.996	20438
857.13	20556
857.263	20587
857.397	20530
857.53	20457
857.664	20457
857.797	20457
857.931	20613
858.064	20442
858.197	20632
858.331	20404
858.464	20332
858.597	20248
858.731	20351
858.864	20275
858.997	20366
859.13	20495
859.263	20427
859.396	20408
859.529	20385
859.662	20332
859.795	20351
859.928	20492
860.061	20549
860.194	20613
860.327	20438
860.46	20320
860.592	20362
860.725	20644
860.858	20507
860.99	20503
861.123	20393
861.256	20275
861.388	20271
861.521	21188
861.653	20252
861.786	20278
861.918	20286
862.05	20317
862.183	20351
862.315	20454
862.447	20450
862.58	20488
862.712	20259
862.844	20183
862.976	20233
863.108	20199
863.24	20571
863.372	20046
863.504	20145
863.636	20149
863.768	20191
863.9	20134
864.032	20103
864.164	20103
864.296	20096
864.428	20168
864.559	20096
864.691	20103
864.823	20176
864.954	20005
865.086	20145
865.217	20062
865.349	19982
865.48	20012
865.612	19986
865.743	20214
865.875	20081
866.006	20016
866.137	19928
866.269	19982
866.4	20100
866.531	19978
866.662	19993
866.793	19898
866.924	20050
867.055	19947
867.186	20054
867.317	19875
867.448	19875
867.579	19944
867.71	19826
867.841	19963
867.972	20020
868.103	20035
868.233	20039
868.364	19898
868.495	20031
868.625	20081
868.756	20218
868.886	20020
869.017	20069
869.147	20145
869.278	20214
869.408	20199
869.539	20195
869.669	20252
869.799	20191
869.929	20301
870.06	20206
870.19	20492
870.32	20381
870.45	20526
870.58	20495
870.71	20720
870.84	20682
870.97	20484
871.1	20583
871.23	20708
871.36	20826
871.489	20686
871.619	20853
871.749	20693
871.879	20849
872.008	20796
872.138	20830
872.267	20842
872.397	20682
872.526	20556
872.656	20613
872.785	20537
872.915	20701
873.044	20929
873.173	20826
873.303	20815
873.432	20849
873.561	20937
873.69	20758
873.819	20777
873.948	20910
874.077	20804
874.206	20629
874.335	20804
874.464	20941
874.593	21028
874.722	21032
874.851	21055
874.979	21074
875.108	21100
875.237	21020
875.365	20864
875.494	21009
875.623	21077
875.751	20883
875.88	21077
876.008	21138
876.136	21291
876.265	21454
876.393	21519
876.521	21500
876.65	21500
876.778	21382
876.906	21317
877.034	21359
877.162	21370
877.29	21367
877.418	21378
877.546	21294
877.674	21348
877.802	21325
877.93	21351
878.058	21408
878.185	21359
878.313	21431
878.441	21359
878.568	21180
878.696	21317
878.824	21450
878.951	21466
879.079	21644
879.206	21797
879.333	21462
879.461	21332
879.588	21523
879.715	21583
879.842	21633
879.97	21462
880.097	21161
880.224	21199
880.351	21214
880.478	21249
880.605	21195
880.732	21203
880.859	21504
880.986	21180
881.112	21294
881.239	21070
881.366	20994
881.493	20910
881.619	20963
881.746	20887
881.872	20842
881.999	20773
882.125	20788
882.252	20887
882.378	20910
882.505	20990
882.631	20781
882.757	20682
882.883	20655
883.01	20697
883.136	20503
883.262	20465
883.388	20434
883.514	20484
883.64	20640
883.766	20613
883.892	20377
884.018	20317
884.143	20552
884.269	20560
884.395	20366
884.52	20305
884.646	20298
884.772	20157
884.897	20237
885.023	20271
885.148	20317
885.274	20408
885.399	20290
885.524	20313
885.65	20343
885.775	20271
885.9	20153
886.025	20381
886.15	20244
886.275	20237
886.4	20100
886.525	20176
886.65	20062
886.775	20218
886.9	20438
887.025	20492
887.149	20263
887.274	19989
887.399	20058
887.523	20043
887.648	19940
887.773	19959
887.897	20016
888.021	20039
888.146	19951
888.27	20096
888.395	20111
888.519	19955
888.643	20005
888.767	20058
888.891	19860
889.015	19708
889.139	19887
889.263	19712
889.387	19818
889.511	19864
889.635	19887
889.759	19818
889.883	19841
890.006	19917
890.13	19913
890.254	19624
890.377	19788
890.501	19487
890.624	19552
890.748	19620
890.871	19476
890.995	19350
891.118	19213
891.241	19373
891.364	19354
891.488	19449
891.611	19293
891.734	19346
891.857	19335
891.98	19331
892.103	19354
892.226	19369
892.349	19293
892.471	19110
892.594	19335
892.717	19301
892.839	19266
892.962	19468
893.085	19430
893.207	19343
893.33	19247
893.452	19202
893.575	19396
893.697	19244
893.819	19445
893.941	19384
894.064	19434
894.186	19289
894.308	19209
894.43	19308
894.552	19495
894.674	19316
894.796	19095
894.918	19152
895.04	19293
895.161	19312
895.283	19346
895.405	19156
895.526	19339
895.648	19327
895.769	19331
895.891	19350
896.012	19381
896.134	19384
896.255	19339
896.376	19278
896.498	19487
896.619	19293
896.74	19327
896.861	19575
896.982	19700
897.103	19788
897.224	19578
897.345	19620
897.466	19537
897.587	19544
897.708	19784
897.828	19422
897.949	19449
898.07	19407
898.19	19518
898.311	19677
898.431	19476
898.552	19499
898.672	19628
898.792	19506
898.913	19537
899.033	19407
899.153	19225
899.273	19225
899.393	19228
899.513	19324
899.633	19198
899.753	19194
899.873	19129
899.993	19190
900.113	19209
900.232	19278
900.352	19103
900.472	19080
900.591	19129
900.711	19038
900.83	19038
900.95	19034
901.069	19122
901.189	19038
901.308	18719
901.427	18673
901.546	18665
901.665	18738
901.784	18650
901.904	18547
902.023	18418
902.141	18152
902.26	18178
902.379	18148
902.498	18114
902.617	18049
902.735	18087
902.854	18117
902.973	17996
903.091	17889
903.21	17775
903.328	17748
903.446	17771
903.565	17642
903.683	17657
903.801	17516
903.919	17627
904.038	17600
904.156	17315
904.274	17535
904.392	17421
904.51	17417
904.627	17379
904.745	17463
904.863	17455
904.981	17185
905.098	17086
905.216	17067
905.334	17037
905.451	17128
905.569	17102
905.686	17155
905.803	17052
905.921	16862
906.038	16976
906.155	16904
906.272	16740
906.389	16721
906.506	16615
906.623	16774
906.74	16466
906.857	16531
906.974	16485
907.091	16649
907.208	16611
907.324	16603
907.441	16531
907.557	16348
907.674	16234
907.79	16253
907.907	16268
908.023	16299
908.139	16268
908.256	16200
908.372	16181
908.488	16238
908.604	15949
908.72	15972
908.836	16002
908.952	15941
909.068	16032
909.184	16177
909.3	16010
909.415	16059
909.531	16074
909.647	15675
909.762	15827
909.878	15663
909.993	15671
910.108	15675
910.224	15682
910.339	15694
910.454	15587
910.57	15519
910.685	15408
910.8	15709
910.915	15614
911.03	15462
911.145	15374
911.259	15264
911.374	15245
911.489	15226
911.604	15100
911.718	15009
911.833	15039
911.947	15070
912.062	14849
912.176	15062
912.291	15032
912.405	15009
912.519	15150
912.633	15222
912.748	14994
912.862	15047
912.976	14861
913.09	14720
913.204	14811
913.318	14842
913.431	14826
913.545	14948
913.659	14876
913.772	14785
913.886	14686
914	14575
914.113	14785
914.226	14773
914.34	14746
914.453	14552
914.566	14594
914.68	14571
914.793	14590
914.906	14434
915.019	14343
915.132	14206
915.245	14202
915.358	14298
915.47	14210
915.583	14298
915.696	14374
915.809	14339
915.921	14381
916.034	14339
916.146	14206
916.259	14225
916.371	14282
916.483	14195
916.595	14069
916.708	14183
916.82	14084
916.932	14145
917.044	14168
917.156	14008
917.268	13997
917.38	13898
917.491	13944
917.603	13951
917.715	14043
917.826	14024
917.938	13978
918.049	13822
918.161	13925
918.272	14092
918.384	14092
918.495	13871
918.606	13784
918.717	13586
918.828	13738
918.939	13875
919.05	13647
919.161	13712
919.272	13445
919.383	13620
919.494	13685
919.604	13917
919.715	13731
919.826	13613
919.936	13563
920.047	13696
920.157	13681
920.267	13875
920.378	13772
920.488	13655
920.598	13898
920.708	14046
920.818	13856
920.928	13807
921.038	14088
921.148	13925
921.258	13632
921.368	13556
921.477	13426
921.587	13400
921.697	13236
921.806	13304
921.916	13365
922.025	13110
922.134	13042
922.244	13012
922.353	13137
922.462	13031
922.571	12863
922.68	12852
922.789	12753
922.898	12856
923.007	12616
923.116	12814
923.224	12722
923.333	12726
923.442	12547
923.55	12555
923.659	12620
923.767	12551
923.876	12536
923.984	12623
924.092	12395
924.201	12486
924.309	12521
924.417	12521
924.525	12357
924.633	12418
924.741	13171
924.849	12171
924.956	12410
925.064	12106
925.172	12171
925.279	12216
925.387	12152
925.494	12216
925.602	12254
925.709	12232
925.816	12121
925.924	12159
926.031	12243
926.138	12133
926.245	12167
926.352	12034
926.459	12129
926.566	12213
926.673	12125
926.779	11923
926.886	11908
926.993	11760
927.099	11878
927.206	11729
927.312	11737
927.419	11859
927.525	11783
927.631	11805
927.737	11684
927.843	11657
927.95	11558
928.056	11611
928.162	11661
928.267	11665
928.373	12186
928.479	11722
928.585	11414
928.69	11520
928.796	11585
928.901	11478
929.007	11239
929.112	11448
929.218	11406
929.323	11360
929.428	11356
929.533	11524
929.638	11322
929.743	11356
929.848	11398
929.953	11368
930.058	11258
930.163	11029
930.267	11033
930.372	11178
930.477	10976
930.581	11341
930.685	11086
930.79	10953
930.894	10930
930.998	10930
931.103	10957
931.207	10679
931.311	10653
931.415	10478
931.519	10348
931.623	10303
