Data from test_V78500241_1639.txt Node
Date: Fri Mar 25 15:21:16 CST 2022
User: usil
Spectrometer: V785-0024
Trigger mode: 0
Integration Time (sec): 4.000000E-1
Scans to average: 1
Nonlinearity correction enabled: false
Boxcar width: 0
Storing dark spectrum: false
XAxis mode: Wavelengths
Number of Pixels in Spectrum: 1024
>>>>>Begin Spectral Data<<<<<
801.071	27789
801.214	27523
801.356	27454
801.499	27504
801.641	27340
801.783	27389
801.926	27173
802.068	27275
802.211	27329
802.353	27188
802.496	26986
802.638	26902
802.78	26872
802.923	26952
803.065	26872
803.208	26864
803.35	27005
803.492	27017
803.635	27127
803.777	27047
803.919	27142
804.061	27378
804.204	27173
804.346	27017
804.488	27062
804.63	27207
804.773	27043
804.915	27275
805.057	27287
805.199	27112
805.341	27233
805.483	27203
805.626	27165
805.768	27192
805.91	27043
806.052	27317
806.194	27264
806.336	27542
806.478	27313
806.62	27302
806.762	27397
806.904	27561
807.046	27781
807.188	27717
807.33	27694
807.472	27739
807.614	27629
807.756	27622
807.898	27618
808.04	27526
808.182	27534
808.324	27450
808.465	27530
808.607	27736
808.749	27854
808.891	27922
809.033	28105
809.174	28196
809.316	27876
809.458	27854
809.6	27880
809.741	27968
809.883	28044
810.025	28261
810.166	28051
810.308	28177
810.45	28242
810.591	28097
810.733	28006
810.875	27865
811.016	27770
811.158	27690
811.299	27835
811.441	27975
811.582	28059
811.724	27922
811.865	27838
812.007	27991
812.148	27895
812.29	27903
812.431	28181
812.573	28181
812.714	28234
812.855	28341
812.997	28493
813.138	28554
813.279	28565
813.421	28489
813.562	28325
813.703	28204
813.845	28131
813.986	27918
814.127	27614
814.268	27656
814.41	27622
814.551	27603
814.692	27713
814.833	27496
814.974	27549
815.115	27698
815.256	27393
815.397	27477
815.539	27519
815.68	27450
815.821	27325
815.962	27583
816.103	27424
816.244	27230
816.385	27096
816.526	27169
816.666	27001
816.807	26925
816.948	26910
817.089	27005
817.23	26902
817.371	26834
817.512	26861
817.653	26708
817.793	26678
817.934	26845
818.075	26906
818.216	26807
818.356	26785
818.497	26811
818.638	26537
818.778	26632
818.919	26499
819.06	26686
819.2	26739
819.341	26708
819.481	26815
819.622	26918
819.762	27203
819.903	27135
820.043	27173
820.184	27039
820.324	27024
820.465	27058
820.605	27028
820.746	27135
820.886	26769
821.026	26902
821.167	26876
821.307	27093
821.447	26811
821.588	26781
821.728	26697
821.868	26488
822.008	26320
822.149	26362
822.289	26298
822.429	26134
822.569	25982
822.709	25989
822.849	25921
822.99	25883
823.13	25712
823.27	25780
823.41	25700
823.55	25556
823.69	25647
823.83	25575
823.97	25643
824.11	25472
824.25	25384
824.389	25491
824.529	25655
824.669	25677
824.809	25571
824.949	25590
825.089	25575
825.228	25605
825.368	25506
825.508	25301
825.648	25327
825.787	25400
825.927	25445
826.067	25297
826.206	25225
826.346	25438
826.485	25419
826.625	25308
826.765	25388
826.904	25384
827.044	25099
827.183	25179
827.323	25015
827.462	25171
827.601	25095
827.741	25046
827.88	25061
828.02	25072
828.159	25046
828.298	25183
828.437	25232
828.577	25031
828.716	25061
828.855	24977
828.994	24681
829.134	24631
829.273	24776
829.412	24852
829.551	24627
829.69	24787
829.829	24779
829.968	24856
830.107	24810
830.246	24798
830.385	24673
830.524	24661
830.663	24494
830.802	24502
830.941	24346
831.08	24315
831.219	24532
831.357	24395
831.496	24582
831.635	24224
831.774	24334
831.913	24220
832.051	24235
832.19	24136
832.329	24091
832.467	23999
832.606	23988
832.744	24015
832.883	24049
833.022	23908
833.16	24091
833.299	24167
833.437	24015
833.576	24148
833.714	24076
833.852	24239
833.991	24235
834.129	24163
834.267	24098
834.406	24079
834.544	24041
834.682	23996
834.821	24030
834.959	24205
835.097	24030
835.235	24182
835.373	24049
835.511	24140
835.65	24079
835.788	24110
835.926	23859
836.064	23771
836.202	23931
836.34	23946
836.478	24136
836.615	23885
836.753	23984
836.891	23965
837.029	24057
837.167	23836
837.305	23836
837.443	23882
837.58	23775
837.718	23897
837.856	23828
837.993	23813
838.131	23760
838.269	23703
838.406	23691
838.544	23474
838.681	23436
838.819	23364
838.956	23261
839.094	23174
839.231	23345
839.369	23478
839.506	23630
839.643	23455
839.781	23269
839.918	23216
840.055	23162
840.193	23299
840.33	23124
840.467	23330
840.604	23212
840.742	23364
840.879	22984
841.016	23037
841.153	22999
841.29	23364
841.427	23197
841.564	23246
841.701	23208
841.838	23124
841.975	22953
842.112	23098
842.249	22923
842.385	22934
842.522	23064
842.659	22961
842.796	22797
842.933	22858
843.069	22790
843.206	22824
843.343	22942
843.479	22835
843.616	22877
843.752	22656
843.889	22733
844.025	22854
844.162	22615
844.298	22790
844.435	22641
844.571	22675
844.708	22736
844.844	22793
844.98	22938
845.117	22847
845.253	22618
845.389	22546
845.525	22588
845.661	22607
845.798	22519
845.934	22451
846.07	22405
846.206	22466
846.342	22603
846.478	22356
846.614	22238
846.75	22177
846.886	22147
847.022	22348
847.158	22173
847.294	22211
847.429	22310
847.565	22055
847.701	22341
847.837	22082
847.972	21831
848.108	22029
848.244	21926
848.379	21827
848.515	21705
848.65	21854
848.786	21762
848.921	21816
849.057	21850
849.192	21804
849.328	21823
849.463	21774
849.598	21629
849.734	21583
849.869	21663
850.004	21538
850.14	21591
850.275	21488
850.41	21477
850.545	21393
850.68	21336
850.815	21591
850.95	21340
851.085	21644
851.22	21637
851.355	21561
851.49	21523
851.625	21504
851.76	21507
851.895	21405
852.03	21420
852.165	21583
852.299	21580
852.434	21660
852.569	21466
852.703	21469
852.838	21656
852.973	21675
853.107	21595
853.242	21386
853.376	21378
853.511	21169
853.645	21321
853.78	21424
853.914	21393
854.048	21317
854.183	21389
854.317	21454
854.451	21496
854.585	21329
854.72	21161
854.854	21428
854.988	21211
855.122	21386
855.256	21298
855.39	21252
855.524	21359
855.658	21382
855.792	21317
855.926	21359
856.06	21454
856.194	21523
856.327	21336
856.461	21291
856.595	21329
856.729	21310
856.862	21462
856.996	21310
857.13	21363
857.263	21378
857.397	21469
857.53	21435
857.664	21348
857.797	21420
857.931	21485
858.064	21401
858.197	21408
858.331	21226
858.464	21302
858.597	21256
858.731	21332
858.864	21272
858.997	21230
859.13	21374
859.263	21386
859.396	21370
859.529	21344
859.662	21268
859.795	21241
859.928	21241
860.061	21538
860.194	21538
860.327	21435
860.46	21344
860.592	21477
860.725	21587
860.858	21382
860.99	21450
861.123	21302
861.256	21321
861.388	21272
861.521	21998
861.653	21264
861.786	21100
861.918	21214
862.05	21150
862.183	21154
862.315	21195
862.447	21504
862.58	21237
862.712	21017
862.844	21081
862.976	21199
863.108	21066
863.24	21405
863.372	21036
863.504	21020
863.636	21017
863.768	21020
863.9	21093
864.032	20868
864.164	21009
864.296	21104
864.428	21123
864.559	20960
864.691	21127
864.823	20960
864.954	21074
865.086	21001
865.217	20963
865.349	20800
865.48	20952
865.612	21020
865.743	21169
865.875	21081
866.006	20982
866.137	20914
866.269	20880
866.4	20880
866.531	20918
866.662	20800
866.793	20963
866.924	20899
867.055	20826
867.186	20853
867.317	20975
867.448	20868
867.579	20868
867.71	20758
867.841	20731
867.972	20895
868.103	20967
868.233	20944
868.364	20914
868.495	20956
868.625	21173
868.756	21176
868.886	21009
869.017	21051
869.147	21074
869.278	21275
869.408	21074
869.539	21173
869.669	21260
869.799	21093
869.929	21237
870.06	21154
870.19	21302
870.32	21416
870.45	21428
870.58	21435
870.71	21625
870.84	21667
870.97	21526
871.1	21583
871.23	21641
871.36	21846
871.489	21625
871.619	21629
871.749	21743
871.879	21724
872.008	21846
872.138	21781
872.267	21774
872.397	21549
872.526	21557
872.656	21698
872.785	21519
872.915	21739
873.044	21800
873.173	21827
873.303	21762
873.432	21816
873.561	21915
873.69	21717
873.819	21713
873.948	21717
874.077	21812
874.206	21724
874.335	21762
874.464	21823
874.593	22082
874.722	21876
874.851	22029
874.979	21857
875.108	22025
875.237	21857
875.365	21698
875.494	21994
875.623	21975
875.751	21861
875.88	22013
876.008	22013
876.136	22048
876.265	22363
876.393	22455
876.521	22432
876.65	22344
876.778	22337
876.906	22352
877.034	22337
877.162	22409
877.29	22318
877.418	22356
877.546	22276
877.674	22356
877.802	22230
877.93	22246
878.058	22295
878.185	22280
878.313	22219
878.441	22325
878.568	22128
878.696	22238
878.824	22318
878.951	22333
879.079	22504
879.206	22554
879.333	22390
879.461	22265
879.588	22409
879.715	22447
879.842	22611
879.97	22341
880.097	22090
880.224	22147
880.351	22128
880.478	22200
880.605	22112
880.732	22105
880.859	22344
880.986	22169
881.112	21987
881.239	22078
881.366	21880
881.493	21831
881.619	21762
881.746	21781
881.872	21736
881.999	21709
882.125	21682
882.252	21743
882.378	21682
882.505	21762
882.631	21435
882.757	21534
882.883	21462
883.01	21507
883.136	21332
883.262	21233
883.388	21348
883.514	21348
883.64	21317
883.766	21329
883.892	21135
884.018	21245
884.143	21386
884.269	21454
884.395	21237
884.52	21055
884.646	21123
884.772	21036
884.897	21009
885.023	21001
885.148	21028
885.274	21173
885.399	21154
885.524	21013
885.65	20990
885.775	21070
885.9	21142
886.025	21150
886.15	21104
886.275	20826
886.4	20937
886.525	21032
886.65	21077
886.775	20902
886.9	21146
887.025	21161
887.149	21013
887.274	20792
887.399	20838
887.523	20834
887.648	20667
887.773	20655
887.897	20986
888.021	20796
888.146	20902
888.27	20906
888.395	20960
888.519	20876
888.643	20872
888.767	20918
888.891	20697
889.015	20689
889.139	20663
889.263	20621
889.387	20705
889.511	20769
889.635	20674
889.759	20533
889.883	20511
890.006	20564
890.13	20796
890.254	20484
890.377	20476
890.501	20339
890.624	20408
890.748	20415
890.871	20237
890.995	20084
891.118	20111
891.241	20195
891.364	20237
891.488	20263
891.611	20107
891.734	20172
891.857	20286
891.98	20111
892.103	20149
892.226	20282
892.349	20149
892.471	19902
892.594	20062
892.717	20187
892.839	20092
892.962	20176
893.085	20149
893.207	20058
893.33	19989
893.452	20024
893.575	20161
893.697	20077
893.819	20282
893.941	20412
894.064	20278
894.186	19936
894.308	20031
894.43	20088
894.552	20263
894.674	20111
894.796	19997
894.918	19940
895.04	20031
895.161	20134
895.283	20176
895.405	19978
895.526	20069
895.648	20054
895.769	20122
895.891	20191
896.012	20180
896.134	20161
896.255	20050
896.376	19978
896.498	20081
896.619	20031
896.74	20168
896.861	20092
896.982	20355
897.103	20606
897.224	20389
897.345	20351
897.466	20168
897.587	20347
897.708	20366
897.828	20256
897.949	20275
898.07	20157
898.19	20176
898.311	20419
898.431	20332
898.552	20221
898.672	20263
898.792	20408
898.913	20218
899.033	20271
899.153	20107
899.273	19928
899.393	20035
899.513	20039
899.633	20180
899.753	20161
899.873	19982
899.993	20027
900.113	20069
900.232	20081
900.352	20001
900.472	19887
900.591	19849
900.711	19913
900.83	19814
900.95	19951
901.069	19750
901.189	19666
901.308	19601
901.427	19415
901.546	19327
901.665	19365
901.784	19430
901.904	19297
902.023	19221
902.141	18981
902.26	19053
902.379	19095
902.498	18935
902.617	18894
902.735	19012
902.854	19023
902.973	18909
903.091	18650
903.21	18467
903.328	18715
903.446	18593
903.565	18532
903.683	18410
903.801	18380
903.919	18380
904.038	18285
904.156	18262
904.274	18361
904.392	18114
904.51	18019
904.627	18155
904.745	18194
904.863	18201
904.981	17977
905.098	17832
905.216	17855
905.334	17901
905.451	17897
905.569	17912
905.686	17889
905.803	17859
905.921	17676
906.038	17855
906.155	17646
906.272	17687
906.389	17505
906.506	17436
906.623	17372
906.74	17486
906.857	17216
906.974	17250
907.091	17429
907.208	17493
907.324	17467
907.441	17261
907.557	17121
907.674	17132
907.79	17067
907.907	17181
908.023	17124
908.139	17143
908.256	17094
908.372	16995
908.488	16984
908.604	16957
908.72	16793
908.836	16908
908.952	16793
909.068	16908
909.184	16957
909.3	16839
909.415	16904
909.531	16824
909.647	16687
909.762	16546
909.878	16603
909.993	16519
910.108	16599
910.224	16478
910.339	16538
910.454	16432
910.57	16303
910.685	16329
910.8	16584
910.915	16481
911.03	16402
911.145	16215
911.259	16090
911.374	16131
911.489	16044
911.604	15987
911.718	15968
911.833	15869
911.947	15823
912.062	15766
912.176	15835
912.291	15888
912.405	15907
912.519	16048
912.633	16017
912.748	15899
912.862	15918
912.976	15705
913.09	15587
913.204	15652
913.318	15755
913.431	15827
913.545	15808
913.659	15751
913.772	15732
913.886	15530
914	15507
914.113	15641
914.226	15549
914.34	15587
914.453	15435
914.566	15481
914.68	15447
914.793	15268
914.906	15154
915.019	15123
915.132	15104
915.245	15135
915.358	15150
915.47	15131
915.583	15142
915.696	15138
915.809	15268
915.921	15245
916.034	14956
916.146	15013
916.259	15009
916.371	15123
916.483	14979
916.595	14861
916.708	14906
916.82	14941
916.932	14883
917.044	14956
917.156	14800
917.268	14731
917.38	14796
917.491	14819
917.603	14750
917.715	14804
917.826	14842
917.938	14686
918.049	14655
918.161	14743
918.272	14796
918.384	14788
918.495	14758
918.606	14541
918.717	14419
918.828	14511
918.939	14450
919.05	14404
919.161	14541
919.272	14355
919.383	14339
919.494	14537
919.604	14739
919.715	14530
919.826	14396
919.936	14434
920.047	14648
920.157	14587
920.267	14602
920.378	14564
920.488	14499
920.598	14636
920.708	14762
920.818	14636
920.928	14594
921.038	14716
921.148	14735
921.258	14355
921.368	14301
921.477	14210
921.587	14145
921.697	14107
921.806	14286
921.916	14065
922.025	13940
922.134	13932
922.244	13811
922.353	13879
922.462	13662
922.571	13742
922.68	13529
922.789	13597
922.898	13495
923.007	13468
923.116	13502
923.224	13582
923.333	13472
923.442	13354
923.55	13316
923.659	13346
923.767	13400
923.876	13396
923.984	13346
924.092	13278
924.201	13293
924.309	13236
924.417	13190
924.525	13168
924.633	13251
924.741	14107
924.849	13050
924.956	13179
925.064	12989
925.172	12825
925.279	12935
925.387	12901
925.494	12916
925.602	13012
925.709	12947
925.816	12829
925.924	12798
926.031	12935
926.138	12848
926.245	12920
926.352	12810
926.459	12932
926.566	12977
926.673	12711
926.779	12688
926.886	12722
926.993	12597
927.099	12555
927.206	12464
927.312	12525
927.419	12559
927.525	12513
927.631	12502
927.737	12338
927.843	12315
927.95	12243
928.056	12285
928.162	12308
928.267	12342
928.373	12890
928.479	12403
928.585	12148
928.69	12407
928.796	12243
928.901	12175
929.007	12125
929.112	12209
929.218	12095
929.323	11977
929.428	11996
929.533	12232
929.638	12079
929.743	11923
929.848	12034
929.953	12011
930.058	11847
930.163	11764
930.267	11779
930.372	11851
930.477	11748
930.581	11958
930.685	11805
930.79	11630
930.894	11608
930.998	11688
931.103	11707
931.207	11379
931.311	11239
931.415	11201
931.519	11018
931.623	11041
