Data from test_V78500241_2104.txt Node
Date: Fri Mar 25 15:24:30 CST 2022
User: usil
Spectrometer: V785-0024
Trigger mode: 0
Integration Time (sec): 4.000000E-1
Scans to average: 1
Nonlinearity correction enabled: false
Boxcar width: 0
Storing dark spectrum: false
XAxis mode: Wavelengths
Number of Pixels in Spectrum: 1024
>>>>>Begin Spectral Data<<<<<
801.071	27861
801.214	27850
801.356	27580
801.499	27583
801.641	27439
801.783	27477
801.926	27523
802.068	27427
802.211	27348
802.353	27378
802.496	27062
802.638	27093
802.78	27036
802.923	27043
803.065	27017
803.208	27043
803.35	27138
803.492	27275
803.635	27367
803.777	27226
803.919	27378
804.061	27424
804.204	27287
804.346	27085
804.488	27070
804.63	27386
804.773	27142
804.915	27302
805.057	27294
805.199	27272
805.341	27268
805.483	27466
805.626	27431
805.768	27298
805.91	27420
806.052	27416
806.194	27329
806.336	27469
806.478	27481
806.62	27431
806.762	27603
806.904	27614
807.046	28044
807.188	27793
807.33	27781
807.472	27907
807.614	27713
807.756	27778
807.898	27823
808.04	27652
808.182	27652
808.324	27804
808.465	27743
808.607	27991
808.749	28070
808.891	28063
809.033	28124
809.174	28082
809.316	28029
809.458	28067
809.6	28032
809.741	28116
809.883	28196
810.025	28306
810.166	28318
810.308	28223
810.45	28249
810.591	28249
810.733	28124
810.875	28059
811.016	27926
811.158	27838
811.299	28105
811.441	28219
811.582	28135
811.724	28063
811.865	27991
812.007	27987
812.148	27979
812.29	28226
812.431	28215
812.573	28261
812.714	28485
812.855	28500
812.997	28664
813.138	28824
813.279	28622
813.421	28474
813.562	28504
813.703	28223
813.845	28226
813.986	27991
814.127	27945
814.268	27701
814.41	27812
814.551	27736
814.692	27739
814.833	27633
814.974	27739
815.115	27793
815.256	27732
815.397	27690
815.539	27587
815.68	27397
815.821	27492
815.962	27591
816.103	27340
816.244	27401
816.385	27329
816.526	27325
816.666	26998
816.807	26998
816.948	27112
817.089	27135
817.23	27070
817.371	27032
817.512	27074
817.653	26998
817.793	26807
817.934	27020
818.075	27062
818.216	27017
818.356	26902
818.497	26902
818.638	26769
818.778	26811
818.919	26834
819.06	26853
819.2	26883
819.341	26933
819.481	26944
819.622	27203
819.762	27393
819.903	27340
820.043	27287
820.184	27096
820.324	27017
820.465	27100
820.605	27096
820.746	27150
820.886	26921
821.026	26933
821.167	27089
821.307	27074
821.447	27005
821.588	26960
821.728	26773
821.868	26518
822.008	26522
822.149	26663
822.289	26522
822.429	26206
822.569	26069
822.709	26191
822.849	25978
822.99	26008
823.13	26031
823.27	25753
823.41	25811
823.55	25750
823.69	25849
823.83	25856
823.97	25731
824.11	25586
824.25	25521
824.389	25662
824.529	25670
824.669	25723
824.809	25616
824.949	25822
825.089	25704
825.228	25537
825.368	25426
825.508	25430
825.648	25415
825.787	25460
825.927	25578
826.067	25506
826.206	25430
826.346	25502
826.485	25609
826.625	25521
826.765	25472
826.904	25521
827.044	25198
827.183	25320
827.323	25164
827.462	25156
827.601	25061
827.741	25118
827.88	25168
828.02	25190
828.159	25206
828.298	25240
828.437	25187
828.577	25023
828.716	25282
828.855	25187
828.994	24996
829.134	24878
829.273	24890
829.412	24875
829.551	24787
829.69	24916
829.829	24871
829.968	24992
830.107	24947
830.246	24989
830.385	24897
830.524	24829
830.663	24654
830.802	24528
830.941	24429
831.08	24528
831.219	24646
831.357	24566
831.496	24768
831.635	24589
831.774	24296
831.913	24346
832.051	24209
832.19	24296
832.329	24399
832.467	24270
832.606	24186
832.744	24034
832.883	24174
833.022	24095
833.16	24213
833.299	24178
833.437	24182
833.576	24167
833.714	24167
833.852	24277
833.991	24228
834.129	24338
834.267	24346
834.406	24304
834.544	24239
834.682	24228
834.821	24251
834.959	24270
835.097	24155
835.235	24308
835.373	24136
835.511	24155
835.65	24102
835.788	24102
835.926	23988
836.064	23805
836.202	23824
836.34	24079
836.478	24114
836.615	24079
836.753	24018
836.891	24133
837.029	23996
837.167	23980
837.305	23980
837.443	23908
837.58	23927
837.718	23882
837.856	23988
837.993	23748
838.131	23874
838.269	23824
838.406	23760
838.544	23638
838.681	23589
838.819	23581
838.956	23356
839.094	23372
839.231	23372
839.369	23497
839.506	23604
839.643	23634
839.781	23429
839.918	23292
840.055	23356
840.193	23174
840.33	23162
840.467	23277
840.604	23261
840.742	23535
840.879	23216
841.016	23178
841.153	23147
841.29	23341
841.427	23273
841.564	23166
841.701	23254
841.838	23216
841.975	23086
842.112	23170
842.249	23071
842.385	23060
842.522	23132
842.659	23189
842.796	22930
842.933	23003
843.069	22938
843.206	22938
843.343	23018
843.479	23029
843.616	22972
843.752	22843
843.889	22782
844.025	22968
844.162	22801
844.298	22919
844.435	22843
844.571	22687
844.708	22805
844.844	22923
844.98	22881
845.117	22866
845.253	22611
845.389	22767
845.525	22672
845.661	22584
845.798	22516
845.934	22508
846.07	22462
846.206	22497
846.342	22645
846.478	22485
846.614	22291
846.75	22314
846.886	22325
847.022	22390
847.158	22226
847.294	22409
847.429	22177
847.565	22291
847.701	22421
847.837	22010
847.972	21937
848.108	21975
848.244	22055
848.379	22002
848.515	21831
848.65	21785
848.786	21857
848.921	21937
849.057	21964
849.192	21968
849.328	21823
849.463	21903
849.598	21686
849.734	21755
849.869	21667
850.004	21690
850.14	21682
850.275	21583
850.41	21450
850.545	21496
850.68	21603
850.815	21656
850.95	21625
851.085	21747
851.22	21629
851.355	21557
851.49	21629
851.625	21629
851.76	21576
851.895	21466
852.03	21530
852.165	21629
852.299	21690
852.434	21679
852.569	21663
852.703	21466
852.838	21633
852.973	21694
853.107	21781
853.242	21557
853.376	21325
853.511	21256
853.645	21313
853.78	21473
853.914	21408
854.048	21428
854.183	21363
854.317	21382
854.451	21500
854.585	21325
854.72	21424
854.854	21591
854.988	21306
855.122	21351
855.256	21298
855.39	21336
855.524	21450
855.658	21561
855.792	21439
855.926	21401
856.06	21504
856.194	21488
856.327	21439
856.461	21344
856.595	21313
856.729	21408
856.862	21477
856.996	21447
857.13	21412
857.263	21534
857.397	21523
857.53	21294
857.664	21450
857.797	21420
857.931	21500
858.064	21382
858.197	21485
858.331	21462
858.464	21393
858.597	21412
858.731	21386
858.864	21329
858.997	21466
859.13	21473
859.263	21408
859.396	21526
859.529	21351
859.662	21428
859.795	21325
859.928	21351
860.061	21458
860.194	21652
860.327	21507
860.46	21428
860.592	21595
860.725	21625
860.858	21576
860.99	21370
861.123	21363
861.256	21310
861.388	21515
861.521	22131
861.653	21279
861.786	21214
861.918	21252
862.05	21272
862.183	21332
862.315	21355
862.447	21359
862.58	21332
862.712	21214
862.844	21077
862.976	21169
863.108	21325
863.24	21488
863.372	21055
863.504	21230
863.636	21127
863.768	21241
863.9	21150
864.032	21142
864.164	21039
864.296	21093
864.428	21180
864.559	21291
864.691	21256
864.823	21085
864.954	21066
865.086	21165
865.217	21039
865.349	20998
865.48	21036
865.612	21055
865.743	21108
865.875	21058
866.006	20998
866.137	21039
866.269	20937
866.4	21116
866.531	20979
866.662	20883
866.793	20986
866.924	21013
867.055	21017
867.186	20956
867.317	21001
867.448	20868
867.579	20842
867.71	20902
867.841	20823
867.972	21062
868.103	20914
868.233	20937
868.364	20910
868.495	21135
868.625	21142
868.756	21363
868.886	21142
869.017	21180
869.147	21211
869.278	21233
869.408	21317
869.539	21100
869.669	21306
869.799	21294
869.929	21249
870.06	21264
870.19	21481
870.32	21553
870.45	21637
870.58	21576
870.71	21671
870.84	21671
870.97	21622
871.1	21591
871.23	21724
871.36	21739
871.489	21583
871.619	21770
871.749	21709
871.879	21835
872.008	21926
872.138	21835
872.267	21690
872.397	21629
872.526	21736
872.656	21633
872.785	21671
872.915	21915
873.044	22013
873.173	21686
873.303	21998
873.432	21865
873.561	21911
873.69	21774
873.819	21789
873.948	21857
874.077	21823
874.206	21945
874.335	21918
874.464	22021
874.593	21998
874.722	22070
874.851	22105
874.979	22055
875.108	22074
875.237	21975
875.365	21975
875.494	22002
875.623	22124
875.751	22010
875.88	21998
876.008	22086
876.136	22128
876.265	22504
876.393	22474
876.521	22554
876.65	22447
876.778	22462
876.906	22352
877.034	22265
877.162	22394
877.29	22356
877.418	22546
877.546	22489
877.674	22394
877.802	22284
877.93	22451
878.058	22303
878.185	22230
878.313	22318
878.441	22363
878.568	22173
878.696	22382
878.824	22500
878.951	22519
879.079	22596
879.206	22755
879.333	22462
879.461	22382
879.588	22409
879.715	22523
879.842	22634
879.97	22443
880.097	22249
880.224	22158
880.351	22230
880.478	22139
880.605	22105
880.732	22112
880.859	22402
880.986	22234
881.112	22230
881.239	22090
881.366	21960
881.493	21922
881.619	21899
881.746	21915
881.872	21861
881.999	21835
882.125	21789
882.252	21736
882.378	21884
882.505	21842
882.631	21599
882.757	21496
882.883	21587
883.01	21534
883.136	21504
883.262	21450
883.388	21382
883.514	21454
883.64	21587
883.766	21473
883.892	21165
884.018	21222
884.143	21336
884.269	21614
884.395	21233
884.52	21188
884.646	21275
884.772	21195
884.897	21142
885.023	21138
885.148	21218
885.274	21348
885.399	21272
885.524	21100
885.65	21268
885.775	21176
885.9	21154
886.025	21214
886.15	21241
886.275	21192
886.4	21047
886.525	21214
886.65	20952
886.775	21036
886.9	21256
887.025	21192
887.149	21089
887.274	21051
887.399	20948
887.523	20933
887.648	20986
887.773	20876
887.897	20952
888.021	20960
888.146	20845
888.27	20975
888.395	20963
888.519	20971
888.643	20918
888.767	20944
888.891	20819
889.015	20739
889.139	20880
889.263	20727
889.387	20796
889.511	20937
889.635	20891
889.759	20724
889.883	20678
890.006	20743
890.13	20811
890.254	20613
890.377	20636
890.501	20450
890.624	20355
890.748	20450
890.871	20434
890.995	20248
891.118	20130
891.241	20263
891.364	20385
891.488	20385
891.611	20309
891.734	20339
891.857	20427
891.98	20362
892.103	20339
892.226	20343
892.349	20309
892.471	20130
892.594	20206
892.717	20278
892.839	20168
892.962	20088
893.085	20317
893.207	20199
893.33	20115
893.452	20149
893.575	20218
893.697	20107
893.819	20282
893.941	20309
894.064	20427
894.186	20206
894.308	20138
894.43	20294
894.552	20278
894.674	20358
894.796	20092
894.918	20286
895.04	20157
895.161	20199
895.283	20313
895.405	20206
895.526	20206
895.648	20278
895.769	20138
895.891	20183
896.012	20244
896.134	20275
896.255	20301
896.376	20210
896.498	20229
896.619	20233
896.74	20130
896.861	20145
896.982	20537
897.103	20636
897.224	20343
897.345	20377
897.466	20301
897.587	20446
897.708	20469
897.828	20358
897.949	20476
898.07	20195
898.19	20332
898.311	20488
898.431	20301
898.552	20362
898.672	20530
898.792	20461
898.913	20377
899.033	20358
899.153	20187
899.273	20122
899.393	20126
899.513	20229
899.633	19951
899.753	20202
899.873	20134
899.993	20138
900.113	20103
900.232	20031
900.352	20069
900.472	19982
900.591	19963
900.711	19982
900.83	19974
900.95	20005
901.069	19940
901.189	19841
901.308	19620
901.427	19590
901.546	19609
901.665	19563
901.784	19578
901.904	19396
902.023	19270
902.141	19095
902.26	19145
902.379	19183
902.498	18985
902.617	19004
902.735	19088
902.854	19012
902.973	19004
903.091	18738
903.21	18688
903.328	18616
903.446	18532
903.565	18669
903.683	18582
903.801	18403
903.919	18589
904.038	18483
904.156	18323
904.274	18391
904.392	18254
904.51	18262
904.627	18243
904.745	18270
904.863	18296
904.981	17999
905.098	17973
905.216	17942
905.334	18019
905.451	17897
905.569	18015
905.686	17965
905.803	17958
905.921	17737
906.038	17889
906.155	17729
906.272	17611
906.389	17710
906.506	17452
906.623	17482
906.74	17444
906.857	17368
906.974	17334
907.091	17566
907.208	17592
907.324	17532
907.441	17269
907.557	17288
907.674	17235
907.79	17204
907.907	17083
908.023	17212
908.139	17117
908.256	17102
908.372	17075
908.488	17067
908.604	16915
908.72	16835
908.836	16911
908.952	16968
909.068	16896
909.184	16881
909.3	16930
909.415	16946
909.531	16953
909.647	16645
909.762	16641
909.878	16630
909.993	16546
910.108	16516
910.224	16561
910.339	16588
910.454	16413
910.57	16428
910.685	16325
910.8	16592
910.915	16573
911.03	16489
911.145	16352
911.259	16177
911.374	16215
911.489	16093
911.604	16036
911.718	15956
911.833	15960
911.947	15736
912.062	15835
912.176	15842
912.291	15903
912.405	15918
912.519	16078
912.633	16036
912.748	15865
912.862	15960
912.976	15728
913.09	15694
913.204	15762
913.318	15831
913.431	15804
913.545	15743
913.659	15831
913.772	15755
913.886	15530
914	15515
914.113	15641
914.226	15686
914.34	15637
914.453	15340
914.566	15625
914.68	15389
914.793	15363
914.906	15207
915.019	15089
915.132	15218
915.245	15176
915.358	15165
915.47	15203
915.583	15184
915.696	15207
915.809	15272
915.921	15275
916.034	15119
916.146	15116
916.259	15116
916.371	15100
916.483	15154
916.595	15070
916.708	15066
916.82	14925
916.932	15020
917.044	14902
917.156	15081
917.268	14933
917.38	14880
917.491	14800
917.603	14804
917.715	14826
917.826	14815
917.938	14792
918.049	14659
918.161	14853
918.272	14952
918.384	14891
918.495	14758
918.606	14606
918.717	14564
918.828	14590
918.939	14617
919.05	14396
919.161	14499
919.272	14404
919.383	14533
919.494	14625
919.604	14731
919.715	14594
919.826	14495
919.936	14499
920.047	14617
920.157	14556
920.267	14625
920.378	14533
920.488	14492
920.598	14712
920.708	14727
920.818	14697
920.928	14739
921.038	14750
921.148	14754
921.258	14450
921.368	14400
921.477	14343
921.587	14294
921.697	14126
921.806	14298
921.916	14115
922.025	14005
922.134	13932
922.244	13822
922.353	13989
922.462	13799
922.571	13750
922.68	13700
922.789	13457
922.898	13525
923.007	13544
923.116	13594
923.224	13571
923.333	13586
923.442	13438
923.55	13426
923.659	13369
923.767	13381
923.876	13365
923.984	13384
924.092	13377
924.201	13350
924.309	13285
924.417	13251
924.525	13183
924.633	13247
924.741	14005
924.849	13019
924.956	13221
925.064	12970
925.172	12901
925.279	12958
925.387	12966
925.494	12947
925.602	12996
925.709	13133
925.816	12947
925.924	12875
926.031	12985
926.138	12882
926.245	12935
926.352	12814
926.459	12996
926.566	12970
926.673	12829
926.779	12821
926.886	12779
926.993	12551
927.099	12528
927.206	12486
927.312	12445
927.419	12483
927.525	12547
927.631	12483
927.737	12460
927.843	12304
927.95	12281
928.056	12292
928.162	12369
928.267	12369
928.373	12996
928.479	12384
928.585	12220
928.69	12319
928.796	12384
928.901	12182
929.007	12064
929.112	12117
929.218	12197
929.323	12087
929.428	12129
929.533	12266
929.638	12041
929.743	12095
929.848	12110
929.953	12072
930.058	11828
930.163	11745
930.267	11802
930.372	11851
930.477	11688
930.581	12026
930.685	11676
930.79	11619
930.894	11672
930.998	11611
931.103	11741
931.207	11410
931.311	11258
931.415	11242
931.519	11136
931.623	11045
