Data from test_V78500241_2704.txt Node
Date: Fri Mar 25 15:28:41 CST 2022
User: usil
Spectrometer: V785-0024
Trigger mode: 0
Integration Time (sec): 4.000000E-1
Scans to average: 1
Nonlinearity correction enabled: false
Boxcar width: 0
Storing dark spectrum: false
XAxis mode: Wavelengths
Number of Pixels in Spectrum: 1024
>>>>>Begin Spectral Data<<<<<
801.071	26921
801.214	27032
801.356	26845
801.499	26716
801.641	26720
801.783	26785
801.926	26815
802.068	26590
802.211	26526
802.353	26423
802.496	26328
802.638	26290
802.78	26298
802.923	26237
803.065	26084
803.208	26142
803.35	26332
803.492	26244
803.635	26480
803.777	26343
803.919	26351
804.061	26758
804.204	26366
804.346	26305
804.488	26442
804.63	26248
804.773	26328
804.915	26434
805.057	26469
805.199	26355
805.341	26549
805.483	26503
805.626	26423
805.768	26351
805.91	26583
806.052	26503
806.194	26351
806.336	26648
806.478	26533
806.62	26442
806.762	26503
806.904	26861
807.046	26963
807.188	26880
807.33	27051
807.472	26967
807.614	26864
807.756	26804
807.898	26823
808.04	26606
808.182	26762
808.324	26800
808.465	26826
808.607	26956
808.749	27055
808.891	27062
809.033	27279
809.174	27313
809.316	27047
809.458	27116
809.6	27138
809.741	27161
809.883	27317
810.025	27332
810.166	27302
810.308	27291
810.45	27397
810.591	27302
810.733	27085
810.875	27157
811.016	26940
811.158	27055
811.299	27222
811.441	27230
811.582	27226
811.724	27039
811.865	27116
812.007	26994
812.148	26990
812.29	27047
812.431	27184
812.573	27344
812.714	27431
812.855	27587
812.997	27587
813.138	27724
813.279	27675
813.421	27606
813.562	27443
813.703	27325
813.845	27241
813.986	27039
814.127	26845
814.268	26762
814.41	26826
814.551	26617
814.692	26754
814.833	26689
814.974	26834
815.115	26659
815.256	26526
815.397	26716
815.539	26541
815.68	26522
815.821	26461
815.962	26488
816.103	26522
816.244	26404
816.385	26362
816.526	26259
816.666	26062
816.807	26008
816.948	26016
817.089	26172
817.23	25970
817.371	26012
817.512	26092
817.653	26008
817.793	25913
817.934	25966
818.075	25902
818.216	26001
818.356	25940
818.497	25902
818.638	25868
818.778	25712
818.919	25795
819.06	25814
819.2	25890
819.341	25959
819.481	25951
819.622	26096
819.762	26248
819.903	26218
820.043	26111
820.184	26100
820.324	25970
820.465	26126
820.605	26122
820.746	26168
820.886	25871
821.026	26054
821.167	26024
821.307	26027
821.447	25974
821.588	25936
821.728	25860
821.868	25563
822.008	25552
822.149	25460
822.289	25373
822.429	25190
822.569	25118
822.709	25076
822.849	24966
822.99	24977
823.13	24886
823.27	24935
823.41	24684
823.55	24722
823.69	24856
823.83	24878
823.97	24791
824.11	24513
824.25	24479
824.389	24730
824.529	24688
824.669	24631
824.809	24798
824.949	24669
825.089	24692
825.228	24661
825.368	24308
825.508	24471
825.648	24456
825.787	24483
825.927	24490
826.067	24429
826.206	24334
826.346	24563
826.485	24551
826.625	24547
826.765	24536
826.904	24464
827.044	24232
827.183	24186
827.323	24110
827.462	24224
827.601	24201
827.741	24171
827.88	24197
828.02	23954
828.159	24144
828.298	24136
828.437	24216
828.577	24087
828.716	24273
828.855	23946
828.994	23859
829.134	24007
829.273	23969
829.412	23821
829.551	23665
829.69	23893
829.829	23908
829.968	23965
830.107	23912
830.246	23939
830.385	23870
830.524	23832
830.663	23611
830.802	23573
830.941	23611
831.08	23493
831.219	23516
831.357	23524
831.496	23714
831.635	23448
831.774	23391
831.913	23505
832.051	23303
832.19	23288
832.329	23311
832.467	23220
832.606	23014
832.744	23242
832.883	23102
833.022	23185
833.16	23132
833.299	23269
833.437	23223
833.576	23159
833.714	23254
833.852	23197
833.991	23204
834.129	23318
834.267	23440
834.406	23277
834.544	23265
834.682	23303
834.821	23235
834.959	23402
835.097	23181
835.235	23311
835.373	23185
835.511	23162
835.65	22991
835.788	22999
835.926	22934
836.064	22927
836.202	23048
836.34	23117
836.478	23113
836.615	22991
836.753	23064
836.891	23098
837.029	23048
837.167	23090
837.305	22889
837.443	22946
837.58	22889
837.718	22904
837.856	22946
837.993	22816
838.131	22984
838.269	22801
838.406	22919
838.544	22786
838.681	22721
838.819	22516
838.956	22577
839.094	22356
839.231	22481
839.369	22599
839.506	22664
839.643	22649
839.781	22440
839.918	22443
840.055	22295
840.193	22265
840.33	22428
840.467	22462
840.604	22352
840.742	22588
840.879	22120
841.016	22363
841.153	22382
841.29	22512
841.427	22375
841.564	22287
841.701	22360
841.838	22284
841.975	22055
842.112	22291
842.249	22192
842.385	22173
842.522	22329
842.659	22177
842.796	22109
842.933	22105
843.069	22044
843.206	22112
843.343	22055
843.479	22090
843.616	22090
843.752	21854
843.889	22010
844.025	21979
844.162	21880
844.298	21968
844.435	21888
844.571	21781
844.708	21994
844.844	21960
844.98	21903
845.117	22021
845.253	21800
845.389	21682
845.525	21762
845.661	21591
845.798	21523
845.934	21629
846.07	21530
846.206	21713
846.342	21690
846.478	21629
846.614	21340
846.75	21321
846.886	21458
847.022	21298
847.158	21416
847.294	21287
847.429	21378
847.565	21325
847.701	21496
847.837	21066
847.972	21116
848.108	21245
848.244	21176
848.379	20963
848.515	20979
848.65	20921
848.786	20975
848.921	20998
849.057	20914
849.192	20990
849.328	20921
849.463	20861
849.598	20727
849.734	20800
849.869	20804
850.004	20674
850.14	20754
850.275	20670
850.41	20632
850.545	20765
850.68	20606
850.815	20739
850.95	20667
851.085	20861
851.22	20655
851.355	20777
851.49	20701
851.625	20765
851.76	20644
851.895	20609
852.03	20575
852.165	20651
852.299	20739
852.434	20758
852.569	20800
852.703	20682
852.838	20762
852.973	20788
853.107	20785
853.242	20686
853.376	20438
853.511	20324
853.645	20480
853.78	20632
853.914	20541
854.048	20503
854.183	20446
854.317	20511
854.451	20670
854.585	20587
854.72	20522
854.854	20602
854.988	20465
855.122	20454
855.256	20400
855.39	20648
855.524	20579
855.658	20594
855.792	20518
855.926	20530
856.06	20716
856.194	20644
856.327	20583
856.461	20400
856.595	20617
856.729	20549
856.862	20632
856.996	20476
857.13	20648
857.263	20659
857.397	20621
857.53	20366
857.664	20617
857.797	20590
857.931	20625
858.064	20571
858.197	20625
858.331	20545
858.464	20465
858.597	20442
858.731	20465
858.864	20431
858.997	20632
859.13	20484
859.263	20476
859.396	20644
859.529	20465
859.662	20507
859.795	20454
859.928	20556
860.061	20708
860.194	20724
860.327	20583
860.46	20571
860.592	20629
860.725	20575
860.858	20773
860.99	20575
861.123	20457
861.256	20579
861.388	20541
861.521	21180
861.653	20389
861.786	20320
861.918	20400
862.05	20476
862.183	20454
862.315	20476
862.447	20617
862.58	20549
862.712	20454
862.844	20168
862.976	20415
863.108	20233
863.24	20735
863.372	20088
863.504	20290
863.636	20168
863.768	20256
863.9	20126
864.032	20210
864.164	20286
864.296	20298
864.428	20339
864.559	20408
864.691	20320
864.823	20271
864.954	20320
865.086	20336
865.217	20153
865.349	20062
865.48	20100
865.612	20172
865.743	20290
865.875	20138
866.006	20100
866.137	20286
866.269	20183
866.4	20187
866.531	20073
866.662	20001
866.793	20069
866.924	20142
867.055	20088
867.186	20142
867.317	19989
867.448	19993
867.579	20084
867.71	20031
867.841	19993
867.972	20119
868.103	20168
868.233	20271
868.364	20031
868.495	20218
868.625	20377
868.756	20408
868.886	20294
869.017	20324
869.147	20533
869.278	20434
869.408	20419
869.539	20355
869.669	20355
869.799	20404
869.929	20484
870.06	20461
870.19	20609
870.32	20674
870.45	20651
870.58	20678
870.71	20872
870.84	20948
870.97	20819
871.1	20754
871.23	20929
871.36	20842
871.489	20804
871.619	20941
871.749	20933
871.879	20918
872.008	21058
872.138	20967
872.267	21108
872.397	20826
872.526	20720
872.656	20773
872.785	20823
872.915	20956
873.044	20963
873.173	20986
873.303	21020
873.432	20948
873.561	21013
873.69	21005
873.819	21051
873.948	20925
874.077	20861
874.206	20967
874.335	20933
874.464	21138
874.593	21176
874.722	21214
874.851	21169
874.979	21222
875.108	21260
875.237	21081
875.365	21089
875.494	21157
875.623	21157
875.751	21192
875.88	21245
876.008	21279
876.136	21454
876.265	21724
876.393	21622
876.521	21644
876.65	21705
876.778	21576
876.906	21701
877.034	21492
877.162	21656
877.29	21450
877.418	21675
877.546	21568
877.674	21492
877.802	21500
877.93	21614
878.058	21515
878.185	21488
878.313	21526
878.441	21473
878.568	21351
878.696	21557
878.824	21561
878.951	21644
879.079	21736
879.206	21945
879.333	21698
879.461	21717
879.588	21595
879.715	21679
879.842	21918
879.97	21671
880.097	21447
880.224	21439
880.351	21435
880.478	21408
880.605	21329
880.732	21298
880.859	21564
880.986	21420
881.112	21393
881.239	21249
881.366	21150
881.493	21001
881.619	21051
881.746	20994
881.872	21013
881.999	21009
882.125	20960
882.252	21028
882.378	20933
882.505	20910
882.631	20963
882.757	20674
882.883	20708
883.01	20724
883.136	20415
883.262	20492
883.388	20571
883.514	20716
883.64	20602
883.766	20556
883.892	20454
884.018	20594
884.143	20594
884.269	20762
884.395	20400
884.52	20286
884.646	20309
884.772	20206
884.897	20183
885.023	20351
885.148	20324
885.274	20480
885.399	20492
885.524	20377
885.65	20343
885.775	20366
885.9	20351
886.025	20267
886.15	20332
886.275	20431
886.4	20210
886.525	20355
886.65	20294
886.775	20290
886.9	20438
887.025	20438
887.149	20320
887.274	20164
887.399	20043
887.523	20149
887.648	19993
887.773	20012
887.897	20119
888.021	20180
888.146	20176
888.27	20233
888.395	20210
888.519	20168
888.643	20161
888.767	20145
888.891	20005
889.015	19986
889.139	20084
889.263	19902
889.387	19921
889.511	20050
889.635	19978
889.759	19849
889.883	19906
890.006	20008
890.13	19944
890.254	19803
890.377	19833
890.501	19708
890.624	19723
890.748	19734
890.871	19518
890.995	19430
891.118	19472
891.241	19521
891.364	19480
891.488	19559
891.611	19605
891.734	19571
891.857	19552
891.98	19537
892.103	19563
892.226	19548
892.349	19510
892.471	19365
892.594	19430
892.717	19415
892.839	19419
892.962	19350
893.085	19575
893.207	19308
893.33	19278
893.452	19358
893.575	19365
893.697	19449
893.819	19529
893.941	19681
894.064	19571
894.186	19422
894.308	19339
894.43	19495
894.552	19575
894.674	19495
894.796	19232
894.918	19343
895.04	19453
895.161	19480
895.283	19521
895.405	19358
895.526	19400
895.648	19331
895.769	19487
895.891	19445
896.012	19468
896.134	19540
896.255	19434
896.376	19430
896.498	19502
896.619	19434
896.74	19324
896.861	19392
896.982	19757
897.103	19921
897.224	19746
897.345	19571
897.466	19575
897.587	19605
897.708	19727
897.828	19712
897.949	19582
898.07	19438
898.19	19632
898.311	19616
898.431	19529
898.552	19693
898.672	19753
898.792	19639
898.913	19658
899.033	19453
899.153	19495
899.273	19259
899.393	19464
899.513	19514
899.633	19422
899.753	19434
899.873	19381
899.993	19445
900.113	19415
900.232	19438
900.352	19331
900.472	19225
900.591	19209
900.711	19285
900.83	19091
900.95	19251
901.069	19350
901.189	19091
901.308	18890
901.427	18738
901.546	18856
901.665	18745
901.784	18783
901.904	18658
902.023	18467
902.141	18369
902.26	18388
902.379	18437
902.498	18304
902.617	18216
902.735	18403
902.854	18266
902.973	18239
903.091	18053
903.21	17859
903.328	17923
903.446	17965
903.565	17863
903.683	17931
903.801	17699
903.919	17726
904.038	17668
904.156	17509
904.274	17653
904.392	17600
904.51	17490
904.627	17573
904.745	17672
904.863	17668
904.981	17356
905.098	17242
905.216	17231
905.334	17311
905.451	17296
905.569	17273
905.686	17280
905.803	17227
905.921	17075
906.038	17246
906.155	17018
906.272	16892
906.389	16976
906.506	16725
906.623	16866
906.74	16717
906.857	16736
906.974	16725
907.091	16793
907.208	16847
907.324	16858
907.441	16744
907.557	16542
907.674	16538
907.79	16409
907.907	16386
908.023	16504
908.139	16519
908.256	16478
908.372	16447
908.488	16363
908.604	16238
908.72	16249
908.836	16238
908.952	16261
909.068	16128
909.184	16356
909.3	16200
909.415	16242
909.531	16257
909.647	15983
909.762	15968
909.878	15915
909.993	15956
910.108	15994
910.224	15865
910.339	15956
910.454	15816
910.57	15850
910.685	15694
910.8	15953
910.915	15915
911.03	15671
911.145	15523
911.259	15473
911.374	15557
911.489	15507
911.604	15553
911.718	15302
911.833	15348
911.947	15329
912.062	15161
912.176	15313
912.291	15450
912.405	15458
912.519	15534
912.633	15519
912.748	15348
912.862	15298
912.976	15112
913.09	15036
913.204	15195
913.318	15112
913.431	15233
913.545	15195
913.659	15131
913.772	15131
913.886	15013
914	14914
914.113	14925
914.226	15085
914.34	15020
914.453	14861
914.566	14998
914.68	14792
914.793	14796
914.906	14686
915.019	14651
915.132	14552
915.245	14575
915.358	14632
915.47	14530
915.583	14617
915.696	14632
915.809	14644
915.921	14655
916.034	14457
916.146	14400
916.259	14434
916.371	14632
916.483	14590
916.595	14324
916.708	14389
916.82	14358
916.932	14374
917.044	14450
917.156	14374
917.268	14256
917.38	14294
917.491	14275
917.603	14320
917.715	14301
917.826	14381
917.938	14145
918.049	14103
918.161	14244
918.272	14385
918.384	14366
918.495	14172
918.606	14043
918.717	13963
918.828	14069
918.939	14054
919.05	13989
919.161	13936
919.272	13852
919.383	13936
919.494	14168
919.604	14202
919.715	13982
919.826	13978
919.936	13997
920.047	14077
920.157	13997
920.267	14172
920.378	13951
920.488	13875
920.598	14161
920.708	14290
920.818	14031
920.928	14088
921.038	14244
921.148	14180
921.258	13967
921.368	13913
921.477	13791
921.587	13677
921.697	13616
921.806	13753
921.916	13662
922.025	13384
922.134	13415
922.244	13426
922.353	13422
922.462	13236
922.571	13179
922.68	13008
922.789	13046
922.898	13095
923.007	12962
923.116	13080
923.224	12985
923.333	12977
923.442	12966
923.55	12924
923.659	12894
923.767	12947
923.876	12844
923.984	12935
924.092	12738
924.201	12856
924.309	12806
924.417	12814
924.525	12738
924.633	12734
924.741	13609
924.849	12517
924.956	12665
925.064	12547
925.172	12414
925.279	12334
925.387	12521
925.494	12399
925.602	12578
925.709	12502
925.816	12357
925.924	12490
926.031	12547
926.138	12395
926.245	12433
926.352	12304
926.459	12460
926.566	12486
926.673	12353
926.779	12224
926.886	12262
926.993	12095
927.099	12079
927.206	12007
927.312	11984
927.419	12049
927.525	12072
927.631	12117
927.737	11927
927.843	11901
927.95	11798
928.056	11840
928.162	11874
928.267	11935
928.373	12490
928.479	11863
928.585	11710
928.69	11889
928.796	11855
928.901	11752
929.007	11596
929.112	11767
929.218	11699
929.323	11638
929.428	11657
929.533	11828
929.638	11551
929.743	11581
929.848	11661
929.953	11505
930.058	11493
930.163	11322
930.267	11376
930.372	11512
930.477	11193
930.581	11558
930.685	11334
930.79	11212
930.894	11265
930.998	11231
931.103	11353
931.207	11079
931.311	10927
931.415	10828
931.519	10653
931.623	10596
