Data from test_V78500241_1578.txt Node
Date: Fri Mar 25 15:20:50 CST 2022
User: usil
Spectrometer: V785-0024
Trigger mode: 0
Integration Time (sec): 4.000000E-1
Scans to average: 1
Nonlinearity correction enabled: false
Boxcar width: 0
Storing dark spectrum: false
XAxis mode: Wavelengths
Number of Pixels in Spectrum: 1024
>>>>>Begin Spectral Data<<<<<
801.071	27637
801.214	27629
801.356	27207
801.499	27222
801.641	27207
801.783	27077
801.926	27161
802.068	27081
802.211	27062
802.353	26838
802.496	26807
802.638	26769
802.78	26689
802.923	26758
803.065	26670
803.208	26606
803.35	26701
803.492	26773
803.635	26929
803.777	26857
803.919	26906
804.061	27310
804.204	27024
804.346	26967
804.488	26815
804.63	26910
804.773	26785
804.915	26979
805.057	27081
805.199	26895
805.341	27013
805.483	27039
805.626	27096
805.768	27013
805.91	27009
806.052	27096
806.194	27096
806.336	27176
806.478	27039
806.62	27104
806.762	27070
806.904	27241
807.046	27644
807.188	27564
807.33	27507
807.472	27397
807.614	27458
807.756	27348
807.898	27188
808.04	27370
808.182	27218
808.324	27268
808.465	27279
808.607	27443
808.749	27595
808.891	27842
809.033	27739
809.174	27774
809.316	27667
809.458	27804
809.6	27766
809.741	27755
809.883	27911
810.025	28044
810.166	27869
810.308	28032
810.45	27953
810.591	27812
810.733	27591
810.875	27766
811.016	27481
811.158	27625
811.299	27736
811.441	27690
811.582	27922
811.724	27713
811.865	27720
812.007	27641
812.148	27595
812.29	27549
812.431	27899
812.573	27983
812.714	27987
812.855	28082
812.997	28299
813.138	28310
813.279	28405
813.421	28032
813.562	28093
813.703	28002
813.845	27774
813.986	27542
814.127	27416
814.268	27264
814.41	27477
814.551	27408
814.692	27458
814.833	27389
814.974	27302
815.115	27306
815.256	27203
815.397	27188
815.539	27249
815.68	27203
815.821	27131
815.962	27108
816.103	27165
816.244	26979
816.385	26960
816.526	27009
816.666	26720
816.807	26632
816.948	26735
817.089	26731
817.23	26670
817.371	26587
817.512	26480
817.653	26617
817.793	26419
817.934	26735
818.075	26663
818.216	26724
818.356	26503
818.497	26503
818.638	26419
818.778	26332
818.919	26351
819.06	26419
819.2	26488
819.341	26678
819.481	26621
819.622	26811
819.762	27005
819.903	26853
820.043	26792
820.184	26705
820.324	26800
820.465	26842
820.605	26705
820.746	26792
820.886	26541
821.026	26724
821.167	26625
821.307	26686
821.447	26842
821.588	26632
821.728	26358
821.868	26229
822.008	26111
822.149	25944
822.289	26065
822.429	25814
822.569	25723
822.709	25799
822.849	25540
822.99	25746
823.13	25529
823.27	25548
823.41	25453
823.55	25297
823.69	25381
823.83	25460
823.97	25396
824.11	25304
824.25	25247
824.389	25289
824.529	25183
824.669	25179
824.809	25548
824.949	25327
825.089	25365
825.228	25293
825.368	25080
825.508	25152
825.648	25194
825.787	25225
825.927	25343
826.067	25008
826.206	25023
826.346	25202
826.485	25091
826.625	25137
826.765	25221
826.904	25175
827.044	24837
827.183	24973
827.323	24890
827.462	24928
827.601	24951
827.741	24905
827.88	24897
828.02	24665
828.159	24730
828.298	24863
828.437	24863
828.577	24711
828.716	24871
828.855	24700
828.994	24563
829.134	24631
829.273	24532
829.412	24445
829.551	24456
829.69	24544
829.829	24631
829.968	24597
830.107	24623
830.246	24536
830.385	24483
830.524	24388
830.663	24380
830.802	24353
830.941	24216
831.08	24178
831.219	24273
831.357	24254
831.496	24205
831.635	24140
831.774	24133
831.913	24041
832.051	23878
832.19	23927
832.329	23843
832.467	23783
832.606	23699
832.744	23859
832.883	23836
833.022	23851
833.16	23779
833.299	23908
833.437	23870
833.576	23908
833.714	23855
833.852	23969
833.991	23927
834.129	23984
834.267	24007
834.406	23920
834.544	23874
834.682	23741
834.821	23840
834.959	23923
835.097	23783
835.235	23851
835.373	23866
835.511	23901
835.65	23729
835.788	23741
835.926	23604
836.064	23531
836.202	23482
836.34	23771
836.478	23794
836.615	23585
836.753	23760
836.891	23813
837.029	23756
837.167	23718
837.305	23566
837.443	23566
837.58	23573
837.718	23528
837.856	23516
837.993	23505
838.131	23512
838.269	23391
838.406	23440
838.544	23334
838.681	23223
838.819	23044
838.956	23105
839.094	22965
839.231	23064
839.369	23216
839.506	23345
839.643	23277
839.781	23025
839.918	22976
840.055	22889
840.193	23056
840.33	22995
840.467	22949
840.604	22892
840.742	23174
840.879	22668
841.016	22767
841.153	22805
841.29	22995
841.427	22904
841.564	22984
841.701	23029
841.838	22854
841.975	22847
842.112	22828
842.249	22702
842.385	22637
842.522	22953
842.659	22744
842.796	22649
842.933	22721
843.069	22729
843.206	22592
843.343	22679
843.479	22778
843.616	22592
843.752	22341
843.889	22470
844.025	22637
844.162	22322
844.298	22592
844.435	22523
844.571	22447
844.708	22481
844.844	22618
844.98	22599
845.117	22546
845.253	22363
845.389	22337
845.525	22341
845.661	22337
845.798	22173
845.934	22261
846.07	22124
846.206	22143
846.342	22207
846.478	22025
846.614	22090
846.75	21983
846.886	21926
847.022	21979
847.158	21998
847.294	22040
847.429	21873
847.565	21937
847.701	22116
847.837	21644
847.972	21644
848.108	21800
848.244	21660
848.379	21580
848.515	21583
848.65	21386
848.786	21466
848.921	21466
849.057	21614
849.192	21633
849.328	21568
849.463	21477
849.598	21473
849.734	21431
849.869	21332
850.004	21279
850.14	21195
850.275	21188
850.41	21207
850.545	21241
850.68	21313
850.815	21230
850.95	21150
851.085	21344
851.22	21340
851.355	21412
851.49	21169
851.625	21275
851.76	21214
851.895	21116
852.03	21256
852.165	21272
852.299	21367
852.434	21348
852.569	21184
852.703	21291
852.838	21237
852.973	21393
853.107	21291
853.242	21192
853.376	21020
853.511	21032
853.645	21070
853.78	21211
853.914	21100
854.048	21051
854.183	21112
854.317	21146
854.451	21344
854.585	20990
854.72	21055
854.854	21142
854.988	20971
855.122	21058
855.256	20921
855.39	21005
855.524	21188
855.658	21211
855.792	21119
855.926	21188
856.06	21127
856.194	21131
856.327	21070
856.461	21119
856.595	20948
856.729	21089
856.862	21268
856.996	21108
857.13	21077
857.263	21313
857.397	21169
857.53	21108
857.664	21116
857.797	21157
857.931	21154
858.064	21055
858.197	21161
858.331	21100
858.464	20986
858.597	20963
858.731	21024
858.864	20967
858.997	21100
859.13	21138
859.263	21085
859.396	21184
859.529	20944
859.662	21074
859.795	20963
859.928	21188
860.061	21279
860.194	21226
860.327	21108
860.46	21112
860.592	21169
860.725	21237
860.858	21207
860.99	21039
861.123	21066
861.256	20986
861.388	21032
861.521	21663
861.653	20895
861.786	20952
861.918	20891
862.05	21009
862.183	21070
862.315	21055
862.447	21017
862.58	20967
862.712	20880
862.844	20800
862.976	20853
863.108	20921
863.24	21165
863.372	20819
863.504	20849
863.636	20830
863.768	20811
863.9	20682
864.032	20731
864.164	20735
864.296	20785
864.428	20956
864.559	20823
864.691	20914
864.823	20811
864.954	20819
865.086	20670
865.217	20697
865.349	20678
865.48	20807
865.612	20724
865.743	20716
865.875	20750
866.006	20587
866.137	20701
866.269	20674
866.4	20613
866.531	20644
866.662	20663
866.793	20617
866.924	20708
867.055	20720
867.186	20743
867.317	20659
867.448	20598
867.579	20571
867.71	20503
867.841	20522
867.972	20667
868.103	20545
868.233	20659
868.364	20640
868.495	20663
868.625	20861
868.756	20937
868.886	20845
869.017	20819
869.147	21039
869.278	21051
869.408	20925
869.539	20842
869.669	20910
869.799	20963
869.929	21028
870.06	21032
870.19	21184
870.32	21302
870.45	21245
870.58	21332
870.71	21321
870.84	21313
870.97	21264
871.1	21173
871.23	21534
871.36	21473
871.489	21272
871.619	21378
871.749	21408
871.879	21561
872.008	21553
872.138	21447
872.267	21431
872.397	21310
872.526	21272
872.656	21367
872.785	21420
872.915	21507
873.044	21462
873.173	21447
873.303	21526
873.432	21542
873.561	21504
873.69	21652
873.819	21386
873.948	21523
874.077	21477
874.206	21450
874.335	21526
874.464	21504
874.593	21736
874.722	21637
874.851	21686
874.979	21739
875.108	21686
875.237	21606
875.365	21633
875.494	21656
875.623	21781
875.751	21644
875.88	21660
876.008	21850
876.136	21892
876.265	21983
876.393	22249
876.521	22181
876.65	22192
876.778	22002
876.906	22109
877.034	22059
877.162	22090
877.29	21998
877.418	22090
877.546	22097
877.674	22101
877.802	22109
877.93	22021
878.058	22074
878.185	21998
878.313	22032
878.441	22097
878.568	21865
878.696	22021
878.824	22070
878.951	22105
879.079	22253
879.206	22306
879.333	22162
879.461	22036
879.588	22196
879.715	22261
879.842	22409
879.97	22128
880.097	21899
880.224	21861
880.351	21869
880.478	21778
880.605	21949
880.732	21842
880.859	22150
880.986	21831
881.112	21918
881.239	21739
881.366	21564
881.493	21492
881.619	21564
881.746	21641
881.872	21496
881.999	21420
882.125	21382
882.252	21485
882.378	21469
882.505	21469
882.631	21382
882.757	21150
882.883	21203
883.01	21150
883.136	21180
883.262	20986
883.388	20971
883.514	21093
883.64	21252
883.766	21093
883.892	21032
884.018	20982
884.143	21135
884.269	21184
884.395	20986
884.52	20868
884.646	20849
884.772	20674
884.897	20762
885.023	20857
885.148	20857
885.274	20857
885.399	20864
885.524	20857
885.65	20868
885.775	20880
885.9	20743
886.025	20902
886.15	20975
886.275	20762
886.4	20773
886.525	20720
886.65	20739
886.775	20682
886.9	20929
887.025	21119
887.149	20823
887.274	20716
887.399	20560
887.523	20549
887.648	20533
887.773	20594
887.897	20727
888.021	20537
888.146	20549
888.27	20590
888.395	20686
888.519	20640
888.643	20609
888.767	20651
888.891	20492
889.015	20396
889.139	20488
889.263	20457
889.387	20434
889.511	20609
889.635	20454
889.759	20301
889.883	20294
890.006	20419
890.13	20492
890.254	20259
890.377	20244
890.501	20130
890.624	20111
890.748	20225
890.871	20115
890.995	20016
891.118	19913
891.241	19989
891.364	19909
891.488	20043
891.611	19875
891.734	19871
891.857	19894
891.98	19917
892.103	20001
892.226	20065
892.349	19940
892.471	19666
892.594	19814
892.717	19913
892.839	19811
892.962	19913
893.085	19928
893.207	19932
893.33	19708
893.452	19833
893.575	19852
893.697	19845
893.819	20065
893.941	20138
894.064	19917
894.186	19772
894.308	19795
894.43	19925
894.552	19986
894.674	20005
894.796	19799
894.918	19814
895.04	19864
895.161	19925
895.283	19887
895.405	19769
895.526	19902
895.648	19894
895.769	19898
895.891	19860
896.012	19997
896.134	19917
896.255	19925
896.376	19906
896.498	19890
896.619	19788
896.74	19879
896.861	19868
896.982	20153
897.103	20233
897.224	20122
897.345	20031
897.466	20031
897.587	20161
897.708	20259
897.828	20096
897.949	20039
898.07	19959
898.19	19940
898.311	20103
898.431	20096
898.552	20081
898.672	20221
898.792	20145
898.913	20134
899.033	19986
899.153	19841
899.273	19761
899.393	19719
899.513	19864
899.633	19864
899.753	19894
899.873	19811
899.993	19746
900.113	19734
900.232	19826
900.352	19647
900.472	19670
900.591	19499
900.711	19742
900.83	19609
900.95	19658
901.069	19632
901.189	19586
901.308	19278
901.427	19278
901.546	19278
901.665	19164
901.784	19183
901.904	19160
902.023	18981
902.141	18700
902.26	18722
902.379	18886
902.498	18719
902.617	18623
902.735	18833
902.854	18783
902.973	18646
903.091	18407
903.21	18311
903.328	18437
903.446	18311
903.565	18205
903.683	18155
903.801	18114
903.919	18171
904.038	18087
904.156	17946
904.274	17916
904.392	18003
904.51	17939
904.627	17988
904.745	18079
904.863	18053
904.981	17813
905.098	17741
905.216	17680
905.334	17611
905.451	17642
905.569	17562
905.686	17646
905.803	17585
905.921	17383
906.038	17520
906.155	17509
906.272	17356
906.389	17330
906.506	17060
906.623	17045
906.74	17227
906.857	17147
906.974	17136
907.091	17231
907.208	17349
907.324	17197
907.441	16991
907.557	16984
907.674	16858
907.79	16866
907.907	16847
908.023	16957
908.139	16927
908.256	16873
908.372	16816
908.488	16740
908.604	16634
908.72	16550
908.836	16618
908.952	16596
909.068	16706
909.184	16687
909.3	16516
909.415	16656
909.531	16645
909.647	16333
909.762	16318
909.878	16405
909.993	16306
910.108	16337
910.224	16356
910.339	16276
910.454	16177
910.57	16135
910.685	16097
910.8	16337
910.915	16238
911.03	16158
911.145	15968
911.259	15854
911.374	16002
911.489	15949
911.604	15876
911.718	15633
911.833	15679
911.947	15599
912.062	15428
912.176	15660
912.291	15641
912.405	15519
912.519	15827
912.633	15838
912.748	15732
912.862	15637
912.976	15511
913.09	15275
913.204	15393
913.318	15488
913.431	15641
913.545	15618
913.659	15591
913.772	15401
913.886	15306
914	15272
914.113	15431
914.226	15359
914.34	15302
914.453	15081
914.566	15214
914.68	15245
914.793	15066
914.906	14944
915.019	14842
915.132	14819
915.245	14849
915.358	14899
915.47	14849
915.583	14956
915.696	14944
915.809	15055
915.921	15062
916.034	14891
916.146	14735
916.259	14762
916.371	14864
916.483	14804
916.595	14739
916.708	14746
916.82	14689
916.932	14731
917.044	14598
917.156	14724
917.268	14530
917.38	14632
917.491	14495
917.603	14644
917.715	14564
917.826	14648
917.938	14594
918.049	14396
918.161	14423
918.272	14571
918.384	14537
918.495	14454
918.606	14347
918.717	14336
918.828	14366
918.939	14267
919.05	14202
919.161	14381
919.272	14130
919.383	14134
919.494	14393
919.604	14495
919.715	14332
919.826	14271
919.936	14317
920.047	14313
920.157	14244
920.267	14431
920.378	14286
920.488	14286
920.598	14450
920.708	14575
920.818	14339
920.928	14328
921.038	14606
921.148	14514
921.258	14202
921.368	14142
921.477	14065
921.587	14096
921.697	13887
921.806	14077
921.916	13955
922.025	13769
922.134	13753
922.244	13636
922.353	13639
922.462	13548
922.571	13521
922.68	13430
922.789	13301
922.898	13422
923.007	13350
923.116	13244
923.224	13228
923.333	13335
923.442	13213
923.55	13137
923.659	13175
923.767	13187
923.876	13122
923.984	13141
924.092	13065
924.201	13107
924.309	13088
924.417	12989
924.525	12901
924.633	13042
924.741	13753
924.849	12901
924.956	12909
925.064	12840
925.172	12711
925.279	12703
925.387	12779
925.494	12730
925.602	12882
925.709	12821
925.816	12635
925.924	12715
926.031	12688
926.138	12745
926.245	12764
926.352	12582
926.459	12650
926.566	12791
926.673	12627
926.779	12540
926.886	12498
926.993	12407
927.099	12315
927.206	12251
927.312	12194
927.419	12422
927.525	12399
927.631	12330
927.737	12251
927.843	12167
927.95	12003
928.056	12095
928.162	12190
928.267	12216
928.373	12791
928.479	12209
928.585	11958
928.69	12159
928.796	12057
928.901	11969
929.007	11916
929.112	11950
929.218	12003
929.323	11931
929.428	11923
929.533	12030
929.638	11794
929.743	11851
929.848	11897
929.953	11779
930.058	11726
930.163	11577
930.267	11608
930.372	11726
930.477	11566
930.581	11722
930.685	11638
930.79	11417
930.894	11497
930.998	11433
931.103	11581
931.207	11258
931.311	11098
931.415	11132
931.519	10866
931.623	10885
