Data from test_V78500241_1264.txt Node
Date: Fri Mar 25 15:18:39 CST 2022
User: usil
Spectrometer: V785-0024
Trigger mode: 0
Integration Time (sec): 4.000000E-1
Scans to average: 1
Nonlinearity correction enabled: false
Boxcar width: 0
Storing dark spectrum: false
XAxis mode: Wavelengths
Number of Pixels in Spectrum: 1024
>>>>>Begin Spectral Data<<<<<
801.071	28147
801.214	28086
801.356	27682
801.499	27656
801.641	27542
801.783	27549
801.926	27561
802.068	27576
802.211	27363
802.353	27264
802.496	27226
802.638	27203
802.78	27184
802.923	27291
803.065	27001
803.208	27043
803.35	27119
803.492	27321
803.635	27367
803.777	27351
803.919	27511
804.061	27675
804.204	27496
804.346	27488
804.488	27294
804.63	27355
804.773	27348
804.915	27386
805.057	27439
805.199	27416
805.341	27542
805.483	27671
805.626	27454
805.768	27473
805.91	27477
806.052	27538
806.194	27477
806.336	27766
806.478	27534
806.62	27595
806.762	27759
806.904	27701
807.046	27998
807.188	27994
807.33	27895
807.472	28078
807.614	28002
807.756	27888
807.898	27797
808.04	27816
808.182	27884
808.324	27850
808.465	27827
808.607	27983
808.749	28070
808.891	28234
809.033	28348
809.174	28211
809.316	28093
809.458	28253
809.6	28226
809.741	28314
809.883	28265
810.025	28497
810.166	28660
810.308	28428
810.45	28310
810.591	28356
810.733	28230
810.875	28261
811.016	27998
811.158	28112
811.299	28299
811.441	28413
811.582	28424
811.724	28078
811.865	28124
812.007	28192
812.148	28101
812.29	28242
812.431	28318
812.573	28489
812.714	28455
812.855	28668
812.997	28702
813.138	28938
813.279	28839
813.421	28626
813.562	28679
813.703	28459
813.845	28284
813.986	28238
814.127	27960
814.268	27892
814.41	27968
814.551	28036
814.692	27991
814.833	27956
814.974	27816
815.115	27899
815.256	27652
815.397	27686
815.539	27781
815.68	27720
815.821	27625
815.962	27656
816.103	27572
816.244	27644
816.385	27389
816.526	27507
816.666	27355
816.807	27211
816.948	27329
817.089	27313
817.23	27294
817.371	27249
817.512	27154
817.653	27093
817.793	27131
817.934	27074
818.075	27119
818.216	27298
818.356	27173
818.497	27051
818.638	26906
818.778	26956
818.919	27005
819.06	26868
819.2	27085
819.341	27081
819.481	27260
819.622	27302
819.762	27595
819.903	27393
820.043	27291
820.184	27199
820.324	27321
820.465	27332
820.605	27313
820.746	27298
820.886	27077
821.026	27237
821.167	27359
821.307	27226
821.447	27237
821.588	27066
821.728	26895
821.868	26765
822.008	26670
822.149	26594
822.289	26632
822.429	26465
822.569	26294
822.709	26370
822.849	26214
822.99	26183
823.13	26084
823.27	26035
823.41	25974
823.55	25921
823.69	25951
823.83	25887
823.97	25887
824.11	25776
824.25	25734
824.389	25795
824.529	25936
824.669	25856
824.809	25966
824.949	25932
825.089	25940
825.228	26081
825.368	25525
825.508	25594
825.648	25693
825.787	25791
825.927	25772
826.067	25662
826.206	25712
826.346	25750
826.485	25826
826.625	25624
826.765	25776
826.904	25719
827.044	25499
827.183	25400
827.323	25441
827.462	25449
827.601	25403
827.741	25457
827.88	25441
828.02	25263
828.159	25487
828.298	25396
828.437	25506
828.577	25251
828.716	25445
828.855	25457
828.994	25225
829.134	25255
829.273	25190
829.412	25187
829.551	25114
829.69	25118
829.829	25152
829.968	25282
830.107	25217
830.246	25183
830.385	25042
830.524	25129
830.663	25099
830.802	24875
830.941	24749
831.08	24707
831.219	24768
831.357	24825
831.496	24935
831.635	24741
831.774	24757
831.913	24642
832.051	24509
832.19	24437
832.329	24509
832.467	24384
832.606	24361
832.744	24372
832.883	24315
833.022	24327
833.16	24460
833.299	24532
833.437	24483
833.576	24467
833.714	24361
833.852	24547
833.991	24642
834.129	24494
834.267	24445
834.406	24505
834.544	24372
834.682	24551
834.821	24384
834.959	24608
835.097	24490
835.235	24441
835.373	24460
835.511	24475
835.65	24334
835.788	24418
835.926	24216
836.064	24129
836.202	24129
836.34	24361
836.478	24372
836.615	24311
836.753	24418
836.891	24407
837.029	24422
837.167	24254
837.305	24098
837.443	24213
837.58	24277
837.718	24346
837.856	24209
837.993	24091
838.131	24216
838.269	24045
838.406	24045
838.544	24045
838.681	23882
838.819	23878
838.956	23653
839.094	23623
839.231	23710
839.369	23912
839.506	23988
839.643	23764
839.781	23562
839.918	23653
840.055	23638
840.193	23600
840.33	23547
840.467	23699
840.604	23672
840.742	23733
840.879	23528
841.016	23524
841.153	23277
841.29	23619
841.427	23482
841.564	23668
841.701	23391
841.838	23463
841.975	23414
842.112	23474
842.249	23410
842.385	23322
842.522	23452
842.659	23326
842.796	23159
842.933	23299
843.069	23258
843.206	23311
843.343	23433
843.479	23398
843.616	23258
843.752	23037
843.889	22980
844.025	23113
844.162	23105
844.298	23147
844.435	23143
844.571	22965
844.708	23155
844.844	23193
844.98	23250
845.117	23102
845.253	23067
845.389	22892
845.525	22896
845.661	22987
845.798	22953
845.934	22763
846.07	22885
846.206	22812
846.342	22968
846.478	22664
846.614	22622
846.75	22485
846.886	22577
847.022	22584
847.158	22569
847.294	22440
847.429	22557
847.565	22497
847.701	22729
847.837	22284
847.972	22162
848.108	22421
848.244	22242
848.379	22200
848.515	22048
848.65	22090
848.786	22006
848.921	22177
849.057	22261
849.192	22295
849.328	22242
849.463	22211
849.598	22086
849.734	22021
849.869	22074
850.004	21926
850.14	21838
850.275	21915
850.41	21827
850.545	21857
850.68	21781
850.815	22002
850.95	21808
851.085	21983
851.22	22017
851.355	21865
851.49	21869
851.625	21827
851.76	21915
851.895	21759
852.03	21846
852.165	21888
852.299	21922
852.434	22002
852.569	21915
852.703	21991
852.838	21831
852.973	21979
853.107	21983
853.242	21873
853.376	21679
853.511	21606
853.645	21698
853.78	21857
853.914	21545
854.048	21713
854.183	21747
854.317	21747
854.451	21816
854.585	21808
854.72	21705
854.854	21679
854.988	21557
855.122	21675
855.256	21545
855.39	21694
855.524	21804
855.658	21637
855.792	21785
855.926	21705
856.06	21743
856.194	21675
856.327	21739
856.461	21572
856.595	21682
856.729	21637
856.862	21785
856.996	21694
857.13	21838
857.263	21835
857.397	21804
857.53	21850
857.664	21713
857.797	21698
857.931	21701
858.064	21717
858.197	21785
858.331	21633
858.464	21698
858.597	21568
858.731	21663
858.864	21667
858.997	21629
859.13	21823
859.263	21705
859.396	21728
859.529	21694
859.662	21610
859.795	21732
859.928	21736
860.061	21915
860.194	21823
860.327	21804
860.46	21785
860.592	21751
860.725	21968
860.858	21846
860.99	21751
861.123	21679
861.256	21637
861.388	21633
861.521	22417
861.653	21675
861.786	21450
861.918	21583
862.05	21656
862.183	21682
862.315	21633
862.447	21656
862.58	21618
862.712	21454
862.844	21370
862.976	21435
863.108	21447
863.24	21911
863.372	21386
863.504	21412
863.636	21431
863.768	21378
863.9	21374
864.032	21378
864.164	21321
864.296	21378
864.428	21492
864.559	21519
864.691	21378
864.823	21393
864.954	21389
865.086	21302
865.217	21218
865.349	21169
865.48	21230
865.612	21363
865.743	21363
865.875	21325
866.006	21264
866.137	21370
866.269	21245
866.4	21291
866.531	21279
866.662	21192
866.793	21249
866.924	21268
867.055	21317
867.186	21180
867.317	21214
867.448	21077
867.579	21321
867.71	21230
867.841	21214
867.972	21252
868.103	21169
868.233	21249
868.364	21302
868.495	21397
868.625	21393
868.756	21648
868.886	21568
869.017	21447
869.147	21606
869.278	21443
869.408	21511
869.539	21450
869.669	21458
869.799	21523
869.929	21641
870.06	21614
870.19	21778
870.32	21854
870.45	21785
870.58	21770
870.71	21892
870.84	21926
870.97	21876
871.1	21823
871.23	22048
871.36	22006
871.489	21918
871.619	21983
871.749	22162
871.879	22067
872.008	22040
872.138	22040
872.267	22112
872.397	21895
872.526	21869
872.656	21854
872.785	21873
872.915	22162
873.044	22131
873.173	22109
873.303	22143
873.432	22162
873.561	22139
873.69	22097
873.819	22112
873.948	22154
874.077	22025
874.206	21964
874.335	21975
874.464	22249
874.593	22238
874.722	22154
874.851	22356
874.979	22375
875.108	22375
875.237	22234
875.365	22223
875.494	22299
875.623	22356
875.751	22329
875.88	22249
876.008	22451
876.136	22432
876.265	22706
876.393	22721
876.521	22687
876.65	22763
876.778	22656
876.906	22683
877.034	22622
877.162	22668
877.29	22512
877.418	22649
877.546	22649
877.674	22649
877.802	22557
877.93	22569
878.058	22618
878.185	22557
878.313	22618
878.441	22660
878.568	22618
878.696	22561
878.824	22626
878.951	22656
879.079	22691
879.206	22831
879.333	22771
879.461	22698
879.588	22694
879.715	22653
879.842	22877
879.97	22668
880.097	22432
880.224	22371
880.351	22485
880.478	22432
880.605	22561
880.732	22470
880.859	22641
880.986	22519
881.112	22626
881.239	22276
881.366	22242
881.493	22143
881.619	21979
881.746	22181
881.872	21956
881.999	22067
882.125	21873
882.252	21941
882.378	22013
882.505	22154
882.631	21964
882.757	21827
882.883	21793
883.01	21720
883.136	21637
883.262	21614
883.388	21496
883.514	21705
883.64	21808
883.766	21698
883.892	21542
884.018	21507
884.143	21656
884.269	21671
884.395	21386
884.52	21389
884.646	21492
884.772	21264
884.897	21279
885.023	21424
885.148	21488
885.274	21507
885.399	21408
885.524	21416
885.65	21397
885.775	21325
885.9	21439
886.025	21500
886.15	21431
886.275	21317
886.4	21348
886.525	21344
886.65	21363
886.775	21374
886.9	21462
887.025	21576
887.149	21329
887.274	21180
887.399	21161
887.523	21256
887.648	21245
887.773	21009
887.897	21237
888.021	21226
888.146	21043
888.27	21138
888.395	21275
888.519	21230
888.643	21112
888.767	21195
888.891	21096
889.015	20861
889.139	21051
889.263	20948
889.387	21009
889.511	21112
889.635	21116
889.759	20887
889.883	20925
890.006	20971
890.13	20967
890.254	20796
890.377	20712
890.501	20629
890.624	20804
890.748	20724
890.871	20663
890.995	20518
891.118	20446
891.241	20511
891.364	20484
891.488	20552
891.611	20590
891.734	20476
891.857	20594
891.98	20526
892.103	20511
892.226	20423
892.349	20404
892.471	20457
892.594	20526
892.717	20400
892.839	20438
892.962	20347
893.085	20351
893.207	20377
893.33	20267
893.452	20343
893.575	20518
893.697	20377
893.819	20457
893.941	20579
894.064	20480
894.186	20362
894.308	20271
894.43	20465
894.552	20450
894.674	20415
894.796	20343
894.918	20267
895.04	20404
895.161	20469
895.283	20423
895.405	20336
895.526	20434
895.648	20400
895.769	20454
895.891	20320
896.012	20408
896.134	20427
896.255	20294
896.376	20362
896.498	20347
896.619	20385
896.74	20393
896.861	20457
896.982	20667
897.103	20800
897.224	20701
897.345	20549
897.466	20503
897.587	20579
897.708	20735
897.828	20667
897.949	20434
898.07	20396
898.19	20541
898.311	20655
898.431	20560
898.552	20473
898.672	20739
898.792	20670
898.913	20590
899.033	20454
899.153	20400
899.273	20358
899.393	20412
899.513	20317
899.633	20347
899.753	20351
899.873	20286
899.993	20343
900.113	20202
900.232	20282
900.352	20259
900.472	20290
900.591	20069
900.711	20069
900.83	20111
900.95	20145
901.069	20073
901.189	20031
901.308	19788
901.427	19643
901.546	19696
901.665	19674
901.784	19643
901.904	19495
902.023	19369
902.141	19232
902.26	19190
902.379	19263
902.498	19065
902.617	19255
902.735	19133
902.854	19190
902.973	19126
903.091	18905
903.21	18871
903.328	18924
903.446	18760
903.565	18684
903.683	18703
903.801	18506
903.919	18654
904.038	18612
904.156	18585
904.274	18597
904.392	18426
904.51	18323
904.627	18391
904.745	18540
904.863	18376
904.981	18220
905.098	18053
905.216	18106
905.334	18148
905.451	18121
905.569	18072
905.686	18148
905.803	18163
905.921	17859
906.038	18133
906.155	18007
906.272	17745
906.389	17809
906.506	17699
906.623	17657
906.74	17592
906.857	17528
906.974	17512
907.091	17718
907.208	17722
907.324	17604
907.441	17634
907.557	17284
907.674	17360
907.79	17288
907.907	17383
908.023	17436
908.139	17353
908.256	17387
908.372	17292
908.488	17204
908.604	17025
908.72	17124
908.836	17041
908.952	16942
909.068	17189
909.184	17155
909.3	17136
909.415	17064
909.531	17048
909.647	16957
909.762	16763
909.878	16736
909.993	16759
910.108	16706
910.224	16733
910.339	16683
910.454	16580
910.57	16599
910.685	16607
910.8	16771
910.915	16691
911.03	16497
911.145	16436
911.259	16341
911.374	16367
911.489	16303
911.604	16219
911.718	16128
911.833	16067
911.947	16055
912.062	15972
912.176	16040
912.291	16105
912.405	16029
912.519	16287
912.633	16268
912.748	16154
912.862	16143
912.976	15884
913.09	15888
913.204	15926
913.318	15865
913.431	16017
913.545	16051
913.659	16021
913.772	15903
913.886	15686
914	15671
914.113	15770
914.226	15785
914.34	15755
914.453	15584
914.566	15819
914.68	15637
914.793	15557
914.906	15332
915.019	15348
915.132	15264
915.245	15329
915.358	15298
915.47	15355
915.583	15336
915.696	15374
915.809	15435
915.921	15492
916.034	15287
916.146	15203
916.259	15184
916.371	15218
916.483	15287
916.595	15077
916.708	15142
916.82	15123
916.932	15108
917.044	15192
917.156	15165
917.268	14960
917.38	15051
917.491	14906
917.603	15028
917.715	15104
917.826	14990
917.938	14880
918.049	14861
918.161	14838
918.272	15017
918.384	15032
918.495	14883
918.606	14754
918.717	14644
918.828	14743
918.939	14739
919.05	14613
919.161	14716
919.272	14579
919.383	14594
919.494	14762
919.604	14868
919.715	14708
919.826	14568
919.936	14682
920.047	14716
920.157	14686
920.267	14921
920.378	14731
920.488	14636
920.598	14705
920.708	14861
920.818	14830
920.928	14739
921.038	14929
921.148	14944
921.258	14655
921.368	14552
921.477	14393
921.587	14389
921.697	14294
921.806	14446
921.916	14317
922.025	14187
922.134	14020
922.244	14043
922.353	14096
922.462	13814
922.571	13830
922.68	13708
922.789	13689
922.898	13696
923.007	13559
923.116	13693
923.224	13597
923.333	13632
923.442	13548
923.55	13521
923.659	13483
923.767	13677
923.876	13506
923.984	13552
924.092	13396
924.201	13407
924.309	13529
924.417	13346
924.525	13354
924.633	13411
924.741	14050
924.849	13213
924.956	13263
925.064	13179
925.172	13042
925.279	13160
925.387	13118
925.494	13088
925.602	13217
925.709	13069
925.816	12993
925.924	13053
926.031	13114
926.138	13012
926.245	13156
926.352	12958
926.459	13084
926.566	13061
926.673	12924
926.779	12814
926.886	12745
926.993	12730
927.099	12669
927.206	12642
927.312	12547
927.419	12684
927.525	12620
927.631	12642
927.737	12563
927.843	12498
927.95	12509
928.056	12479
928.162	12426
928.267	12582
928.373	13122
928.479	12437
928.585	12350
928.69	12361
928.796	12418
928.901	12319
929.007	12144
929.112	12361
929.218	12380
929.323	12197
929.428	12125
929.533	12247
929.638	12106
929.743	12159
929.848	12216
929.953	12136
930.058	11961
930.163	11889
930.267	11901
930.372	11996
930.477	11809
930.581	12068
930.685	11870
930.79	11783
930.894	11794
930.998	11729
931.103	11889
931.207	11558
931.311	11372
931.415	11402
931.519	11178
931.623	11117
