Data from test_V78500241_2986.txt Node
Date: Fri Mar 25 15:30:39 CST 2022
User: usil
Spectrometer: V785-0024
Trigger mode: 0
Integration Time (sec): 4.000000E-1
Scans to average: 1
Nonlinearity correction enabled: false
Boxcar width: 0
Storing dark spectrum: false
XAxis mode: Wavelengths
Number of Pixels in Spectrum: 1024
>>>>>Begin Spectral Data<<<<<
801.071	27287
801.214	27135
801.356	27093
801.499	26994
801.641	26746
801.783	26834
801.926	26929
802.068	26716
802.211	26743
802.353	26674
802.496	26590
802.638	26423
802.78	26457
802.923	26419
803.065	26358
803.208	26347
803.35	26415
803.492	26526
803.635	26564
803.777	26598
803.919	26571
804.061	26750
804.204	26697
804.346	26484
804.488	26453
804.63	26590
804.773	26453
804.915	26495
805.057	26678
805.199	26533
805.341	26659
805.483	26602
805.626	26629
805.768	26678
805.91	26636
806.052	26712
806.194	26648
806.336	26880
806.478	26693
806.62	26655
806.762	26781
806.904	26788
807.046	27119
807.188	27116
807.33	27028
807.472	27283
807.614	26998
807.756	27192
807.898	26899
808.04	26891
808.182	26921
808.324	26998
808.465	26979
808.607	27154
808.749	27203
808.891	27363
809.033	27462
809.174	27272
809.316	27230
809.458	27275
809.6	27146
809.741	27298
809.883	27511
810.025	27538
810.166	27553
810.308	27591
810.45	27473
810.591	27454
810.733	27294
810.875	27207
811.016	27279
811.158	27241
811.299	27291
811.441	27656
811.582	27287
811.724	27332
811.865	27199
812.007	27142
812.148	27252
812.29	27355
812.431	27397
812.573	27572
812.714	27606
812.855	27751
812.997	27873
813.138	27869
813.279	27838
813.421	27606
813.562	27793
813.703	27542
813.845	27447
813.986	27313
814.127	27043
814.268	26956
814.41	26982
814.551	27009
814.692	26899
814.833	26739
814.974	26826
815.115	26967
815.256	26632
815.397	26842
815.539	26708
815.68	26663
815.821	26678
815.962	26697
816.103	26765
816.244	26530
816.385	26267
816.526	26583
816.666	26351
816.807	26240
816.948	26320
817.089	26244
817.23	26161
817.371	26206
817.512	26134
817.653	26172
817.793	26039
817.934	26073
818.075	26229
818.216	26237
818.356	26115
818.497	26069
818.638	25871
818.778	25890
818.919	25909
819.06	26031
819.2	26001
819.341	26206
819.481	26111
819.622	26278
819.762	26492
819.903	26328
820.043	26404
820.184	26210
820.324	26183
820.465	26278
820.605	26282
820.746	26229
820.886	26138
821.026	26191
821.167	26240
821.307	26366
821.447	26142
821.588	26065
821.728	25837
821.868	25944
822.008	25635
822.149	25681
822.289	25620
822.429	25377
822.569	25350
822.709	25240
822.849	25183
822.99	25160
823.13	25301
823.27	25118
823.41	24958
823.55	24966
823.69	25012
823.83	24932
823.97	24992
824.11	24764
824.25	24821
824.389	24665
824.529	24665
824.669	24768
824.809	24901
824.949	24901
825.089	24829
825.228	24715
825.368	24502
825.508	24559
825.648	24715
825.787	24513
825.927	24639
826.067	24483
826.206	24551
826.346	24760
826.485	24760
826.625	24589
826.765	24711
826.904	24696
827.044	24422
827.183	24513
827.323	24376
827.462	24388
827.601	24315
827.741	24311
827.88	24414
828.02	24273
828.159	24254
828.298	24395
828.437	24471
828.577	24174
828.716	24357
828.855	24247
828.994	24102
829.134	24060
829.273	24049
829.412	23878
829.551	23961
829.69	23954
829.829	23999
829.968	24117
830.107	24121
830.246	23992
830.385	23969
830.524	23904
830.663	23893
830.802	23802
830.941	23710
831.08	23600
831.219	23653
831.357	23733
831.496	23866
831.635	23661
831.774	23448
831.913	23414
832.051	23417
832.19	23452
832.329	23474
832.467	23410
832.606	23197
832.744	23288
832.883	23273
833.022	23136
833.16	23356
833.299	23345
833.437	23265
833.576	23395
833.714	23349
833.852	23520
833.991	23410
834.129	23417
834.267	23425
834.406	23417
834.544	23436
834.682	23406
834.821	23330
834.959	23566
835.097	23337
835.235	23459
835.373	23368
835.511	23288
835.65	23292
835.788	23197
835.926	23208
836.064	23003
836.202	23022
836.34	23315
836.478	23360
836.615	23060
836.753	23223
836.891	23128
837.029	23220
837.167	23159
837.305	23086
837.443	23029
837.58	23060
837.718	23056
837.856	23033
837.993	22972
838.131	22995
838.269	22809
838.406	22790
838.544	22873
838.681	22706
838.819	22641
838.956	22459
839.094	22508
839.231	22618
839.369	22618
839.506	22866
839.643	22828
839.781	22516
839.918	22451
840.055	22447
840.193	22588
840.33	22405
840.467	22508
840.604	22478
840.742	22824
840.879	22344
841.016	22386
841.153	22318
841.29	22481
841.427	22337
841.564	22436
841.701	22485
841.838	22409
841.975	22314
842.112	22367
842.249	22348
842.385	22310
842.522	22504
842.659	22272
842.796	22181
842.933	22246
843.069	22158
843.206	22185
843.343	22169
843.479	22097
843.616	22242
843.752	22002
843.889	21930
844.025	22006
844.162	21926
844.298	22059
844.435	22044
844.571	21903
844.708	21949
844.844	22147
844.98	22154
845.117	21979
845.253	21945
845.389	21953
845.525	21926
845.661	21800
845.798	21720
845.934	21720
846.07	21713
846.206	21888
846.342	21827
846.478	21637
846.614	21545
846.75	21382
846.886	21542
847.022	21545
847.158	21412
847.294	21443
847.429	21473
847.565	21428
847.701	21671
847.837	21226
847.972	21043
848.108	21237
848.244	21313
848.379	21001
848.515	20925
848.65	20956
848.786	21055
848.921	21055
849.057	21150
849.192	21226
849.328	21077
849.463	21058
849.598	20971
849.734	21070
849.869	20967
850.004	20792
850.14	20899
850.275	20697
850.41	20693
850.545	20788
850.68	20735
850.815	20834
850.95	20716
851.085	20967
851.22	20971
851.355	20788
851.49	20868
851.625	20727
851.76	20857
851.895	20716
852.03	20769
852.165	20800
852.299	20906
852.434	20948
852.569	20948
852.703	20838
852.838	20861
852.973	21005
853.107	20918
853.242	20834
853.376	20686
853.511	20400
853.645	20507
853.78	20777
853.914	20659
854.048	20575
854.183	20769
854.317	20727
854.451	20788
854.585	20609
854.72	20651
854.854	20682
854.988	20606
855.122	20590
855.256	20571
855.39	20735
855.524	20727
855.658	20800
855.792	20735
855.926	20606
856.06	20575
856.194	20594
856.327	20667
856.461	20598
856.595	20621
856.729	20644
856.862	20800
856.996	20613
857.13	20609
857.263	20785
857.397	20594
857.53	20613
857.664	20602
857.797	20659
857.931	20765
858.064	20686
858.197	20792
858.331	20819
858.464	20651
858.597	20602
858.731	20522
858.864	20556
858.997	20705
859.13	20788
859.263	20648
859.396	20720
859.529	20625
859.662	20564
859.795	20678
859.928	20625
860.061	20872
860.194	20811
860.327	20670
860.46	20640
860.592	20754
860.725	20781
860.858	20811
860.99	20705
861.123	20530
861.256	20549
861.388	20640
861.521	21408
861.653	20602
861.786	20442
861.918	20530
862.05	20511
862.183	20609
862.315	20693
862.447	20617
862.58	20507
862.712	20434
862.844	20248
862.976	20499
863.108	20533
863.24	20838
863.372	20370
863.504	20324
863.636	20336
863.768	20450
863.9	20347
864.032	20328
864.164	20343
864.296	20370
864.428	20450
864.559	20488
864.691	20396
864.823	20290
864.954	20419
865.086	20286
865.217	20305
865.349	20202
865.48	20393
865.612	20221
865.743	20290
865.875	20206
866.006	20317
866.137	20214
866.269	20282
866.4	20122
866.531	20278
866.662	20313
866.793	20294
866.924	20240
867.055	20275
867.186	20240
867.317	20202
867.448	20172
867.579	20111
867.71	20142
867.841	20096
867.972	20317
868.103	20195
868.233	20301
868.364	20202
868.495	20286
868.625	20362
868.756	20454
868.886	20431
869.017	20385
869.147	20609
869.278	20708
869.408	20385
869.539	20446
869.669	20514
869.799	20408
869.929	20587
870.06	20613
870.19	20636
870.32	20701
870.45	20861
870.58	20857
870.71	21009
870.84	21013
870.97	20773
871.1	20921
871.23	21077
871.36	21131
871.489	20982
871.619	21013
871.749	21222
871.879	21154
872.008	21218
872.138	21036
872.267	21093
872.397	20826
872.526	20883
872.656	20929
872.785	20845
872.915	21024
873.044	21226
873.173	21154
873.303	21100
873.432	21188
873.561	21192
873.69	21077
873.819	21150
873.948	21089
874.077	20891
874.206	21081
874.335	21085
874.464	21226
874.593	21272
874.722	21173
874.851	21435
874.979	21283
875.108	21367
875.237	21264
875.365	21146
875.494	21222
875.623	21420
875.751	21325
875.88	21412
876.008	21370
876.136	21523
876.265	21747
876.393	21865
876.521	21701
876.65	21732
876.778	21823
876.906	21641
877.034	21568
877.162	21686
877.29	21466
877.418	21755
877.546	21808
877.674	21701
877.802	21663
877.93	21686
878.058	21667
878.185	21614
878.313	21618
878.441	21595
878.568	21462
878.696	21652
878.824	21793
878.951	21732
879.079	21854
879.206	21960
879.333	21819
879.461	21561
879.588	21804
879.715	21854
879.842	21972
879.97	21778
880.097	21462
880.224	21545
880.351	21466
880.478	21488
880.605	21450
880.732	21405
880.859	21663
880.986	21500
881.112	21599
881.239	21329
881.366	21214
881.493	21119
881.619	21081
881.746	21157
881.872	21100
881.999	21093
882.125	20937
882.252	21077
882.378	21017
882.505	21116
882.631	20933
882.757	20861
882.883	20982
883.01	20834
883.136	20678
883.262	20625
883.388	20686
883.514	20876
883.64	20788
883.766	20682
883.892	20480
884.018	20606
884.143	20777
884.269	20785
884.395	20526
884.52	20476
884.646	20358
884.772	20393
884.897	20362
885.023	20503
885.148	20541
885.274	20594
885.399	20579
885.524	20484
885.65	20423
885.775	20480
885.9	20431
886.025	20526
886.15	20564
886.275	20324
886.4	20355
886.525	20351
886.65	20343
886.775	20423
886.9	20587
887.025	20526
887.149	20423
887.274	20263
887.399	20050
887.523	20176
887.648	20138
887.773	20202
887.897	20328
888.021	20298
888.146	20115
888.27	20282
888.395	20328
888.519	20195
888.643	20252
888.767	20259
888.891	20100
889.015	20054
889.139	20065
889.263	19906
889.387	20046
889.511	20195
889.635	20062
889.759	20016
889.883	19986
890.006	20020
890.13	20100
890.254	19879
890.377	19906
890.501	19761
890.624	19807
890.748	19799
890.871	19632
890.995	19601
891.118	19483
891.241	19594
891.364	19635
891.488	19689
891.611	19655
891.734	19525
891.857	19685
891.98	19620
892.103	19594
892.226	19586
892.349	19400
892.471	19266
892.594	19453
892.717	19563
892.839	19419
892.962	19540
893.085	19582
893.207	19552
893.33	19430
893.452	19430
893.575	19601
893.697	19578
893.819	19548
893.941	19696
894.064	19635
894.186	19476
894.308	19445
894.43	19510
894.552	19563
894.674	19578
894.796	19502
894.918	19590
895.04	19559
895.161	19518
895.283	19605
895.405	19495
895.526	19445
895.648	19506
895.769	19601
895.891	19597
896.012	19643
896.134	19586
896.255	19601
896.376	19441
896.498	19502
896.619	19495
896.74	19453
896.861	19567
896.982	19902
897.103	19978
897.224	19868
897.345	19723
897.466	19620
897.587	19909
897.708	19982
897.828	19887
897.949	19715
898.07	19548
898.19	19807
898.311	19772
898.431	19575
898.552	19674
898.672	19757
898.792	19761
898.913	19746
899.033	19552
899.153	19571
899.273	19506
899.393	19495
899.513	19537
899.633	19502
899.753	19472
899.873	19434
899.993	19506
900.113	19510
900.232	19464
900.352	19449
900.472	19316
900.591	19327
900.711	19331
900.83	19232
900.95	19430
901.069	19373
901.189	19118
901.308	18977
901.427	18932
901.546	18932
901.665	18913
901.784	18878
901.904	18719
902.023	18749
902.141	18429
902.26	18395
902.379	18525
902.498	18414
902.617	18433
902.735	18410
902.854	18418
902.973	18304
903.091	18216
903.21	18174
903.328	18098
903.446	18110
903.565	17889
903.683	17897
903.801	17813
903.919	17874
904.038	17798
904.156	17672
904.274	17764
904.392	17676
904.51	17710
904.627	17668
904.745	17668
904.863	17737
904.981	17482
905.098	17254
905.216	17376
905.334	17345
905.451	17459
905.569	17315
905.686	17372
905.803	17440
905.921	17098
906.038	17269
906.155	17056
906.272	16995
906.389	16999
906.506	16919
906.623	16968
906.74	16835
906.857	16725
906.974	16782
907.091	16892
907.208	16896
907.324	16961
907.441	16748
907.557	16656
907.674	16573
907.79	16500
907.907	16523
908.023	16649
908.139	16679
908.256	16580
908.372	16542
908.488	16417
908.604	16367
908.72	16280
908.836	16318
908.952	16287
909.068	16478
909.184	16470
909.3	16253
909.415	16337
909.531	16299
909.647	16010
909.762	16109
909.878	16093
909.993	16082
910.108	15960
910.224	16006
910.339	15945
910.454	15835
910.57	15797
910.685	15770
910.8	16074
910.915	15922
911.03	15895
911.145	15724
911.259	15743
911.374	15584
911.489	15557
911.604	15515
911.718	15450
911.833	15443
911.947	15329
912.062	15272
912.176	15485
912.291	15355
912.405	15507
912.519	15599
912.633	15713
912.748	15367
912.862	15321
912.976	15195
913.09	15009
913.204	15180
913.318	15245
913.431	15287
913.545	15233
913.659	15279
913.772	15100
913.886	15047
914	15005
914.113	15081
914.226	15119
914.34	15036
914.453	14975
914.566	15112
914.68	14933
914.793	14918
914.906	14667
915.019	14552
915.132	14564
915.245	14636
915.358	14693
915.47	14701
915.583	14651
915.696	14636
915.809	14731
915.921	14720
916.034	14488
916.146	14507
916.259	14590
916.371	14655
916.483	14518
916.595	14446
916.708	14408
916.82	14473
916.932	14507
917.044	14434
917.156	14518
917.268	14328
917.38	14309
917.491	14263
917.603	14324
917.715	14358
917.826	14393
917.938	14286
918.049	14164
918.161	14263
918.272	14446
918.384	14385
918.495	14301
918.606	14183
918.717	13997
918.828	14134
918.939	14084
919.05	13982
919.161	13986
919.272	13852
919.383	13932
919.494	14149
919.604	14351
919.715	14138
919.826	14001
919.936	13947
920.047	14046
920.157	14008
920.267	14225
920.378	14065
920.488	13982
920.598	14126
920.708	14328
920.818	14111
920.928	14115
921.038	14336
921.148	14256
921.258	14016
921.368	13913
921.477	13750
921.587	13753
921.697	13609
921.806	13849
921.916	13639
922.025	13521
922.134	13464
922.244	13384
922.353	13567
922.462	13285
922.571	13225
922.68	13190
922.789	13065
922.898	13080
923.007	13042
923.116	13145
923.224	13008
923.333	13118
923.442	12878
923.55	12935
923.659	12962
923.767	12996
923.876	12844
923.984	12924
924.092	12825
924.201	12890
924.309	12859
924.417	12901
924.525	12722
924.633	12787
924.741	13506
924.849	12601
924.956	12741
925.064	12566
925.172	12623
925.279	12559
925.387	12597
925.494	12525
925.602	12627
925.709	12604
925.816	12604
925.924	12536
926.031	12540
926.138	12486
926.245	12544
926.352	12395
926.459	12509
926.566	12502
926.673	12319
926.779	12273
926.886	12308
926.993	12159
927.099	12186
927.206	12129
927.312	12049
927.419	12152
927.525	12072
927.631	12186
927.737	11961
927.843	11992
927.95	11878
928.056	11942
928.162	11954
928.267	12045
928.373	12627
928.479	12053
928.585	11798
928.69	11916
928.796	11935
928.901	11802
929.007	11592
929.112	11752
929.218	11756
929.323	11752
929.428	11653
929.533	11821
929.638	11570
929.743	11608
929.848	11653
929.953	11642
930.058	11444
930.163	11322
930.267	11395
930.372	11425
930.477	11349
930.581	11592
930.685	11402
930.79	11299
930.894	11284
930.998	11246
931.103	11414
931.207	11048
931.311	10965
931.415	10850
931.519	10615
931.623	10637
