Data from test_V78500241_2196.txt Node
Date: Fri Mar 25 15:25:08 CST 2022
User: usil
Spectrometer: V785-0024
Trigger mode: 0
Integration Time (sec): 4.000000E-1
Scans to average: 1
Nonlinearity correction enabled: false
Boxcar width: 0
Storing dark spectrum: false
XAxis mode: Wavelengths
Number of Pixels in Spectrum: 1024
>>>>>Begin Spectral Data<<<<<
801.071	27667
801.214	27576
801.356	27553
801.499	27401
801.641	27294
801.783	27302
801.926	27424
802.068	27340
802.211	27355
802.353	27283
802.496	27017
802.638	27093
802.78	26845
802.923	26864
803.065	26739
803.208	26902
803.35	26880
803.492	27165
803.635	27116
803.777	27119
803.919	27211
804.061	27401
804.204	27150
804.346	27043
804.488	27062
804.63	27116
804.773	27028
804.915	27112
805.057	27298
805.199	27119
805.341	27154
805.483	27348
805.626	27279
805.768	27268
805.91	27302
806.052	27351
806.194	27237
806.336	27454
806.478	27207
806.62	27317
806.762	27397
806.904	27633
807.046	27797
807.188	27755
807.33	27694
807.472	27781
807.614	27610
807.756	27583
807.898	27488
808.04	27519
808.182	27614
808.324	27511
808.465	27656
808.607	27739
808.749	27876
808.891	28013
809.033	27979
809.174	27941
809.316	27922
809.458	27850
809.6	27914
809.741	28025
809.883	28070
810.025	28276
810.166	28036
810.308	28257
810.45	28093
810.591	28093
810.733	27979
810.875	27926
811.016	27717
811.158	27785
811.299	28048
811.441	28040
811.582	28086
811.724	27789
811.865	27941
812.007	27778
812.148	27956
812.29	27873
812.431	27991
812.573	28230
812.714	28226
812.855	28196
812.997	28485
813.138	28577
813.279	28615
813.421	28299
813.562	28325
813.703	28204
813.845	28109
813.986	27873
814.127	27755
814.268	27648
814.41	27778
814.551	27538
814.692	27732
814.833	27450
814.974	27633
815.115	27694
815.256	27283
815.397	27542
815.539	27500
815.68	27344
815.821	27272
815.962	27439
816.103	27336
816.244	27138
816.385	27077
816.526	27188
816.666	26982
816.807	26887
816.948	26876
817.089	26940
817.23	26944
817.371	26918
817.512	26701
817.653	26834
817.793	26796
817.934	26823
818.075	26716
818.216	26853
818.356	26773
818.497	26697
818.638	26587
818.778	26552
818.919	26530
819.06	26667
819.2	26792
819.341	26910
819.481	26743
819.622	26975
819.762	27131
819.903	27211
820.043	27108
820.184	26845
820.324	26975
820.465	26975
820.605	26982
820.746	27036
820.886	26807
821.026	26937
821.167	26906
821.307	27051
821.447	26979
821.588	26823
821.728	26636
821.868	26530
822.008	26328
822.149	26259
822.289	26202
822.429	25997
822.569	26046
822.709	25940
822.849	25818
822.99	25856
823.13	25651
823.27	25696
823.41	25700
823.55	25422
823.69	25616
823.83	25613
823.97	25514
824.11	25464
824.25	25426
824.389	25525
824.529	25609
824.669	25396
824.809	25563
824.949	25510
825.089	25525
825.228	25457
825.368	25251
825.508	25422
825.648	25392
825.787	25384
825.927	25460
826.067	25304
826.206	25266
826.346	25426
826.485	25324
826.625	25308
826.765	25453
826.904	25400
827.044	25160
827.183	25148
827.323	25042
827.462	25122
827.601	25103
827.741	25034
827.88	24981
828.02	24996
828.159	25050
828.298	25012
828.437	25061
828.577	24844
828.716	25076
828.855	24768
828.994	24639
829.134	24741
829.273	24760
829.412	24722
829.551	24711
829.69	24658
829.829	24753
829.968	24749
830.107	24734
830.246	24719
830.385	24661
830.524	24585
830.663	24532
830.802	24490
830.941	24308
831.08	24285
831.219	24357
831.357	24502
831.496	24536
831.635	24254
831.774	24174
831.913	24281
832.051	24133
832.19	24095
832.329	24155
832.467	24034
832.606	23939
832.744	23977
832.883	23961
833.022	23843
833.16	23969
833.299	23958
833.437	24041
833.576	23908
833.714	23935
833.852	24011
833.991	24186
834.129	24057
834.267	24041
834.406	24174
834.544	24034
834.682	23999
834.821	24026
834.959	24239
835.097	24045
835.235	24091
835.373	24034
835.511	23996
835.65	23901
835.788	23923
835.926	23634
836.064	23809
836.202	23680
836.34	23885
836.478	23882
836.615	23836
836.753	23760
836.891	23897
837.029	23832
837.167	23920
837.305	23733
837.443	23771
837.58	23672
837.718	23729
837.856	23668
837.993	23684
838.131	23771
838.269	23634
838.406	23608
838.544	23520
838.681	23398
838.819	23330
838.956	23193
839.094	23220
839.231	23117
839.369	23356
839.506	23665
839.643	23337
839.781	23159
839.918	23075
840.055	23223
840.193	23155
840.33	23060
840.467	23170
840.604	23151
840.742	23341
840.879	22946
841.016	23124
841.153	23064
841.29	23102
841.427	23098
841.564	23197
841.701	22991
841.838	23166
841.975	22953
842.112	22999
842.249	22767
842.385	22873
842.522	22995
842.659	22999
842.796	22847
842.933	22847
843.069	22744
843.206	22816
843.343	22946
843.479	22805
843.616	22828
843.752	22523
843.889	22713
844.025	22828
844.162	22557
844.298	22649
844.435	22489
844.571	22710
844.708	22687
844.844	22607
844.98	22573
845.117	22675
845.253	22440
845.389	22447
845.525	22603
845.661	22417
845.798	22314
845.934	22489
846.07	22379
846.206	22379
846.342	22428
846.478	22348
846.614	22116
846.75	22154
846.886	22131
847.022	22124
847.158	22192
847.294	22143
847.429	22063
847.565	22006
847.701	22314
847.837	21922
847.972	21945
848.108	22025
848.244	21945
848.379	21751
848.515	21629
848.65	21644
848.786	21663
848.921	21637
849.057	21793
849.192	21755
849.328	21766
849.463	21641
849.598	21603
849.734	21572
849.869	21492
850.004	21469
850.14	21507
850.275	21408
850.41	21401
850.545	21386
850.68	21321
850.815	21523
850.95	21485
851.085	21488
851.22	21534
851.355	21416
851.49	21466
851.625	21412
851.76	21473
851.895	21378
852.03	21363
852.165	21447
852.299	21408
852.434	21561
852.569	21321
852.703	21397
852.838	21420
852.973	21652
853.107	21564
853.242	21412
853.376	21230
853.511	21207
853.645	21283
853.78	21336
853.914	21161
854.048	21279
854.183	21195
854.317	21329
854.451	21401
854.585	21283
854.72	21260
854.854	21363
854.988	21252
855.122	21332
855.256	21199
855.39	21298
855.524	21332
855.658	21279
855.792	21291
855.926	21485
856.06	21230
856.194	21310
856.327	21233
856.461	21119
856.595	21188
856.729	21218
856.862	21401
856.996	21298
857.13	21363
857.263	21420
857.397	21397
857.53	21283
857.664	21393
857.797	21344
857.931	21401
858.064	21237
858.197	21447
858.331	21230
858.464	21192
858.597	21055
858.731	21211
858.864	21180
858.997	21211
859.13	21203
859.263	21405
859.396	21291
859.529	21245
859.662	21275
859.795	21298
859.928	21325
860.061	21408
860.194	21488
860.327	21450
860.46	21214
860.592	21378
860.725	21370
860.858	21412
860.99	21192
861.123	21085
861.256	21161
861.388	21260
861.521	21884
861.653	21226
861.786	21058
861.918	21195
862.05	21169
862.183	21131
862.315	21180
862.447	21226
862.58	21176
862.712	20944
862.844	20952
862.976	20982
863.108	21001
863.24	21279
863.372	20933
863.504	20925
863.636	20929
863.768	21047
863.9	21005
864.032	20880
864.164	20937
864.296	20933
864.428	21150
864.559	20998
864.691	21055
864.823	20982
864.954	20838
865.086	20887
865.217	20823
865.349	20731
865.48	20823
865.612	20929
865.743	20887
865.875	20845
866.006	20834
866.137	20785
866.269	20960
866.4	20872
866.531	20807
866.662	20731
866.793	20712
866.924	20845
867.055	20804
867.186	20689
867.317	20819
867.448	20735
867.579	20743
867.71	20670
867.841	20773
867.972	20785
868.103	20765
868.233	20712
868.364	20651
868.495	20868
868.625	20971
868.756	21017
868.886	21074
869.017	21013
869.147	21085
869.278	21142
869.408	21005
869.539	20975
869.669	21199
869.799	21036
869.929	21131
870.06	21116
870.19	21203
870.32	21291
870.45	21344
870.58	21283
870.71	21492
870.84	21587
870.97	21469
871.1	21447
871.23	21618
871.36	21595
871.489	21576
871.619	21675
871.749	21610
871.879	21549
872.008	21751
872.138	21667
872.267	21485
872.397	21496
872.526	21469
872.656	21538
872.785	21530
872.915	21679
873.044	21724
873.173	21785
873.303	21717
873.432	21675
873.561	21838
873.69	21656
873.819	21625
873.948	21641
874.077	21686
874.206	21515
874.335	21633
874.464	21823
874.593	21800
874.722	21732
874.851	21880
874.979	21850
875.108	21884
875.237	21709
875.365	21652
875.494	21842
875.623	21934
875.751	21827
875.88	21918
876.008	21983
876.136	22044
876.265	22352
876.393	22428
876.521	22249
876.65	22322
876.778	22215
876.906	22242
877.034	22067
877.162	22268
877.29	22120
877.418	22295
877.546	22169
877.674	22238
877.802	22306
877.93	22257
878.058	22276
878.185	22086
878.313	22188
878.441	22181
878.568	22112
878.696	22169
878.824	22177
878.951	22276
879.079	22367
879.206	22466
879.333	22421
879.461	22352
879.588	22314
879.715	22436
879.842	22440
879.97	22242
880.097	21991
880.224	22059
880.351	22109
880.478	22143
880.605	21903
880.732	22036
880.859	22150
880.986	21941
881.112	22078
881.239	21998
881.366	21884
881.493	21690
881.619	21561
881.746	21519
881.872	21466
881.999	21614
882.125	21622
882.252	21720
882.378	21549
882.505	21644
882.631	21542
882.757	21313
882.883	21374
883.01	21260
883.136	21306
883.262	21298
883.388	21176
883.514	21351
883.64	21302
883.766	21180
883.892	21096
884.018	21199
884.143	21355
884.269	21214
884.395	21062
884.52	20826
884.646	20921
884.772	20887
884.897	20887
885.023	20906
885.148	21036
885.274	21081
885.399	21077
885.524	20918
885.65	20864
885.775	20990
885.9	21001
886.025	20963
886.15	21119
886.275	20910
886.4	20895
886.525	21017
886.65	20921
886.775	20967
886.9	20956
887.025	21028
887.149	20842
887.274	20697
887.399	20655
887.523	20667
887.648	20674
887.773	20678
887.897	20785
888.021	20727
888.146	20602
888.27	20762
888.395	20724
888.519	20746
888.643	20667
888.767	20716
888.891	20560
889.015	20526
889.139	20598
889.263	20423
889.387	20682
889.511	20712
889.635	20724
889.759	20431
889.883	20499
890.006	20522
890.13	20640
890.254	20396
890.377	20587
890.501	20294
890.624	20275
890.748	20317
890.871	20218
890.995	20069
891.118	20005
891.241	20176
891.364	20084
891.488	20229
891.611	20081
891.734	20107
891.857	20142
891.98	19993
892.103	20145
892.226	20111
892.349	20024
892.471	19799
892.594	20031
892.717	20016
892.839	20065
892.962	20039
893.085	20096
893.207	20008
893.33	19982
893.452	19772
893.575	20020
893.697	19909
893.819	20172
893.941	20077
894.064	20145
894.186	20046
894.308	20043
894.43	20065
894.552	20176
894.674	20100
894.796	19837
894.918	20024
895.04	19967
895.161	20111
895.283	20081
895.405	19837
895.526	20008
895.648	20069
895.769	19974
895.891	19993
896.012	20100
896.134	20016
896.255	19978
896.376	19887
896.498	20020
896.619	20024
896.74	19986
896.861	20073
896.982	20347
897.103	20469
897.224	20298
897.345	20199
897.466	20122
897.587	20157
897.708	20336
897.828	20142
897.949	20130
898.07	20145
898.19	20214
898.311	20332
898.431	20111
898.552	20271
898.672	20263
898.792	20252
898.913	20134
899.033	20084
899.153	19944
899.273	19936
899.393	20024
899.513	19993
899.633	20092
899.753	20069
899.873	19982
899.993	19951
900.113	19852
900.232	19928
900.352	19970
900.472	19902
900.591	19651
900.711	19772
900.83	19643
900.95	19799
901.069	19921
901.189	19639
901.308	19373
901.427	19255
901.546	19400
901.665	19419
901.784	19396
901.904	19289
902.023	19194
902.141	18894
902.26	18871
902.379	18993
902.498	18935
902.617	18802
902.735	18859
902.854	18760
902.973	18696
903.091	18601
903.21	18544
903.328	18582
903.446	18464
903.565	18277
903.683	18399
903.801	18197
903.919	18407
904.038	18266
904.156	18114
904.274	18228
904.392	18155
904.51	18053
904.627	18060
904.745	18133
904.863	18030
904.981	17836
905.098	17695
905.216	17817
905.334	17805
905.451	17771
905.569	17745
905.686	17703
905.803	17836
905.921	17726
906.038	17600
906.155	17566
906.272	17501
906.389	17520
906.506	17376
906.623	17379
906.74	17235
906.857	17174
906.974	17242
907.091	17353
907.208	17425
907.324	17429
907.441	17204
907.557	17048
907.674	17048
907.79	16927
907.907	16991
908.023	17045
908.139	17140
908.256	16942
908.372	16930
908.488	16816
908.604	16771
908.72	16694
908.836	16767
908.952	16725
909.068	16740
909.184	16805
909.3	16733
909.415	16645
909.531	16740
909.647	16481
909.762	16428
909.878	16371
909.993	16379
910.108	16500
910.224	16413
910.339	16398
910.454	16246
910.57	16249
910.685	16230
910.8	16443
910.915	16402
911.03	16249
911.145	16162
911.259	16048
911.374	16044
911.489	16010
911.604	15975
911.718	15854
911.833	15755
911.947	15629
912.062	15576
912.176	15686
912.291	15747
912.405	15720
912.519	15892
912.633	15964
912.748	15819
912.862	15701
912.976	15724
913.09	15450
913.204	15405
913.318	15587
913.431	15720
913.545	15709
913.659	15747
913.772	15568
913.886	15538
914	15344
914.113	15447
914.226	15504
914.34	15458
914.453	15310
914.566	15488
914.68	15298
914.793	15176
914.906	15062
915.019	14998
915.132	14895
915.245	15017
915.358	14967
915.47	15097
915.583	14990
915.696	14998
915.809	15047
915.921	15097
916.034	14944
916.146	14887
916.259	14834
916.371	14975
916.483	14914
916.595	14815
916.708	14887
916.82	14849
916.932	14880
917.044	14864
917.156	14743
917.268	14659
917.38	14682
917.491	14648
917.603	14674
917.715	14716
917.826	14762
917.938	14571
918.049	14556
918.161	14651
918.272	14682
918.384	14731
918.495	14651
918.606	14454
918.717	14438
918.828	14419
918.939	14522
919.05	14336
919.161	14381
919.272	14218
919.383	14199
919.494	14480
919.604	14564
919.715	14495
919.826	14343
919.936	14301
920.047	14480
920.157	14343
920.267	14587
920.378	14442
920.488	14298
920.598	14579
920.708	14781
920.818	14568
920.928	14533
921.038	14708
921.148	14606
921.258	14298
921.368	14309
921.477	14126
921.587	14157
921.697	14046
921.806	14153
921.916	14001
922.025	13860
922.134	13693
922.244	13632
922.353	13780
922.462	13632
922.571	13624
922.68	13422
922.789	13350
922.898	13491
923.007	13373
923.116	13426
923.224	13487
923.333	13339
923.442	13137
923.55	13221
923.659	13274
923.767	13403
923.876	13247
923.984	13308
924.092	13194
924.201	13194
924.309	13103
924.417	13145
924.525	13027
924.633	13095
924.741	13868
924.849	12878
924.956	13031
925.064	12981
925.172	12798
925.279	12954
925.387	12806
925.494	12806
925.602	12935
925.709	12920
925.816	12665
925.924	12825
926.031	12909
926.138	12802
926.245	12783
926.352	12616
926.459	12848
926.566	12909
926.673	12669
926.779	12642
926.886	12642
926.993	12452
927.099	12441
927.206	12403
927.312	12426
927.419	12410
927.525	12437
927.631	12464
927.737	12292
927.843	12243
927.95	12087
928.056	12270
928.162	12228
928.267	12308
928.373	12958
928.479	12235
928.585	12087
928.69	12178
928.796	12209
928.901	12095
929.007	11927
929.112	12068
929.218	12068
929.323	12038
929.428	12011
929.533	12106
929.638	11927
929.743	11885
929.848	12019
929.953	11885
930.058	11840
930.163	11619
930.267	11771
930.372	11764
930.477	11638
930.581	11775
930.685	11699
930.79	11433
930.894	11543
930.998	11551
931.103	11661
931.207	11379
931.311	11235
931.415	11083
931.519	10908
931.623	10930
