Data from test_V78500241_3093.txt Node
Date: Fri Mar 25 15:31:23 CST 2022
User: usil
Spectrometer: V785-0024
Trigger mode: 0
Integration Time (sec): 4.000000E-1
Scans to average: 1
Nonlinearity correction enabled: false
Boxcar width: 0
Storing dark spectrum: false
XAxis mode: Wavelengths
Number of Pixels in Spectrum: 1024
>>>>>Begin Spectral Data<<<<<
801.071	27028
801.214	26921
801.356	26720
801.499	26613
801.641	26396
801.783	26271
801.926	26495
802.068	26438
802.211	26533
802.353	26309
802.496	26157
802.638	26168
802.78	26161
802.923	25936
803.065	26001
803.208	25932
803.35	26115
803.492	26256
803.635	26206
803.777	26187
803.919	26244
804.061	26522
804.204	26065
804.346	26210
804.488	26035
804.63	26130
804.773	25997
804.915	26240
805.057	26317
805.199	26183
805.341	26252
805.483	26309
805.626	26415
805.768	26153
805.91	26415
806.052	26438
806.194	26161
806.336	26533
806.478	26362
806.62	26339
806.762	26423
806.904	26617
807.046	26807
807.188	26876
807.33	26727
807.472	26758
807.614	26765
807.756	26746
807.898	26503
808.04	26434
808.182	26518
808.324	26503
808.465	26590
808.607	26693
808.749	27081
808.891	26910
809.033	27154
809.174	26994
809.316	26921
809.458	26861
809.6	26743
809.741	26921
809.883	27161
810.025	27104
810.166	27203
810.308	27169
810.45	27077
810.591	26982
810.733	26849
810.875	26849
811.016	26918
811.158	26739
811.299	26944
811.441	27146
811.582	27104
811.724	26986
811.865	26967
812.007	26891
812.148	26872
812.29	26982
812.431	27051
812.573	27260
812.714	27306
812.855	27389
812.997	27515
813.138	27660
813.279	27412
813.421	27477
813.562	27237
813.703	27214
813.845	27096
813.986	26796
814.127	26659
814.268	26693
814.41	26579
814.551	26476
814.692	26708
814.833	26541
814.974	26476
815.115	26549
815.256	26453
815.397	26492
815.539	26457
815.68	26317
815.821	26259
815.962	26412
816.103	26278
816.244	26176
816.385	26046
816.526	26046
816.666	25959
816.807	25765
816.948	25784
817.089	25997
817.23	25902
817.371	25906
817.512	25936
817.653	25883
817.793	25712
817.934	25791
818.075	25913
818.216	25906
818.356	25814
818.497	25597
818.638	25460
818.778	25510
818.919	25575
819.06	25826
819.2	25746
819.341	25761
819.481	25803
819.622	25826
819.762	26263
819.903	26012
820.043	25852
820.184	25871
820.324	25864
820.465	25917
820.605	25902
820.746	25944
820.886	25822
821.026	25841
821.167	25845
821.307	25837
821.447	25856
821.588	25670
821.728	25518
821.868	25438
822.008	25297
822.149	25240
822.289	25247
822.429	25031
822.569	25053
822.709	24821
822.849	24878
822.99	24787
823.13	24715
823.27	24741
823.41	24612
823.55	24544
823.69	24547
823.83	24597
823.97	24528
824.11	24258
824.25	24319
824.389	24403
824.529	24433
824.669	24304
824.809	24467
824.949	24445
825.089	24422
825.228	24418
825.368	24239
825.508	24224
825.648	24106
825.787	24171
825.927	24273
826.067	24136
826.206	24121
826.346	24315
826.485	24308
826.625	24220
826.765	24372
826.904	24277
827.044	24041
827.183	24015
827.323	23824
827.462	24007
827.601	23969
827.741	23882
827.88	23813
828.02	23840
828.159	23908
828.298	23923
828.437	24030
828.577	23813
828.716	23999
828.855	23950
828.994	23691
829.134	23642
829.273	23687
829.412	23509
829.551	23600
829.69	23695
829.829	23634
829.968	23779
830.107	23783
830.246	23596
830.385	23577
830.524	23657
830.663	23512
830.802	23398
830.941	23288
831.08	23296
831.219	23372
831.357	23356
831.496	23459
831.635	23292
831.774	23136
831.913	23174
832.051	23064
832.19	23029
832.329	23056
832.467	23010
832.606	22889
832.744	22873
832.883	22881
833.022	22877
833.16	22949
833.299	23056
833.437	23006
833.576	23075
833.714	22995
833.852	22987
833.991	23025
834.129	23071
834.267	23037
834.406	22991
834.544	23109
834.682	23105
834.821	22946
834.959	23318
835.097	22949
835.235	23102
835.373	22915
835.511	22995
835.65	22805
835.788	22942
835.926	22721
836.064	22691
836.202	22672
836.34	22801
836.478	22927
836.615	22809
836.753	22744
836.891	22892
837.029	22778
837.167	22790
837.305	22759
837.443	22759
837.58	22782
837.718	22744
837.856	22809
837.993	22603
838.131	22641
838.269	22618
838.406	22656
838.544	22615
838.681	22280
838.819	22310
838.956	22188
839.094	22166
839.231	22219
839.369	22306
839.506	22626
839.643	22386
839.781	22147
839.918	22063
840.055	22230
840.193	22139
840.33	22109
840.467	22135
840.604	22295
840.742	22470
840.879	22021
841.016	22055
841.153	22013
841.29	22192
841.427	22074
841.564	22131
841.701	22143
841.838	22059
841.975	21937
842.112	22143
842.249	22051
842.385	22006
842.522	22131
842.659	21979
842.796	21949
842.933	21846
843.069	21778
843.206	21694
843.343	21888
843.479	21922
843.616	21972
843.752	21603
843.889	21705
844.025	21751
844.162	21671
844.298	21660
844.435	21736
844.571	21732
844.708	21785
844.844	21915
844.98	21823
845.117	21743
845.253	21568
845.389	21351
845.525	21656
845.661	21568
845.798	21317
845.934	21405
846.07	21317
846.206	21408
846.342	21485
846.478	21310
846.614	21146
846.75	21119
846.886	21089
847.022	21249
847.158	21013
847.294	21096
847.429	21032
847.565	21081
847.701	21378
847.837	20849
847.972	20823
848.108	20967
848.244	20891
848.379	20708
848.515	20716
848.65	20648
848.786	20777
848.921	20777
849.057	20792
849.192	20948
849.328	20758
849.463	20708
849.598	20701
849.734	20697
849.869	20541
850.004	20533
850.14	20552
850.275	20454
850.41	20526
850.545	20495
850.68	20438
850.815	20473
850.95	20415
851.085	20686
851.22	20609
851.355	20454
851.49	20393
851.625	20396
851.76	20469
851.895	20461
852.03	20366
852.165	20473
852.299	20587
852.434	20533
852.569	20617
852.703	20598
852.838	20533
852.973	20701
853.107	20526
853.242	20575
853.376	20351
853.511	20275
853.645	20412
853.78	20526
853.914	20305
854.048	20339
854.183	20389
854.317	20419
854.451	20446
854.585	20374
854.72	20351
854.854	20374
854.988	20256
855.122	20221
855.256	20172
855.39	20301
855.524	20431
855.658	20389
855.792	20298
855.926	20358
856.06	20343
856.194	20362
856.327	20256
856.461	20157
856.595	20301
856.729	20339
856.862	20385
856.996	20347
857.13	20400
857.263	20393
857.397	20389
857.53	20328
857.664	20450
857.797	20366
857.931	20393
858.064	20385
858.197	20533
858.331	20324
858.464	20161
858.597	20263
858.731	20221
858.864	20252
858.997	20282
859.13	20225
859.263	20256
859.396	20400
859.529	20309
859.662	20393
859.795	20248
859.928	20225
860.061	20499
860.194	20473
860.327	20396
860.46	20309
860.592	20419
860.725	20427
860.858	20434
860.99	20324
861.123	20240
861.256	20206
861.388	20309
861.521	20880
861.653	20233
861.786	20107
861.918	20164
862.05	20244
862.183	20317
862.315	20267
862.447	20343
862.58	20237
862.712	20031
862.844	20119
862.976	20138
863.108	20035
863.24	20347
863.372	19932
863.504	20103
863.636	19997
863.768	20005
863.9	20046
864.032	19906
864.164	19993
864.296	20062
864.428	20157
864.559	20092
864.691	20092
864.823	20168
864.954	20054
865.086	20069
865.217	19970
865.349	19906
865.48	20012
865.612	19986
865.743	20054
865.875	20001
866.006	19879
866.137	19982
866.269	20050
866.4	19879
866.531	19890
866.662	19830
866.793	19932
866.924	19925
867.055	20008
867.186	19947
867.317	19944
867.448	19822
867.579	19974
867.71	19772
867.841	19784
867.972	19841
868.103	19928
868.233	19925
868.364	19928
868.495	19974
868.625	20119
868.756	20103
868.886	20058
869.017	20062
869.147	20244
869.278	20202
869.408	20115
869.539	20077
869.669	20225
869.799	20248
869.929	20225
870.06	20237
870.19	20434
870.32	20419
870.45	20484
870.58	20526
870.71	20629
870.84	20667
870.97	20484
871.1	20404
871.23	20682
871.36	20769
871.489	20678
871.619	20716
871.749	20705
871.879	20659
872.008	20830
872.138	20826
872.267	20754
872.397	20632
872.526	20632
872.656	20366
872.785	20602
872.915	20750
873.044	20876
873.173	20826
873.303	20826
873.432	20887
873.561	20853
873.69	20788
873.819	20617
873.948	20861
874.077	20758
874.206	20659
874.335	20842
874.464	20944
874.593	20998
874.722	20857
874.851	21001
874.979	21093
875.108	21135
875.237	21009
875.365	20868
875.494	20872
875.623	20944
875.751	20921
875.88	21104
876.008	21207
876.136	21195
876.265	21348
876.393	21511
876.521	21568
876.65	21473
876.778	21450
876.906	21408
877.034	21462
877.162	21325
877.29	21344
877.418	21363
877.546	21359
877.674	21294
877.802	21408
877.93	21367
878.058	21329
878.185	21188
878.313	21268
878.441	21405
878.568	21203
878.696	21283
878.824	21386
878.951	21382
879.079	21504
879.206	21610
879.333	21515
879.461	21329
879.588	21382
879.715	21462
879.842	21595
879.97	21458
880.097	21256
880.224	21203
880.351	21291
880.478	21131
880.605	21116
880.732	21241
880.859	21473
880.986	21211
881.112	21313
881.239	21051
881.366	20921
881.493	20842
881.619	20762
881.746	20838
881.872	20758
881.999	20750
882.125	20724
882.252	20819
882.378	20625
882.505	20864
882.631	20667
882.757	20499
882.883	20549
883.01	20495
883.136	20336
883.262	20431
883.388	20298
883.514	20473
883.64	20450
883.766	20503
883.892	20298
884.018	20248
884.143	20488
884.269	20552
884.395	20259
884.52	20145
884.646	20149
884.772	20172
884.897	20077
885.023	20214
885.148	20290
885.274	20218
885.399	20282
885.524	20065
885.65	20161
885.775	20153
885.9	20073
886.025	20214
886.15	20130
886.275	20142
886.4	19963
886.525	20058
886.65	20043
886.775	20008
886.9	20252
887.025	20244
887.149	20043
887.274	19993
887.399	19875
887.523	19928
887.648	19841
887.773	19902
887.897	19909
888.021	19982
888.146	19925
888.27	20115
888.395	19967
888.519	19947
888.643	19906
888.767	19925
888.891	19849
889.015	19765
889.139	19837
889.263	19696
889.387	19788
889.511	19997
889.635	19913
889.759	19681
889.883	19753
890.006	19799
890.13	19814
890.254	19620
890.377	19708
890.501	19476
890.624	19491
890.748	19529
890.871	19365
890.995	19304
891.118	19247
891.241	19354
891.364	19362
891.488	19426
891.611	19365
891.734	19278
891.857	19403
891.98	19304
892.103	19308
892.226	19381
892.349	19206
892.471	19053
892.594	19339
892.717	19232
892.839	19190
892.962	19274
893.085	19369
893.207	19221
893.33	19080
893.452	19175
893.575	19278
893.697	19187
893.819	19384
893.941	19476
894.064	19483
894.186	19088
894.308	19118
894.43	19400
894.552	19419
894.674	19285
894.796	19152
894.918	19175
895.04	19194
895.161	19251
895.283	19396
895.405	19152
895.526	19171
895.648	19183
895.769	19183
895.891	19228
896.012	19346
896.134	19240
896.255	19179
896.376	19293
896.498	19339
896.619	19343
896.74	19240
896.861	19316
896.982	19499
897.103	19753
897.224	19472
897.345	19529
897.466	19468
897.587	19388
897.708	19605
897.828	19476
897.949	19396
898.07	19304
898.19	19358
898.311	19563
898.431	19487
898.552	19426
898.672	19525
898.792	19571
898.913	19502
899.033	19434
899.153	19221
899.273	19217
899.393	19179
899.513	19369
899.633	19255
899.753	19297
899.873	19251
899.993	19206
900.113	19187
900.232	19133
900.352	19126
900.472	19091
900.591	18939
900.711	19114
900.83	18962
900.95	19053
901.069	19152
901.189	19015
901.308	18806
901.427	18688
901.546	18692
901.665	18646
901.784	18658
901.904	18498
902.023	18483
902.141	18159
902.26	18209
902.379	18182
902.498	18171
902.617	18121
902.735	18220
902.854	18159
902.973	18098
903.091	17821
903.21	17817
903.328	17904
903.446	17802
903.565	17653
903.683	17699
903.801	17562
903.919	17623
904.038	17615
904.156	17379
904.274	17497
904.392	17379
904.51	17433
904.627	17478
904.745	17410
904.863	17516
904.981	17239
905.098	17029
905.216	17086
905.334	17162
905.451	17124
905.569	17216
905.686	17159
905.803	17102
905.921	16904
906.038	16965
906.155	16866
906.272	16725
906.389	16767
906.506	16668
906.623	16691
906.74	16577
906.857	16455
906.974	16478
907.091	16698
907.208	16801
907.324	16558
907.441	16573
907.557	16405
907.674	16459
907.79	16284
907.907	16379
908.023	16428
908.139	16325
908.256	16329
908.372	16246
908.488	16280
908.604	16166
908.72	16074
908.836	16090
908.952	15956
909.068	16116
909.184	16188
909.3	16044
909.415	16044
909.531	16097
909.647	15816
909.762	15926
909.878	15873
909.993	15781
910.108	15698
910.224	15652
910.339	15823
910.454	15694
910.57	15584
910.685	15587
910.8	15823
910.915	15755
911.03	15629
911.145	15431
911.259	15424
911.374	15481
911.489	15310
911.604	15279
911.718	15070
911.833	15226
911.947	15100
912.062	15119
912.176	15241
912.291	15203
912.405	15222
912.519	15382
912.633	15321
912.748	15233
912.862	15195
912.976	15036
913.09	14948
913.204	14902
913.318	15017
913.431	15066
913.545	15089
913.659	15241
913.772	15036
913.886	14788
914	14815
914.113	14849
914.226	14834
914.34	14830
914.453	14663
914.566	14864
914.68	14686
914.793	14697
914.906	14579
915.019	14419
915.132	14408
915.245	14377
915.358	14526
915.47	14404
915.583	14404
915.696	14339
915.809	14480
915.921	14503
916.034	14343
916.146	14298
916.259	14301
916.371	14347
916.483	14396
916.595	14301
916.708	14336
916.82	14328
916.932	14275
917.044	14214
917.156	14069
917.268	14024
917.38	14153
917.491	14077
917.603	14168
917.715	14191
917.826	14218
917.938	14062
918.049	13898
918.161	14103
918.272	14229
918.384	14119
918.495	14016
918.606	13963
918.717	13814
918.828	13894
918.939	13913
919.05	13879
919.161	13780
919.272	13613
919.383	13727
919.494	13852
919.604	14027
919.715	13925
919.826	13841
919.936	13852
920.047	13917
920.157	13814
920.267	14088
920.378	13928
920.488	13902
920.598	14024
920.708	14062
920.818	14001
920.928	13963
921.038	14119
921.148	14077
921.258	13769
921.368	13746
921.477	13582
921.587	13620
921.697	13571
921.806	13670
921.916	13464
922.025	13289
922.134	13335
922.244	13282
922.353	13316
922.462	13141
922.571	13076
922.68	12817
922.789	12886
922.898	12935
923.007	12924
923.116	12920
923.224	12863
923.333	12856
923.442	12711
923.55	12745
923.659	12734
923.767	12882
923.876	12635
923.984	12776
924.092	12703
924.201	12700
924.309	12681
924.417	12582
924.525	12620
924.633	12620
924.741	13487
924.849	12418
924.956	12536
925.064	12369
925.172	12254
925.279	12357
925.387	12342
925.494	12334
925.602	12460
925.709	12418
925.816	12266
925.924	12323
926.031	12422
926.138	12308
926.245	12403
926.352	12243
926.459	12429
926.566	12334
926.673	12273
926.779	12110
926.886	12125
926.993	11999
927.099	11874
927.206	11882
927.312	11954
927.419	12038
927.525	11897
927.631	11923
927.737	11885
927.843	11786
927.95	11741
928.056	11691
928.162	11863
928.267	11813
928.373	12410
928.479	11828
928.585	11581
928.69	11748
928.796	11714
928.901	11688
929.007	11497
929.112	11767
929.218	11627
929.323	11551
929.428	11497
929.533	11615
929.638	11433
929.743	11455
929.848	11554
929.953	11543
930.058	11391
930.163	11189
930.267	11254
930.372	11379
930.477	11140
930.581	11349
930.685	11254
930.79	11105
930.894	11128
930.998	11079
931.103	11341
931.207	10839
931.311	10797
931.415	10714
931.519	10580
931.623	10538
