Data from test_V78500241_583.txt Node
Date: Fri Mar 25 15:13:55 CST 2022
User: usil
Spectrometer: V785-0024
Trigger mode: 0
Integration Time (sec): 4.000000E-1
Scans to average: 1
Nonlinearity correction enabled: false
Boxcar width: 0
Storing dark spectrum: false
XAxis mode: Wavelengths
Number of Pixels in Spectrum: 1024
>>>>>Begin Spectral Data<<<<<
801.071	26929
801.214	27058
801.356	26746
801.499	26648
801.641	26583
801.783	26663
801.926	26613
802.068	26480
802.211	26583
802.353	26473
802.496	26324
802.638	26320
802.78	26176
802.923	26267
803.065	26122
803.208	26278
803.35	26084
803.492	26396
803.635	26434
803.777	26180
803.919	26343
804.061	26495
804.204	26381
804.346	26218
804.488	26290
804.63	26309
804.773	26252
804.915	26366
805.057	26355
805.199	26507
805.341	26492
805.483	26377
805.626	26415
805.768	26290
805.91	26450
806.052	26412
806.194	26453
806.336	26522
806.478	26484
806.62	26370
806.762	26495
806.904	26762
807.046	26979
807.188	26910
807.33	26929
807.472	26960
807.614	26781
807.756	26743
807.898	26773
808.04	26590
808.182	26781
808.324	26708
808.465	26743
808.607	26891
808.749	26948
808.891	27070
809.033	27192
809.174	27157
809.316	27005
809.458	27070
809.6	27211
809.741	27249
809.883	27199
810.025	27306
810.166	27275
810.308	27332
810.45	27374
810.591	27401
810.733	27222
810.875	26918
811.016	26864
811.158	26979
811.299	27180
811.441	27123
811.582	27112
811.724	26933
811.865	27093
812.007	26963
812.148	26914
812.29	27009
812.431	27275
812.573	27325
812.714	27564
812.855	27675
812.997	27667
813.138	27941
813.279	27869
813.421	27568
813.562	27663
813.703	27275
813.845	27378
813.986	27089
814.127	26724
814.268	26800
814.41	26823
814.551	26568
814.692	26705
814.833	26579
814.974	26716
815.115	26606
815.256	26438
815.397	26629
815.539	26712
815.68	26530
815.821	26366
815.962	26453
816.103	26480
816.244	26484
816.385	26412
816.526	26206
816.666	26043
816.807	26008
816.948	26134
817.089	26142
817.23	26035
817.371	26058
817.512	26024
817.653	25997
817.793	25978
817.934	26100
818.075	26035
818.216	25993
818.356	25879
818.497	25932
818.638	25647
818.778	25761
818.919	25814
819.06	25795
819.2	25700
819.341	25909
819.481	25982
819.622	26081
819.762	26210
819.903	26229
820.043	26195
820.184	26058
820.324	26077
820.465	26111
820.605	26008
820.746	26126
820.886	25936
821.026	26012
821.167	25959
821.307	26225
821.447	26027
821.588	25947
821.728	25700
821.868	25514
822.008	25426
822.149	25460
822.289	25373
822.429	25122
822.569	25221
822.709	25209
822.849	24916
822.99	24932
823.13	24958
823.27	24909
823.41	24722
823.55	24681
823.69	24738
823.83	24696
823.97	24741
824.11	24597
824.25	24555
824.389	24734
824.529	24540
824.669	24563
824.809	24681
824.949	24726
825.089	24673
825.228	24707
825.368	24399
825.508	24490
825.648	24547
825.787	24566
825.927	24559
826.067	24414
826.206	24433
826.346	24445
826.485	24574
826.625	24357
826.765	24578
826.904	24410
827.044	24220
827.183	24152
827.323	24163
827.462	24243
827.601	24258
827.741	24072
827.88	24140
828.02	24064
828.159	24064
828.298	24144
828.437	24125
828.577	24049
828.716	24304
828.855	24178
828.994	23927
829.134	23828
829.273	23912
829.412	23889
829.551	23786
829.69	23878
829.829	23912
829.968	24034
830.107	23927
830.246	23878
830.385	23851
830.524	23802
830.663	23714
830.802	23714
830.941	23554
831.08	23509
831.219	23471
831.357	23478
831.496	23737
831.635	23589
831.774	23562
831.913	23280
832.051	23307
832.19	23311
832.329	23231
832.467	23170
832.606	23204
832.744	23143
832.883	23067
833.022	23105
833.16	23113
833.299	23147
833.437	23189
833.576	23254
833.714	23151
833.852	23216
833.991	23368
834.129	23208
834.267	23246
834.406	23345
834.544	23235
834.682	23223
834.821	23170
834.959	23322
835.097	23086
835.235	23231
835.373	23231
835.511	23307
835.65	23060
835.788	23056
835.926	22965
836.064	22812
836.202	22892
836.34	23174
836.478	23166
836.615	23048
836.753	23018
836.891	23178
837.029	23086
837.167	22972
837.305	22965
837.443	22953
837.58	22946
837.718	22991
837.856	23025
837.993	22961
838.131	22866
838.269	22683
838.406	22793
838.544	22809
838.681	22569
838.819	22500
838.956	22390
839.094	22405
839.231	22493
839.369	22649
839.506	22793
839.643	22618
839.781	22386
839.918	22265
840.055	22424
840.193	22470
840.33	22299
840.467	22303
840.604	22371
840.742	22675
840.879	22166
841.016	22249
841.153	22367
841.29	22379
841.427	22188
841.564	22276
841.701	22341
841.838	22284
841.975	22223
842.112	22223
842.249	22154
842.385	22173
842.522	22314
842.659	22188
842.796	22029
842.933	21983
843.069	22074
843.206	22017
843.343	22200
843.479	22051
843.616	22048
843.752	21835
843.889	21930
844.025	21991
844.162	21785
844.298	21964
844.435	21835
844.571	21892
844.708	21903
844.844	21987
844.98	21899
845.117	21979
845.253	21808
845.389	21873
845.525	21736
845.661	21793
845.798	21557
845.934	21717
846.07	21686
846.206	21778
846.342	21728
846.478	21507
846.614	21462
846.75	21291
846.886	21420
847.022	21408
847.158	21363
847.294	21359
847.429	21428
847.565	21332
847.701	21553
847.837	21093
847.972	20990
848.108	21085
848.244	21119
848.379	20891
848.515	20998
848.65	20979
848.786	20982
848.921	20952
849.057	20956
849.192	21104
849.328	20918
849.463	20929
849.598	20864
849.734	20838
849.869	20731
850.004	20727
850.14	20811
850.275	20648
850.41	20625
850.545	20750
850.68	20682
850.815	20724
850.95	20659
851.085	20853
851.22	20800
851.355	20807
851.49	20689
851.625	20701
851.76	20621
851.895	20575
852.03	20438
852.165	20629
852.299	20682
852.434	20743
852.569	20781
852.703	20743
852.838	20788
852.973	20849
853.107	20834
853.242	20522
853.376	20552
853.511	20400
853.645	20568
853.78	20682
853.914	20621
854.048	20522
854.183	20446
854.317	20583
854.451	20609
854.585	20457
854.72	20640
854.854	20678
854.988	20454
855.122	20457
855.256	20408
855.39	20507
855.524	20594
855.658	20693
855.792	20431
855.926	20571
856.06	20769
856.194	20530
856.327	20488
856.461	20423
856.595	20514
856.729	20575
856.862	20609
856.996	20617
857.13	20644
857.263	20568
857.397	20735
857.53	20503
857.664	20663
857.797	20609
857.931	20598
858.064	20560
858.197	20648
858.331	20564
858.464	20495
858.597	20438
858.731	20465
858.864	20492
858.997	20427
859.13	20507
859.263	20533
859.396	20571
859.529	20442
859.662	20419
859.795	20507
859.928	20469
860.061	20796
860.194	20670
860.327	20571
860.46	20575
860.592	20727
860.725	20743
860.858	20731
860.99	20507
861.123	20560
861.256	20393
861.388	20564
861.521	21389
861.653	20431
861.786	20412
861.918	20389
862.05	20358
862.183	20423
862.315	20518
862.447	20549
862.58	20370
862.712	20267
862.844	20225
862.976	20400
863.108	20415
863.24	20689
863.372	20202
863.504	20237
863.636	20294
863.768	20278
863.9	20161
864.032	20221
864.164	20221
864.296	20240
864.428	20324
864.559	20389
864.691	20393
864.823	20339
864.954	20142
865.086	20214
865.217	20202
865.349	20092
865.48	20161
865.612	20199
865.743	20347
865.875	20221
866.006	20035
866.137	20027
866.269	20081
866.4	20172
866.531	20043
866.662	20081
866.793	20199
866.924	20081
867.055	20149
867.186	20058
867.317	20130
867.448	19932
867.579	20039
867.71	19967
867.841	20035
867.972	20130
868.103	20043
868.233	19986
868.364	20062
868.495	20199
868.625	20419
868.756	20358
868.886	20214
869.017	20370
869.147	20389
869.278	20499
869.408	20355
869.539	20332
869.669	20450
869.799	20324
869.929	20450
870.06	20446
870.19	20693
870.32	20545
870.45	20716
870.58	20667
870.71	20773
870.84	20921
870.97	20800
871.1	20842
871.23	20982
871.36	20899
871.489	20811
871.619	20910
871.749	20921
871.879	20960
872.008	21058
872.138	20960
872.267	20933
872.397	20826
872.526	20727
872.656	20834
872.785	20720
872.915	20902
873.044	21077
873.173	20921
873.303	20914
873.432	21013
873.561	21085
873.69	21028
873.819	21009
873.948	21009
874.077	20906
874.206	20899
874.335	20952
874.464	21104
874.593	21218
874.722	21188
874.851	21233
874.979	21260
875.108	21317
875.237	21188
875.365	21249
875.494	21127
875.623	21279
875.751	21245
875.88	21256
876.008	21348
876.136	21363
876.265	21538
876.393	21591
876.521	21652
876.65	21823
876.778	21519
876.906	21485
877.034	21530
877.162	21641
877.29	21466
877.418	21473
877.546	21500
877.674	21515
877.802	21561
877.93	21492
878.058	21504
878.185	21428
878.313	21564
878.441	21496
878.568	21500
878.696	21450
878.824	21515
878.951	21701
879.079	21682
879.206	21781
879.333	21739
879.461	21580
879.588	21709
879.715	21743
879.842	21774
879.97	21580
880.097	21363
880.224	21340
880.351	21435
880.478	21408
880.605	21374
880.732	21359
880.859	21633
880.986	21420
881.112	21359
881.239	21188
881.366	21173
881.493	21013
881.619	20998
881.746	20937
881.872	20944
881.999	20952
882.125	20933
882.252	21005
882.378	20937
882.505	21039
882.631	20811
882.757	20644
882.883	20785
883.01	20651
883.136	20686
883.262	20499
883.388	20492
883.514	20644
883.64	20533
883.766	20537
883.892	20408
884.018	20465
884.143	20663
884.269	20663
884.395	20434
884.52	20328
884.646	20301
884.772	20282
884.897	20309
885.023	20355
885.148	20278
885.274	20454
885.399	20366
885.524	20305
885.65	20313
885.775	20393
885.9	20237
886.025	20423
886.15	20446
886.275	20263
886.4	20145
886.525	20294
886.65	20343
886.775	20134
886.9	20381
887.025	20518
887.149	20336
887.274	20096
887.399	20031
887.523	20145
887.648	20142
887.773	20020
887.897	20259
888.021	20199
888.146	19997
888.27	20195
888.395	20142
888.519	20199
888.643	19989
888.767	20221
888.891	20024
889.015	19868
889.139	19921
889.263	19894
889.387	19978
889.511	20103
889.635	19898
889.759	19928
889.883	19967
890.006	19860
890.13	19974
890.254	19849
890.377	19803
890.501	19685
890.624	19655
890.748	19674
890.871	19567
890.995	19457
891.118	19343
891.241	19506
891.364	19514
891.488	19594
891.611	19430
891.734	19324
891.857	19483
891.98	19548
892.103	19491
892.226	19464
892.349	19563
892.471	19225
892.594	19411
892.717	19495
892.839	19430
892.962	19449
893.085	19499
893.207	19491
893.33	19259
893.452	19362
893.575	19586
893.697	19293
893.819	19537
893.941	19662
894.064	19605
894.186	19358
894.308	19377
894.43	19453
894.552	19510
894.674	19407
894.796	19297
894.918	19331
895.04	19449
895.161	19438
895.283	19308
895.405	19362
895.526	19343
895.648	19392
895.769	19373
895.891	19377
896.012	19521
896.134	19377
896.255	19460
896.376	19449
896.498	19381
896.619	19548
896.74	19369
896.861	19480
896.982	19845
897.103	19879
897.224	19822
897.345	19666
897.466	19643
897.587	19616
897.708	19837
897.828	19693
897.949	19518
898.07	19590
898.19	19548
898.311	19704
898.431	19609
898.552	19635
898.672	19563
898.792	19738
898.913	19575
899.033	19567
899.153	19491
899.273	19263
899.393	19476
899.513	19457
899.633	19449
899.753	19472
899.873	19396
899.993	19396
900.113	19346
900.232	19449
900.352	19274
900.472	19316
900.591	19183
900.711	19285
900.83	19206
900.95	19293
901.069	19240
901.189	19034
901.308	18878
901.427	18825
901.546	18776
901.665	18681
901.784	18764
901.904	18623
902.023	18593
902.141	18574
902.26	18388
902.379	18380
902.498	18471
902.617	18220
902.735	18285
902.854	18251
902.973	18300
903.091	18026
903.21	17977
903.328	18015
903.446	17920
903.565	17851
903.683	17783
903.801	17687
903.919	17695
904.038	17684
904.156	17509
904.274	17627
904.392	17623
904.51	17558
904.627	17535
904.745	17524
904.863	17615
904.981	17379
905.098	17307
905.216	17185
905.334	17269
905.451	17349
905.569	17151
905.686	17273
905.803	17269
905.921	16957
906.038	17132
906.155	17041
906.272	16968
906.389	16957
906.506	16831
906.623	16881
906.74	16759
906.857	16748
906.974	16713
907.091	16873
907.208	16771
907.324	16809
907.441	16733
907.557	16577
907.674	16481
907.79	16424
907.907	16432
908.023	16558
908.139	16550
908.256	16459
908.372	16375
908.488	16363
908.604	16280
908.72	16268
908.836	16352
908.952	16124
909.068	16287
909.184	16249
909.3	16276
909.415	16109
909.531	16322
909.647	16017
909.762	15968
909.878	15945
909.993	15903
910.108	15968
910.224	15903
910.339	15899
910.454	15873
910.57	15816
910.685	15686
910.8	15926
910.915	15956
911.03	15755
911.145	15538
911.259	15603
911.374	15538
911.489	15549
911.604	15382
911.718	15291
911.833	15283
911.947	15165
912.062	15058
912.176	15317
912.291	15302
912.405	15408
912.519	15576
912.633	15454
912.748	15447
912.862	15287
912.976	15195
913.09	15005
913.204	15001
913.318	15097
913.431	15180
913.545	15184
913.659	15275
913.772	15066
913.886	14963
914	14944
914.113	15047
914.226	15047
914.34	15039
914.453	14853
914.566	15001
914.68	14823
914.793	14781
914.906	14617
915.019	14503
915.132	14511
915.245	14594
915.358	14511
915.47	14518
915.583	14499
915.696	14545
915.809	14701
915.921	14735
916.034	14514
916.146	14419
916.259	14374
916.371	14442
916.483	14476
916.595	14381
916.708	14503
916.82	14499
916.932	14415
917.044	14355
917.156	14218
917.268	14240
917.38	14301
917.491	14210
917.603	14244
917.715	14389
917.826	14362
917.938	14221
918.049	14065
918.161	14176
918.272	14286
918.384	14301
918.495	14210
918.606	13913
918.717	13921
918.828	14012
918.939	14126
919.05	13894
919.161	14043
919.272	13818
919.383	13833
919.494	14058
919.604	14206
919.715	13974
919.826	13959
919.936	13947
920.047	14115
920.157	13997
920.267	14229
920.378	13970
920.488	14031
920.598	14084
920.708	14221
920.818	14096
920.928	14058
921.038	14320
921.148	14202
921.258	13906
921.368	13902
921.477	13772
921.587	13696
921.697	13601
921.806	13731
921.916	13632
922.025	13472
922.134	13377
922.244	13381
922.353	13396
922.462	13263
922.571	13122
922.68	13114
922.789	12996
922.898	13091
923.007	13015
923.116	13061
923.224	13027
923.333	13019
923.442	12913
923.55	12913
923.659	12924
923.767	13019
923.876	12863
923.984	12928
924.092	12692
924.201	12753
924.309	12757
924.417	12829
924.525	12593
924.633	12700
924.741	13491
924.849	12532
924.956	12715
925.064	12509
925.172	12426
925.279	12410
925.387	12479
925.494	12532
925.602	12578
925.709	12418
925.816	12441
925.924	12433
926.031	12525
926.138	12422
926.245	12422
926.352	12376
926.459	12521
926.566	12536
926.673	12342
926.779	12197
926.886	12197
926.993	12239
927.099	12102
927.206	12060
927.312	12015
927.419	12106
927.525	12106
927.631	12098
927.737	11904
927.843	11946
927.95	11764
928.056	11912
928.162	11832
928.267	11942
928.373	12525
928.479	11980
928.585	11733
928.69	11817
928.796	11893
928.901	11794
929.007	11600
929.112	11752
929.218	11661
929.323	11745
929.428	11649
929.533	11688
929.638	11577
929.743	11577
929.848	11623
929.953	11528
930.058	11471
930.163	11239
930.267	11360
930.372	11452
930.477	11315
930.581	11463
930.685	11353
930.79	11258
930.894	11231
930.998	11212
931.103	11376
931.207	10930
931.311	10930
931.415	10816
931.519	10550
931.623	10626
