Data from test_V78500241_3265.txt Node
Date: Fri Mar 25 15:32:35 CST 2022
User: usil
Spectrometer: V785-0024
Trigger mode: 0
Integration Time (sec): 4.000000E-1
Scans to average: 1
Nonlinearity correction enabled: false
Boxcar width: 0
Storing dark spectrum: false
XAxis mode: Wavelengths
Number of Pixels in Spectrum: 1024
>>>>>Begin Spectral Data<<<<<
801.071	27412
801.214	27275
801.356	27154
801.499	26986
801.641	26891
801.783	26826
801.926	26899
802.068	26781
802.211	26834
802.353	26857
802.496	26602
802.638	26617
802.78	26579
802.923	26400
803.065	26328
803.208	26427
803.35	26556
803.492	26682
803.635	26590
803.777	26640
803.919	26746
804.061	26963
804.204	26667
804.346	26674
804.488	26583
804.63	26644
804.773	26564
804.915	26708
805.057	26925
805.199	26735
805.341	26678
805.483	26887
805.626	26750
805.768	26758
805.91	26838
806.052	26823
806.194	26621
806.336	26883
806.478	26769
806.62	26788
806.762	26849
806.904	27074
807.046	27173
807.188	27252
807.33	27157
807.472	27275
807.614	27154
807.756	27077
807.898	26883
808.04	27104
808.182	26819
808.324	26902
808.465	27081
808.607	27272
808.749	27393
808.891	27424
809.033	27485
809.174	27454
809.316	27431
809.458	27389
809.6	27412
809.741	27485
809.883	27500
810.025	27572
810.166	27587
810.308	27587
810.45	27595
810.591	27488
810.733	27477
810.875	27359
811.016	27313
811.158	27340
811.299	27397
811.441	27496
811.582	27549
811.724	27313
811.865	27226
812.007	27367
812.148	27367
812.29	27298
812.431	27599
812.573	27713
812.714	27660
812.855	27747
812.997	27972
813.138	28032
813.279	27983
813.421	27865
813.562	27907
813.703	27675
813.845	27477
813.986	27310
814.127	27119
814.268	27203
814.41	26982
814.551	27028
814.692	27036
814.833	27036
814.974	27058
815.115	27085
815.256	26967
815.397	26895
815.539	27020
815.68	26716
815.821	26807
815.962	26842
816.103	26746
816.244	26701
816.385	26648
816.526	26453
816.666	26370
816.807	26256
816.948	26385
817.089	26457
817.23	26191
817.371	26233
817.512	26240
817.653	26377
817.793	26263
817.934	26309
818.075	26400
818.216	26400
818.356	26336
818.497	26130
818.638	25986
818.778	26100
818.919	26164
819.06	26088
819.2	26218
819.341	26381
819.481	26248
819.622	26400
819.762	26609
819.903	26495
820.043	26533
820.184	26415
820.324	26465
820.465	26473
820.605	26355
820.746	26355
820.886	26233
821.026	26358
821.167	26336
821.307	26351
821.447	26317
821.588	26214
821.728	26046
821.868	25841
822.008	25947
822.149	25883
822.289	25769
822.429	25533
822.569	25449
822.709	25457
822.849	25274
822.99	25324
823.13	25358
823.27	25194
823.41	25095
823.55	24992
823.69	25061
823.83	25221
823.97	25050
824.11	24951
824.25	24966
824.389	24996
824.529	25008
824.669	24856
824.809	24924
824.949	24985
825.089	24901
825.228	24951
825.368	24631
825.508	24707
825.648	24802
825.787	24810
825.927	24791
826.067	24665
826.206	24776
826.346	24859
826.485	24852
826.625	24802
826.765	24772
826.904	24749
827.044	24608
827.183	24551
827.323	24521
827.462	24505
827.601	24418
827.741	24445
827.88	24601
828.02	24285
828.159	24525
828.298	24517
828.437	24547
828.577	24532
828.716	24540
828.855	24467
828.994	24224
829.134	24079
829.273	24133
829.412	24106
829.551	24083
829.69	24125
829.829	24136
829.968	24338
830.107	24342
830.246	24289
830.385	24045
830.524	24228
830.663	24087
830.802	23996
830.941	23863
831.08	23908
831.219	23920
831.357	23931
831.496	24129
831.635	23908
831.774	23798
831.913	23687
832.051	23611
832.19	23516
832.329	23528
832.467	23604
832.606	23467
832.744	23459
832.883	23478
833.022	23345
833.16	23577
833.299	23554
833.437	23528
833.576	23558
833.714	23657
833.852	23661
833.991	23493
834.129	23665
834.267	23535
834.406	23547
834.544	23589
834.682	23642
834.821	23573
834.959	23786
835.097	23493
835.235	23562
835.373	23455
835.511	23376
835.65	23608
835.788	23383
835.926	23189
836.064	23200
836.202	23151
836.34	23429
836.478	23478
836.615	23395
836.753	23436
836.891	23649
837.029	23482
837.167	23353
837.305	23299
837.443	23246
837.58	23235
837.718	23292
837.856	23258
837.993	23197
838.131	23159
838.269	23155
838.406	23220
838.544	23014
838.681	22904
838.819	22915
838.956	22683
839.094	22843
839.231	22672
839.369	22930
839.506	23227
839.643	23086
839.781	22793
839.918	22565
840.055	22793
840.193	22664
840.33	22615
840.467	22748
840.604	22645
840.742	22968
840.879	22569
841.016	22611
841.153	22565
841.29	22786
841.427	22748
841.564	22634
841.701	22713
841.838	22637
841.975	22596
842.112	22679
842.249	22557
842.385	22523
842.522	22675
842.659	22573
842.796	22386
842.933	22402
843.069	22341
843.206	22451
843.343	22440
843.479	22493
843.616	22478
843.752	22242
843.889	22226
844.025	22299
844.162	22177
844.298	22341
844.435	22204
844.571	22185
844.708	22390
844.844	22299
844.98	22382
845.117	22322
845.253	22063
845.389	22036
845.525	22169
845.661	22036
845.798	21998
845.934	22105
846.07	21941
846.206	22025
846.342	22082
846.478	21968
846.614	21732
846.75	21709
846.886	21720
847.022	21698
847.158	21759
847.294	21797
847.429	21743
847.565	21637
847.701	21915
847.837	21492
847.972	21321
848.108	21496
848.244	21416
848.379	21252
848.515	21252
848.65	21310
848.786	21298
848.921	21165
849.057	21428
849.192	21401
849.328	21374
849.463	21294
849.598	21233
849.734	21249
849.869	21093
850.004	21074
850.14	21154
850.275	21093
850.41	21085
850.545	20963
850.68	20929
850.815	21020
850.95	21017
851.085	21233
851.22	21135
851.355	21043
851.49	21017
851.625	21001
851.76	21032
851.895	20944
852.03	20952
852.165	20902
852.299	21100
852.434	21119
852.569	21062
852.703	20994
852.838	21096
852.973	21180
853.107	21138
853.242	20975
853.376	20963
853.511	20735
853.645	20868
853.78	20971
853.914	20849
854.048	20796
854.183	20956
854.317	20929
854.451	21074
854.585	20800
854.72	20834
854.854	21001
854.988	20708
855.122	20883
855.256	20705
855.39	20876
855.524	20864
855.658	20902
855.792	20807
855.926	20899
856.06	20960
856.194	21009
856.327	20880
856.461	20788
856.595	20785
856.729	20933
856.862	20971
856.996	20883
857.13	20804
857.263	20971
857.397	20880
857.53	20823
857.664	20937
857.797	20925
857.931	20994
858.064	20842
858.197	20918
858.331	20880
858.464	20792
858.597	20716
858.731	20762
858.864	20842
858.997	20750
859.13	20743
859.263	20963
859.396	20982
859.529	20792
859.662	20800
859.795	20727
859.928	20944
860.061	21085
860.194	21070
860.327	20815
860.46	20868
860.592	21020
860.725	21005
860.858	20933
860.99	20838
861.123	20724
861.256	20880
861.388	20792
861.521	21450
861.653	20754
861.786	20705
861.918	20621
862.05	20811
862.183	20880
862.315	20823
862.447	20845
862.58	20712
862.712	20609
862.844	20583
862.976	20686
863.108	20644
863.24	20994
863.372	20541
863.504	20579
863.636	20621
863.768	20651
863.9	20556
864.032	20522
864.164	20518
864.296	20564
864.428	20674
864.559	20777
864.691	20686
864.823	20609
864.954	20617
865.086	20598
865.217	20454
865.349	20389
865.48	20533
865.612	20488
865.743	20579
865.875	20442
866.006	20450
866.137	20442
866.269	20473
866.4	20488
866.531	20415
866.662	20370
866.793	20381
866.924	20564
867.055	20412
867.186	20465
867.317	20347
867.448	20377
867.579	20358
867.71	20374
867.841	20400
867.972	20461
868.103	20495
868.233	20393
868.364	20362
868.495	20651
868.625	20648
868.756	20834
868.886	20651
869.017	20503
869.147	20678
869.278	20765
869.408	20746
869.539	20689
869.669	20689
869.799	20693
869.929	20868
870.06	20807
870.19	21032
870.32	21028
870.45	20838
870.58	20994
870.71	21226
870.84	21146
870.97	21039
871.1	21093
871.23	21237
871.36	21279
871.489	21176
871.619	21291
871.749	21074
871.879	21275
872.008	21424
872.138	21230
872.267	21192
872.397	21199
872.526	21032
872.656	21116
872.785	21116
872.915	21340
873.044	21363
873.173	21157
873.303	21199
873.432	21252
873.561	21408
873.69	21268
873.819	21233
873.948	21393
874.077	21218
874.206	21214
874.335	21329
874.464	21386
874.593	21458
874.722	21488
874.851	21496
874.979	21511
875.108	21557
875.237	21591
875.365	21519
875.494	21492
875.623	21595
875.751	21492
875.88	21583
876.008	21667
876.136	21778
876.265	21987
876.393	22112
876.521	21998
876.65	22006
876.778	21918
876.906	21899
877.034	21835
877.162	21922
877.29	21865
877.418	21937
877.546	21915
877.674	21842
877.802	21884
877.93	21770
878.058	21953
878.185	21800
878.313	21717
878.441	21964
878.568	21808
878.696	21823
878.824	21911
878.951	21937
879.079	22036
879.206	22139
879.333	21994
879.461	21892
879.588	21972
879.715	22025
879.842	22211
879.97	21812
880.097	21656
880.224	21728
880.351	21789
880.478	21720
880.605	21747
880.732	21728
880.859	21972
880.986	21667
881.112	21694
881.239	21629
881.366	21485
881.493	21348
881.619	21268
881.746	21363
881.872	21317
881.999	21241
882.125	21119
882.252	21370
882.378	21313
882.505	21443
882.631	21214
882.757	21055
882.883	21062
883.01	20956
883.136	20929
883.262	20853
883.388	20838
883.514	21017
883.64	21081
883.766	20952
883.892	20686
884.018	20864
884.143	20880
884.269	21055
884.395	20777
884.52	20613
884.646	20693
884.772	20621
884.897	20488
885.023	20807
885.148	20644
885.274	20773
885.399	20724
885.524	20644
885.65	20598
885.775	20701
885.9	20746
886.025	20788
886.15	20697
886.275	20636
886.4	20571
886.525	20518
886.65	20571
886.775	20655
886.9	20560
887.025	20796
887.149	20621
887.274	20552
887.399	20450
887.523	20541
887.648	20377
887.773	20465
887.897	20526
888.021	20530
888.146	20434
888.27	20492
888.395	20499
888.519	20537
888.643	20469
888.767	20374
888.891	20290
889.015	20271
889.139	20286
889.263	20153
889.387	20355
889.511	20469
889.635	20290
889.759	20126
889.883	20183
890.006	20301
890.13	20233
890.254	20164
890.377	20096
890.501	19982
890.624	19925
890.748	20016
890.871	19845
890.995	19803
891.118	19753
891.241	19875
891.364	19681
891.488	19890
891.611	19887
891.734	19833
891.857	19868
891.98	19868
892.103	19833
892.226	19822
892.349	19772
892.471	19677
892.594	19807
892.717	19727
892.839	19769
892.962	19757
893.085	19742
893.207	19704
893.33	19696
893.452	19620
893.575	19731
893.697	19727
893.819	19871
893.941	19780
894.064	19887
894.186	19753
894.308	19685
894.43	19849
894.552	19807
894.674	19742
894.796	19685
894.918	19586
895.04	19685
895.161	19715
895.283	19822
895.405	19613
895.526	19677
895.648	19655
895.769	19742
895.891	19674
896.012	19715
896.134	19811
896.255	19651
896.376	19738
896.498	19696
896.619	19715
896.74	19708
896.861	19723
896.982	20020
897.103	20145
897.224	19925
897.345	20005
897.466	19875
897.587	19940
897.708	20107
897.828	19982
897.949	19906
898.07	19830
898.19	19913
898.311	19997
898.431	19868
898.552	20005
898.672	19989
898.792	20005
898.913	19883
899.033	19871
899.153	19727
899.273	19639
899.393	19586
899.513	19658
899.633	19814
899.753	19727
899.873	19643
899.993	19662
900.113	19643
900.232	19708
900.352	19624
900.472	19514
900.591	19502
900.711	19533
900.83	19438
900.95	19464
901.069	19620
901.189	19304
901.308	19122
901.427	19114
901.546	19057
901.665	19088
901.784	19095
901.904	18878
902.023	18783
902.141	18654
902.26	18574
902.379	18639
902.498	18498
902.617	18589
902.735	18467
902.854	18536
902.973	18479
903.091	18155
903.21	18216
903.328	18247
903.446	18194
903.565	18079
903.683	18019
903.801	18003
903.919	18034
904.038	17977
904.156	17821
904.274	17904
904.392	17874
904.51	17855
904.627	17805
904.745	17935
904.863	17870
904.981	17710
905.098	17459
905.216	17604
905.334	17570
905.451	17630
905.569	17398
905.686	17512
905.803	17581
905.921	17235
906.038	17261
906.155	17223
906.272	17208
906.389	17223
906.506	17037
906.623	17064
906.74	17117
906.857	16911
906.974	16881
907.091	17029
907.208	17223
907.324	17041
907.441	16984
907.557	16706
907.674	16733
907.79	16649
907.907	16854
908.023	16713
908.139	16774
908.256	16801
908.372	16580
908.488	16668
908.604	16527
908.72	16500
908.836	16538
908.952	16474
909.068	16497
909.184	16630
909.3	16409
909.415	16535
909.531	16508
909.647	16242
909.762	16162
909.878	16131
909.993	16147
910.108	16211
910.224	16139
910.339	16162
910.454	16017
910.57	16006
910.685	15953
910.8	16219
910.915	16143
911.03	15895
911.145	15797
911.259	15774
911.374	15800
911.489	15698
911.604	15709
911.718	15591
911.833	15504
911.947	15580
912.062	15450
912.176	15561
912.291	15507
912.405	15648
912.519	15778
912.633	15755
912.748	15641
912.862	15526
912.976	15386
913.09	15252
913.204	15336
913.318	15401
913.431	15420
913.545	15420
913.659	15340
913.772	15260
913.886	15150
914	15131
914.113	15233
914.226	15291
914.34	15252
914.453	15024
914.566	15294
914.68	15058
914.793	14937
914.906	14902
915.019	14682
915.132	14800
915.245	14838
915.358	14800
915.47	14754
915.583	14823
915.696	14819
915.809	14971
915.921	14899
916.034	14765
916.146	14674
916.259	14724
916.371	14708
916.483	14686
916.595	14670
916.708	14659
916.82	14629
916.932	14598
917.044	14564
917.156	14625
917.268	14476
917.38	14575
917.491	14442
917.603	14431
917.715	14499
917.826	14587
917.938	14412
918.049	14267
918.161	14355
918.272	14549
918.384	14503
918.495	14355
918.606	14256
918.717	14240
918.828	14225
918.939	14252
919.05	14065
919.161	14100
919.272	13970
919.383	14164
919.494	14298
919.604	14377
919.715	14172
919.826	14138
919.936	14157
920.047	14237
920.157	14218
920.267	14473
920.378	14199
920.488	14172
920.598	14305
920.708	14488
920.818	14362
920.928	14282
921.038	14514
921.148	14396
921.258	14084
921.368	14058
921.477	13944
921.587	13856
921.697	13761
921.806	13970
921.916	13776
922.025	13590
922.134	13613
922.244	13480
922.353	13586
922.462	13468
922.571	13400
922.68	13194
922.789	13228
922.898	13282
923.007	13194
923.116	13232
923.224	13183
923.333	13213
923.442	13091
923.55	13042
923.659	13080
923.767	13236
923.876	13027
923.984	13110
924.092	12951
924.201	13065
924.309	12962
924.417	12981
924.525	12901
924.633	12886
924.741	13814
924.849	12734
924.956	12848
925.064	12662
925.172	12620
925.279	12719
925.387	12711
925.494	12734
925.602	12859
925.709	12650
925.816	12456
925.924	12627
926.031	12620
926.138	12616
926.245	12719
926.352	12525
926.459	12722
926.566	12730
926.673	12555
926.779	12445
926.886	12479
926.993	12266
927.099	12201
927.206	12190
927.312	12232
927.419	12330
927.525	12186
927.631	12228
927.737	12148
927.843	11996
927.95	11935
928.056	12079
928.162	12045
928.267	12053
928.373	12821
928.479	12144
928.585	11866
928.69	11984
928.796	12140
928.901	11901
929.007	11828
929.112	11920
929.218	11939
929.323	11878
929.428	11821
929.533	11946
929.638	11790
929.743	11756
929.848	11828
929.953	11767
930.058	11520
930.163	11467
930.267	11512
930.372	11600
930.477	11444
930.581	11680
930.685	11524
930.79	11376
930.894	11364
930.998	11395
931.103	11429
931.207	11162
931.311	11094
931.415	10934
931.519	10824
931.623	10733
