Data from test_V78500241_2900.txt Node
Date: Fri Mar 25 15:30:03 CST 2022
User: usil
Spectrometer: V785-0024
Trigger mode: 0
Integration Time (sec): 4.000000E-1
Scans to average: 1
Nonlinearity correction enabled: false
Boxcar width: 0
Storing dark spectrum: false
XAxis mode: Wavelengths
Number of Pixels in Spectrum: 1024
>>>>>Begin Spectral Data<<<<<
801.071	27203
801.214	27268
801.356	27039
801.499	26956
801.641	26861
801.783	26811
801.926	26762
802.068	26826
802.211	26804
802.353	26651
802.496	26556
802.638	26442
802.78	26423
802.923	26309
803.065	26362
803.208	26385
803.35	26473
803.492	26533
803.635	26693
803.777	26511
803.919	26617
804.061	26872
804.204	26769
804.346	26556
804.488	26571
804.63	26545
804.773	26549
804.915	26438
805.057	26724
805.199	26575
805.341	26701
805.483	26872
805.626	26720
805.768	26625
805.91	26773
806.052	26743
806.194	26629
806.336	26811
806.478	26663
806.62	26655
806.762	26769
806.904	26937
807.046	27180
807.188	27211
807.33	27066
807.472	27184
807.614	27058
807.756	27066
807.898	26906
808.04	26800
808.182	26868
808.324	27146
808.465	27077
808.607	27119
808.749	27287
808.891	27576
809.033	27439
809.174	27355
809.316	27093
809.458	27374
809.6	27252
809.741	27344
809.883	27500
810.025	27561
810.166	27595
810.308	27477
810.45	27477
810.591	27564
810.733	27252
810.875	27344
811.016	27344
811.158	27237
811.299	27538
811.441	27587
811.582	27485
811.724	27211
811.865	27294
812.007	27310
812.148	27351
812.29	27260
812.431	27389
812.573	27648
812.714	27599
812.855	27804
812.997	27865
813.138	27968
813.279	28048
813.421	27884
813.562	27781
813.703	27485
813.845	27397
813.986	27192
814.127	27036
814.268	26921
814.41	27013
814.551	26845
814.692	26952
814.833	26785
814.974	26785
815.115	26918
815.256	26925
815.397	26944
815.539	26823
815.68	26731
815.821	26670
815.962	26769
816.103	26609
816.244	26697
816.385	26492
816.526	26412
816.666	26351
816.807	26229
816.948	26199
817.089	26358
817.23	26278
817.371	26153
817.512	26206
817.653	26225
817.793	26172
817.934	26240
818.075	26275
818.216	26130
818.356	26290
818.497	26111
818.638	26020
818.778	26024
818.919	25959
819.06	25986
819.2	26134
819.341	26214
819.481	26290
819.622	26305
819.762	26530
819.903	26412
820.043	26362
820.184	26324
820.324	26400
820.465	26351
820.605	26259
820.746	26370
820.886	26153
821.026	26290
821.167	26180
821.307	26275
821.447	26195
821.588	26172
821.728	26024
821.868	25727
822.008	25784
822.149	25537
822.289	25613
822.429	25518
822.569	25327
822.709	25236
822.849	25240
822.99	25194
823.13	25126
823.27	25076
823.41	24996
823.55	24894
823.69	25088
823.83	25004
823.97	24886
824.11	24753
824.25	24696
824.389	24772
824.529	24962
824.669	24677
824.809	24935
824.949	24894
825.089	24913
825.228	24825
825.368	24540
825.508	24749
825.648	24715
825.787	24738
825.927	24749
826.067	24681
826.206	24726
826.346	24707
826.485	24650
826.625	24528
826.765	24661
826.904	24760
827.044	24403
827.183	24448
827.323	24410
827.462	24357
827.601	24399
827.741	24460
827.88	24292
828.02	24258
828.159	24353
828.298	24330
828.437	24452
828.577	24319
828.716	24464
828.855	24292
828.994	24095
829.134	24152
829.273	24072
829.412	24053
829.551	24041
829.69	24053
829.829	23954
829.968	24121
830.107	24178
830.246	24022
830.385	23927
830.524	23950
830.663	23847
830.802	23828
830.941	23794
831.08	23634
831.219	23665
831.357	23661
831.496	23946
831.635	23703
831.774	23493
831.913	23433
832.051	23497
832.19	23467
832.329	23520
832.467	23376
832.606	23235
832.744	23368
832.883	23402
833.022	23250
833.16	23220
833.299	23216
833.437	23360
833.576	23501
833.714	23440
833.852	23505
833.991	23459
834.129	23429
834.267	23547
834.406	23448
834.544	23433
834.682	23379
834.821	23406
834.959	23551
835.097	23391
835.235	23505
835.373	23414
835.511	23474
835.65	23280
835.788	23239
835.926	23102
836.064	22987
836.202	23037
836.34	23094
836.478	23330
836.615	23155
836.753	23220
836.891	23337
837.029	23193
837.167	23220
837.305	23128
837.443	23117
837.58	22949
837.718	23143
837.856	22991
837.993	23060
838.131	23094
838.269	22953
838.406	23048
838.544	22869
838.681	22797
838.819	22672
838.956	22527
839.094	22497
839.231	22565
839.369	22866
839.506	22850
839.643	22721
839.781	22554
839.918	22569
840.055	22489
840.193	22607
840.33	22459
840.467	22516
840.604	22493
840.742	22816
840.879	22352
841.016	22417
841.153	22382
841.29	22550
841.427	22565
841.564	22390
841.701	22428
841.838	22352
841.975	22421
842.112	22382
842.249	22276
842.385	22287
842.522	22386
842.659	22268
842.796	22246
842.933	22204
843.069	22204
843.206	22242
843.343	22196
843.479	22200
843.616	22230
843.752	22116
843.889	21998
844.025	22116
844.162	21953
844.298	22211
844.435	21876
844.571	21953
844.708	22059
844.844	22200
844.98	22120
845.117	22101
845.253	21972
845.389	21888
845.525	21937
845.661	21903
845.798	21732
845.934	21701
846.07	21724
846.206	21835
846.342	21698
846.478	21732
846.614	21469
846.75	21583
846.886	21443
847.022	21599
847.158	21412
847.294	21534
847.429	21572
847.565	21378
847.701	21633
847.837	21310
847.972	21287
848.108	21317
848.244	21306
848.379	21081
848.515	21089
848.65	21085
848.786	21176
848.921	21116
849.057	21230
849.192	21161
849.328	21199
849.463	21085
849.598	20963
849.734	20986
849.869	20967
850.004	20819
850.14	20937
850.275	20773
850.41	20853
850.545	20754
850.68	20765
850.815	20823
850.95	20781
851.085	20944
851.22	20990
851.355	20804
851.49	20845
851.625	20750
851.76	20777
851.895	20765
852.03	20777
852.165	20891
852.299	20975
852.434	20891
852.569	20876
852.703	20826
852.838	20880
852.973	20994
853.107	20872
853.242	20796
853.376	20659
853.511	20541
853.645	20568
853.78	20731
853.914	20682
854.048	20678
854.183	20587
854.317	20648
854.451	20785
854.585	20689
854.72	20640
854.854	20845
854.988	20625
855.122	20712
855.256	20568
855.39	20667
855.524	20731
855.658	20613
855.792	20636
855.926	20552
856.06	20670
856.194	20663
856.327	20625
856.461	20602
856.595	20587
856.729	20594
856.862	20826
856.996	20655
857.13	20727
857.263	20788
857.397	20876
857.53	20644
857.664	20598
857.797	20720
857.931	20769
858.064	20781
858.197	20765
858.331	20754
858.464	20617
858.597	20598
858.731	20701
858.864	20560
858.997	20655
859.13	20838
859.263	20625
859.396	20826
859.529	20537
859.662	20613
859.795	20587
859.928	20712
860.061	20845
860.194	20834
860.327	20636
860.46	20712
860.592	20739
860.725	20815
860.858	20864
860.99	20579
861.123	20598
861.256	20412
861.388	20545
861.521	21275
861.653	20480
861.786	20454
861.918	20499
862.05	20457
862.183	20537
862.315	20625
862.447	20625
862.58	20606
862.712	20259
862.844	20229
862.976	20488
863.108	20450
863.24	20941
863.372	20199
863.504	20434
863.636	20431
863.768	20434
863.9	20351
864.032	20309
864.164	20248
864.296	20465
864.428	20404
864.559	20415
864.691	20438
864.823	20473
864.954	20336
865.086	20473
865.217	20305
865.349	20122
865.48	20248
865.612	20278
865.743	20309
865.875	20244
866.006	20309
866.137	20218
866.269	20183
866.4	20248
866.531	20240
866.662	20183
866.793	20267
866.924	20134
867.055	20210
867.186	20339
867.317	20107
867.448	20119
867.579	20130
867.71	20157
867.841	20164
867.972	20210
868.103	20214
868.233	20332
868.364	20210
868.495	20343
868.625	20450
868.756	20438
868.886	20446
869.017	20431
869.147	20533
869.278	20579
869.408	20526
869.539	20476
869.669	20488
869.799	20594
869.929	20522
870.06	20488
870.19	20762
870.32	20720
870.45	20800
870.58	20872
870.71	20994
870.84	20910
870.97	20967
871.1	20891
871.23	21085
871.36	20979
871.489	20994
871.619	21146
871.749	20956
871.879	21043
872.008	21119
872.138	20941
872.267	21009
872.397	20918
872.526	20849
872.656	20914
872.785	20929
872.915	20967
873.044	21131
873.173	21211
873.303	21146
873.432	21161
873.561	21237
873.69	21116
873.819	21074
873.948	21161
874.077	21047
874.206	21077
874.335	21039
874.464	21150
874.593	21393
874.722	21237
874.851	21310
874.979	21310
875.108	21401
875.237	21344
875.365	21294
875.494	21370
875.623	21313
875.751	21310
875.88	21317
876.008	21462
876.136	21526
876.265	21671
876.393	21804
876.521	21819
876.65	21797
876.778	21800
876.906	21667
877.034	21656
877.162	21690
877.29	21572
877.418	21644
877.546	21698
877.674	21694
877.802	21572
877.93	21793
878.058	21644
878.185	21580
878.313	21557
878.441	21675
878.568	21511
878.696	21603
878.824	21564
878.951	21793
879.079	21785
879.206	21975
879.333	21755
879.461	21755
879.588	21766
879.715	21755
879.842	21949
879.97	21747
880.097	21561
880.224	21401
880.351	21359
880.478	21504
880.605	21428
880.732	21583
880.859	21682
880.986	21523
881.112	21492
881.239	21370
881.366	21226
881.493	21214
881.619	21096
881.746	21055
881.872	21188
881.999	20986
882.125	20998
882.252	21024
882.378	21089
882.505	21173
882.631	20944
882.757	20792
882.883	20872
883.01	20834
883.136	20693
883.262	20686
883.388	20629
883.514	20765
883.64	20663
883.766	20758
883.892	20495
884.018	20598
884.143	20739
884.269	20804
884.395	20514
884.52	20457
884.646	20514
884.772	20396
884.897	20305
885.023	20396
885.148	20446
885.274	20617
885.399	20465
885.524	20423
885.65	20465
885.775	20461
885.9	20400
886.025	20606
886.15	20438
886.275	20339
886.4	20320
886.525	20404
886.65	20377
886.775	20374
886.9	20492
887.025	20632
887.149	20518
887.274	20206
887.399	20195
887.523	20214
887.648	20157
887.773	20126
887.897	20324
888.021	20305
888.146	20103
888.27	20332
888.395	20233
888.519	20221
888.643	20187
888.767	20225
888.891	20145
889.015	20043
889.139	20039
889.263	20001
889.387	20134
889.511	20259
889.635	20031
889.759	19982
889.883	20012
890.006	20005
890.13	20164
890.254	19940
890.377	20008
890.501	19753
890.624	19670
890.748	19811
890.871	19708
890.995	19677
891.118	19609
891.241	19624
891.364	19578
891.488	19811
891.611	19514
891.734	19559
891.857	19502
891.98	19613
892.103	19655
892.226	19567
892.349	19495
892.471	19381
892.594	19468
892.717	19582
892.839	19441
892.962	19548
893.085	19525
893.207	19430
893.33	19445
893.452	19422
893.575	19578
893.697	19468
893.819	19757
893.941	19700
894.064	19620
894.186	19544
894.308	19441
894.43	19582
894.552	19647
894.674	19540
894.796	19445
894.918	19548
895.04	19537
895.161	19533
895.283	19464
895.405	19411
895.526	19430
895.648	19529
895.769	19411
895.891	19537
896.012	19693
896.134	19529
896.255	19552
896.376	19411
896.498	19544
896.619	19616
896.74	19491
896.861	19601
896.982	19849
897.103	19986
897.224	19723
897.345	19719
897.466	19674
897.587	19677
897.708	19909
897.828	19750
897.949	19696
898.07	19605
898.19	19681
898.311	19700
898.431	19670
898.552	19746
898.672	19807
898.792	19742
898.913	19704
899.033	19616
899.153	19480
899.273	19502
899.393	19609
899.513	19544
899.633	19468
899.753	19518
899.873	19411
899.993	19533
900.113	19556
900.232	19552
900.352	19460
900.472	19293
900.591	19240
900.711	19358
900.83	19282
900.95	19438
901.069	19339
901.189	19228
901.308	18935
901.427	18901
901.546	19027
901.665	18962
901.784	18973
901.904	18779
902.023	18677
902.141	18498
902.26	18525
902.379	18452
902.498	18464
902.617	18429
902.735	18414
902.854	18422
902.973	18273
903.091	18102
903.21	18148
903.328	18155
903.446	18030
903.565	17931
903.683	18034
903.801	17764
903.919	17931
904.038	17798
904.156	17558
904.274	17866
904.392	17638
904.51	17665
904.627	17687
904.745	17714
904.863	17722
904.981	17448
905.098	17406
905.216	17345
905.334	17425
905.451	17425
905.569	17360
905.686	17421
905.803	17322
905.921	17124
906.038	17330
906.155	17235
906.272	17128
906.389	16995
906.506	16896
906.623	16946
906.74	16942
906.857	16873
906.974	16713
907.091	16957
907.208	17003
907.324	16987
907.441	16858
907.557	16592
907.674	16630
907.79	16569
907.907	16516
908.023	16550
908.139	16584
908.256	16607
908.372	16519
908.488	16527
908.604	16314
908.72	16310
908.836	16325
908.952	16162
909.068	16360
909.184	16421
909.3	16382
909.415	16295
909.531	16310
909.647	16086
909.762	16097
909.878	16067
909.993	16090
910.108	16010
910.224	15907
910.339	16109
910.454	15865
910.57	15842
910.685	15793
910.8	16128
910.915	16006
911.03	15861
911.145	15660
911.259	15663
911.374	15743
911.489	15515
911.604	15515
911.718	15405
911.833	15511
911.947	15260
912.062	15275
912.176	15363
912.291	15458
912.405	15500
912.519	15584
912.633	15564
912.748	15473
912.862	15332
912.976	15138
913.09	15150
913.204	15093
913.318	15222
913.431	15233
913.545	15306
913.659	15420
913.772	15165
913.886	15085
914	14990
914.113	15074
914.226	15051
914.34	15119
914.453	14929
914.566	14990
914.68	14883
914.793	14948
914.906	14659
915.019	14648
915.132	14602
915.245	14640
915.358	14610
915.47	14541
915.583	14655
915.696	14598
915.809	14750
915.921	14773
916.034	14670
916.146	14507
916.259	14541
916.371	14678
916.483	14602
916.595	14415
916.708	14469
916.82	14560
916.932	14552
917.044	14476
917.156	14393
917.268	14248
917.38	14374
917.491	14362
917.603	14290
917.715	14320
917.826	14362
917.938	14180
918.049	14172
918.161	14252
918.272	14347
918.384	14366
918.495	14229
918.606	14142
918.717	14065
918.828	14142
918.939	14176
919.05	14058
919.161	14077
919.272	13894
919.383	13963
919.494	14096
919.604	14183
919.715	14134
919.826	13913
919.936	14008
920.047	14202
920.157	14092
920.267	14298
920.378	14092
920.488	14008
920.598	14221
920.708	14267
920.818	14145
920.928	14202
921.038	14362
921.148	14267
921.258	13978
921.368	13959
921.477	13776
921.587	13803
921.697	13784
921.806	13746
921.916	13708
922.025	13518
922.134	13499
922.244	13381
922.353	13544
922.462	13358
922.571	13236
922.68	13091
922.789	13099
922.898	13107
923.007	13038
923.116	13107
923.224	13053
923.333	13103
923.442	12916
923.55	12920
923.659	12958
923.767	13031
923.876	12837
923.984	12977
924.092	12890
924.201	12886
924.309	12863
924.417	12871
924.525	12768
924.633	12772
924.741	13750
924.849	12623
924.956	12715
925.064	12566
925.172	12479
925.279	12422
925.387	12445
925.494	12627
925.602	12684
925.709	12551
925.816	12445
925.924	12521
926.031	12582
926.138	12502
926.245	12582
926.352	12471
926.459	12517
926.566	12509
926.673	12391
926.779	12311
926.886	12296
926.993	12190
927.099	12068
927.206	12091
927.312	12053
927.419	12121
927.525	12007
927.631	12213
927.737	11996
927.843	11954
927.95	11798
928.056	11984
928.162	11992
928.267	11923
928.373	12544
928.479	11969
928.585	11798
928.69	11961
928.796	11939
928.901	11870
929.007	11691
929.112	11798
929.218	11813
929.323	11760
929.428	11695
929.533	11855
929.638	11646
929.743	11585
929.848	11737
929.953	11707
930.058	11490
930.163	11414
930.267	11379
930.372	11429
930.477	11353
930.581	11573
930.685	11490
930.79	11254
930.894	11307
930.998	11311
931.103	11334
931.207	11041
931.311	10968
931.415	10809
931.519	10691
931.623	10694
