Data from test_V78500241_513.txt Node
Date: Fri Mar 25 15:13:25 CST 2022
User: usil
Spectrometer: V785-0024
Trigger mode: 0
Integration Time (sec): 4.000000E-1
Scans to average: 1
Nonlinearity correction enabled: false
Boxcar width: 0
Storing dark spectrum: false
XAxis mode: Wavelengths
Number of Pixels in Spectrum: 1024
>>>>>Begin Spectral Data<<<<<
801.071	27469
801.214	27256
801.356	27214
801.499	27199
801.641	27039
801.783	26998
801.926	27062
802.068	26937
802.211	26857
802.353	26823
802.496	26530
802.638	26594
802.78	26678
802.923	26564
803.065	26613
803.208	26663
803.35	26655
803.492	26663
803.635	26701
803.777	26667
803.919	26659
804.061	26971
804.204	26762
804.346	26530
804.488	26587
804.63	26617
804.773	26594
804.915	26697
805.057	26773
805.199	26918
805.341	26925
805.483	26819
805.626	26853
805.768	26682
805.91	26708
806.052	26971
806.194	26712
806.336	27089
806.478	26823
806.62	26933
806.762	27051
806.904	27036
807.046	27401
807.188	27302
807.33	27192
807.472	27458
807.614	27203
807.756	27169
807.898	27047
808.04	27058
808.182	26906
808.324	27062
808.465	27184
808.607	27294
808.749	27496
808.891	27591
809.033	27519
809.174	27549
809.316	27492
809.458	27496
809.6	27496
809.741	27561
809.883	27523
810.025	27713
810.166	27903
810.308	27671
810.45	27724
810.591	27785
810.733	27564
810.875	27462
811.016	27435
811.158	27332
811.299	27614
811.441	27606
811.582	27587
811.724	27481
811.865	27454
812.007	27397
812.148	27340
812.29	27408
812.431	27580
812.573	27789
812.714	27907
812.855	27941
812.997	28112
813.138	28162
813.279	28116
813.421	28006
813.562	28055
813.703	27819
813.845	27762
813.986	27408
814.127	27256
814.268	27112
814.41	27317
814.551	27127
814.692	27154
814.833	27062
814.974	27169
815.115	27260
815.256	27233
815.397	27142
815.539	27142
815.68	26921
815.821	27020
815.962	27096
816.103	27017
816.244	26868
816.385	26636
816.526	26693
816.666	26587
816.807	26434
816.948	26594
817.089	26526
817.23	26560
817.371	26476
817.512	26457
817.653	26480
817.793	26362
817.934	26396
818.075	26541
818.216	26324
818.356	26305
818.497	26286
818.638	26233
818.778	26252
818.919	26199
819.06	26210
819.2	26332
819.341	26453
819.481	26400
819.622	26549
819.762	26686
819.903	26678
820.043	26579
820.184	26609
820.324	26583
820.465	26613
820.605	26571
820.746	26571
820.886	26423
821.026	26613
821.167	26526
821.307	26514
821.447	26431
821.588	26446
821.728	26195
821.868	26046
822.008	25925
822.149	25902
822.289	25780
822.429	25658
822.569	25590
822.709	25419
822.849	25518
822.99	25324
823.13	25232
823.27	25426
823.41	25255
823.55	25194
823.69	25297
823.83	25247
823.97	25209
824.11	25019
824.25	24920
824.389	25000
824.529	25129
824.669	24932
824.809	25129
824.949	25084
825.089	25183
825.228	25137
825.368	24958
825.508	24962
825.648	24935
825.787	24913
825.927	24951
826.067	24791
826.206	24935
826.346	24897
826.485	25038
826.625	24951
826.765	24924
826.904	24795
827.044	24684
827.183	24661
827.323	24776
827.462	24528
827.601	24688
827.741	24582
827.88	24650
828.02	24376
828.159	24620
828.298	24642
828.437	24620
828.577	24544
828.716	24707
828.855	24589
828.994	24277
829.134	24342
829.273	24433
829.412	24357
829.551	24235
829.69	24292
829.829	24505
829.968	24456
830.107	24311
830.246	24369
830.385	24342
830.524	24251
830.663	24171
830.802	24114
830.941	24011
831.08	23950
831.219	24022
831.357	23988
831.496	24079
831.635	23992
831.774	23836
831.913	23908
832.051	23729
832.19	23752
832.329	23733
832.467	23623
832.606	23570
832.744	23649
832.883	23615
833.022	23547
833.16	23623
833.299	23703
833.437	23657
833.576	23722
833.714	23634
833.852	23851
833.991	23733
834.129	23840
834.267	23843
834.406	23794
834.544	23653
834.682	23707
834.821	23718
834.959	23920
835.097	23649
835.235	23729
835.373	23703
835.511	23760
835.65	23570
835.788	23528
835.926	23554
836.064	23303
836.202	23345
836.34	23436
836.478	23558
836.615	23467
836.753	23444
836.891	23653
837.029	23638
837.167	23619
837.305	23452
837.443	23307
837.58	23326
837.718	23558
837.856	23452
837.993	23455
838.131	23433
838.269	23280
838.406	23341
838.544	23105
838.681	23155
838.819	22946
838.956	22881
839.094	22790
839.231	22904
839.369	23052
839.506	23235
839.643	23124
839.781	22866
839.918	22805
840.055	22850
840.193	22820
840.33	22793
840.467	22713
840.604	22778
840.742	22961
840.879	22698
841.016	22713
841.153	22702
841.29	22976
841.427	22755
841.564	22850
841.701	22721
841.838	22622
841.975	22687
842.112	22641
842.249	22481
842.385	22569
842.522	22778
842.659	22554
842.796	22508
842.933	22561
843.069	22538
843.206	22550
843.343	22569
843.479	22535
843.616	22588
843.752	22318
843.889	22367
844.025	22478
844.162	22360
844.298	22428
844.435	22215
844.571	22310
844.708	22291
844.844	22459
844.98	22371
845.117	22421
845.253	22329
845.389	22207
845.525	22211
845.661	22295
845.798	21979
845.934	22265
846.07	22002
846.206	22150
846.342	22211
846.478	22059
846.614	21865
846.75	21835
846.886	21800
847.022	21766
847.158	21755
847.294	21743
847.429	21888
847.565	21751
847.701	22025
847.837	21549
847.972	21538
848.108	21690
848.244	21553
848.379	21443
848.515	21302
848.65	21412
848.786	21389
848.921	21424
849.057	21526
849.192	21416
849.328	21473
849.463	21408
849.598	21416
849.734	21321
849.869	21268
850.004	21230
850.14	21298
850.275	21241
850.41	21146
850.545	21089
850.68	21112
850.815	21176
850.95	21176
851.085	21329
851.22	21313
851.355	21104
851.49	21150
851.625	21180
851.76	20986
851.895	21081
852.03	21116
852.165	21100
852.299	21222
852.434	21199
852.569	21138
852.703	21127
852.838	21138
852.973	21207
853.107	21241
853.242	21077
853.376	20982
853.511	20876
853.645	20952
853.78	21161
853.914	21020
854.048	20971
854.183	20967
854.317	20937
854.451	21161
854.585	20971
854.72	20902
854.854	21108
854.988	20994
855.122	20971
855.256	20895
855.39	20918
855.524	21047
855.658	20975
855.792	20979
855.926	20948
856.06	21009
856.194	21100
856.327	20956
856.461	20948
856.595	20963
856.729	20933
856.862	21055
856.996	21112
857.13	20990
857.263	21150
857.397	21001
857.53	20887
857.664	21043
857.797	21032
857.931	21001
858.064	20982
858.197	21116
858.331	21001
858.464	20906
858.597	20952
858.731	21009
858.864	20910
858.997	20956
859.13	21051
859.263	20967
859.396	20960
859.529	20994
859.662	20921
859.795	20853
859.928	20914
860.061	21154
860.194	21058
860.327	21077
860.46	20906
860.592	21058
860.725	21119
860.858	21039
860.99	20868
861.123	20864
861.256	20880
861.388	20960
861.521	21705
861.653	20845
861.786	20815
861.918	20727
862.05	20963
862.183	20994
862.315	20895
862.447	21024
862.58	20910
862.712	20762
862.844	20686
862.976	20750
863.108	20659
863.24	21077
863.372	20564
863.504	20686
863.636	20720
863.768	20659
863.9	20693
864.032	20640
864.164	20815
864.296	20750
864.428	20720
864.559	20720
864.691	20754
864.823	20743
864.954	20689
865.086	20670
865.217	20549
865.349	20522
865.48	20636
865.612	20686
865.743	20640
865.875	20511
866.006	20549
866.137	20552
866.269	20659
866.4	20503
866.531	20518
866.662	20556
866.793	20526
866.924	20590
867.055	20606
867.186	20602
867.317	20469
867.448	20457
867.579	20552
867.71	20431
867.841	20404
867.972	20526
868.103	20556
868.233	20377
868.364	20434
868.495	20663
868.625	20857
868.756	20804
868.886	20625
869.017	20823
869.147	20861
869.278	20929
869.408	20883
869.539	20697
869.669	20857
869.799	20785
869.929	20902
870.06	20838
870.19	21055
870.32	21043
870.45	21028
870.58	21214
870.71	21184
870.84	21211
870.97	21089
871.1	21157
871.23	21329
871.36	21443
871.489	21173
871.619	21268
871.749	21287
871.879	21405
872.008	21553
872.138	21340
872.267	21412
872.397	21085
872.526	21062
872.656	21119
872.785	21207
872.915	21336
873.044	21526
873.173	21348
873.303	21389
873.432	21428
873.561	21454
873.69	21363
873.819	21378
873.948	21389
874.077	21397
874.206	21325
874.335	21496
874.464	21568
874.593	21568
874.722	21679
874.851	21679
874.979	21576
875.108	21675
875.237	21629
875.365	21511
875.494	21644
875.623	21663
875.751	21561
875.88	21564
876.008	21701
876.136	21835
876.265	22017
876.393	22139
876.521	22181
876.65	22097
876.778	21934
876.906	21895
877.034	21983
877.162	22006
877.29	21876
877.418	22006
877.546	21922
877.674	21945
877.802	21937
877.93	21937
878.058	22002
878.185	21831
878.313	21888
878.441	21960
878.568	21770
878.696	21930
878.824	22017
878.951	21956
879.079	22158
879.206	22112
879.333	22124
879.461	22040
879.588	22044
879.715	22268
879.842	22257
879.97	22040
880.097	21846
880.224	21766
880.351	21865
880.478	21766
880.605	21698
880.732	21880
880.859	21956
880.986	21747
881.112	21724
881.239	21595
881.366	21580
881.493	21443
881.619	21450
881.746	21408
881.872	21344
881.999	21279
882.125	21317
882.252	21416
882.378	21462
882.505	21492
882.631	21256
882.757	21108
882.883	21100
883.01	21081
883.136	21024
883.262	20944
883.388	20921
883.514	21199
883.64	21096
883.766	20956
883.892	20807
884.018	20933
884.143	20990
884.269	21131
884.395	20834
884.52	20636
884.646	20708
884.772	20625
884.897	20640
885.023	20667
885.148	20792
885.274	20868
885.399	20754
885.524	20667
885.65	20705
885.775	20724
885.9	20720
886.025	20845
886.15	20872
886.275	20663
886.4	20651
886.525	20724
886.65	20644
886.775	20629
886.9	20777
887.025	20838
887.149	20739
887.274	20537
887.399	20492
887.523	20598
887.648	20389
887.773	20396
887.897	20537
888.021	20514
888.146	20385
888.27	20556
888.395	20632
888.519	20499
888.643	20537
888.767	20545
888.891	20396
889.015	20267
889.139	20442
889.263	20240
889.387	20404
889.511	20568
889.635	20305
889.759	20267
889.883	20313
890.006	20278
890.13	20366
890.254	20145
890.377	20271
890.501	20005
890.624	20103
890.748	20176
890.871	20065
890.995	19894
891.118	19776
891.241	19883
891.364	19898
891.488	19913
891.611	19845
891.734	19940
891.857	19875
891.98	19944
892.103	19841
892.226	19989
892.349	19814
892.471	19616
892.594	19746
892.717	19803
892.839	19723
892.962	19837
893.085	19830
893.207	19761
893.33	19670
893.452	19738
893.575	19875
893.697	19799
893.819	19894
893.941	19951
894.064	19928
894.186	19643
894.308	19674
894.43	19856
894.552	19837
894.674	19826
894.796	19685
894.918	19791
895.04	19731
895.161	19753
895.283	19742
895.405	19742
895.526	19811
895.648	19811
895.769	19852
895.891	19803
896.012	19715
896.134	19860
896.255	19651
896.376	19784
896.498	19708
896.619	19826
896.74	19791
896.861	19780
896.982	20142
897.103	20187
897.224	20008
897.345	19989
897.466	19944
897.587	20031
897.708	20202
897.828	20031
897.949	19906
898.07	19818
898.19	19928
898.311	20035
898.431	19932
898.552	20001
898.672	20107
898.792	20012
898.913	19989
899.033	19799
899.153	19944
899.273	19757
899.393	19731
899.513	19871
899.633	19681
899.753	19803
899.873	19662
899.993	19750
900.113	19677
900.232	19639
900.352	19696
900.472	19537
900.591	19540
900.711	19548
900.83	19514
900.95	19616
901.069	19616
901.189	19369
901.308	19228
901.427	19099
901.546	19168
901.665	19190
901.784	19107
901.904	18924
902.023	18970
902.141	18722
902.26	18696
902.379	18642
902.498	18563
902.617	18642
902.735	18661
902.854	18566
902.973	18669
903.091	18311
903.21	18323
903.328	18361
903.446	18205
903.565	18213
903.683	18102
903.801	17988
903.919	18201
904.038	18060
904.156	17954
904.274	17904
904.392	17904
904.51	17794
904.627	17798
904.745	17927
904.863	17977
904.981	17672
905.098	17395
905.216	17532
905.334	17532
905.451	17657
905.569	17581
905.686	17573
905.803	17570
905.921	17337
906.038	17478
906.155	17398
906.272	17242
906.389	17326
906.506	17280
906.623	17048
906.74	17105
906.857	16949
906.974	17033
907.091	17166
907.208	17200
907.324	17079
907.441	16976
907.557	16908
907.674	16831
907.79	16774
907.907	16816
908.023	16934
908.139	16809
908.256	16656
908.372	16634
908.488	16645
908.604	16577
908.72	16535
908.836	16573
908.952	16485
909.068	16584
909.184	16618
909.3	16558
909.415	16694
909.531	16584
909.647	16402
909.762	16352
909.878	16238
909.993	16246
910.108	16261
910.224	16246
910.339	16238
910.454	16207
910.57	16128
910.685	16006
910.8	16310
910.915	16196
911.03	16074
911.145	15899
911.259	15907
911.374	15793
911.489	15873
911.604	15705
911.718	15675
911.833	15698
911.947	15553
912.062	15450
912.176	15618
912.291	15507
912.405	15572
912.519	15789
912.633	15835
912.748	15610
912.862	15671
912.976	15466
913.09	15256
913.204	15336
913.318	15481
913.431	15466
913.545	15431
913.659	15549
913.772	15313
913.886	15138
914	15252
914.113	15313
914.226	15420
914.34	15272
914.453	15085
914.566	15283
914.68	15100
914.793	15013
914.906	14918
915.019	14937
915.132	14887
915.245	14887
915.358	14906
915.47	14933
915.583	14876
915.696	14899
915.809	15013
915.921	14941
916.034	14769
916.146	14674
916.259	14746
916.371	14701
916.483	14765
916.595	14686
916.708	14697
916.82	14621
916.932	14682
917.044	14697
917.156	14632
917.268	14480
917.38	14480
917.491	14473
917.603	14560
917.715	14507
917.826	14712
917.938	14423
918.049	14339
918.161	14427
918.272	14613
918.384	14571
918.495	14545
918.606	14278
918.717	14271
918.828	14229
918.939	14271
919.05	14191
919.161	14202
919.272	14054
919.383	14130
919.494	14347
919.604	14488
919.715	14278
919.826	14145
919.936	14199
920.047	14252
920.157	14214
920.267	14503
920.378	14225
920.488	14187
920.598	14381
920.708	14575
920.818	14404
920.928	14309
921.038	14469
921.148	14514
921.258	14145
921.368	14100
921.477	14062
921.587	13982
921.697	13826
921.806	13955
921.916	13784
922.025	13719
922.134	13586
922.244	13582
922.353	13750
922.462	13525
922.571	13403
922.68	13289
922.789	13247
922.898	13354
923.007	13156
923.116	13255
923.224	13228
923.333	13225
923.442	13149
923.55	13088
923.659	13107
923.767	13103
923.876	13065
923.984	13133
924.092	12886
924.201	12928
924.309	12981
924.417	13088
924.525	12958
924.633	12977
924.741	13708
924.849	12753
924.956	12852
925.064	12856
925.172	12662
925.279	12700
925.387	12722
925.494	12681
925.602	12802
925.709	12764
925.816	12616
925.924	12760
926.031	12722
926.138	12654
926.245	12703
926.352	12555
926.459	12741
926.566	12707
926.673	12585
926.779	12521
926.886	12437
926.993	12338
927.099	12209
927.206	12224
927.312	12182
927.419	12308
927.525	12304
927.631	12235
927.737	12125
927.843	12194
927.95	11958
928.056	12133
928.162	12068
928.267	12148
928.373	12669
928.479	12068
928.585	11916
928.69	12095
928.796	12148
928.901	11889
929.007	11863
929.112	11965
929.218	11965
929.323	11828
929.428	11775
929.533	12053
929.638	11752
929.743	11802
929.848	11843
929.953	11805
930.058	11619
930.163	11611
930.267	11532
930.372	11672
930.477	11524
930.581	11680
930.685	11573
930.79	11444
930.894	11490
930.998	11372
931.103	11520
931.207	11143
931.311	11185
931.415	11037
931.519	10839
931.623	10896
