Data from test_V78500241_2665.txt Node
Date: Fri Mar 25 15:28:25 CST 2022
User: usil
Spectrometer: V785-0024
Trigger mode: 0
Integration Time (sec): 4.000000E-1
Scans to average: 1
Nonlinearity correction enabled: false
Boxcar width: 0
Storing dark spectrum: false
XAxis mode: Wavelengths
Number of Pixels in Spectrum: 1024
>>>>>Begin Spectral Data<<<<<
801.071	26902
801.214	26940
801.356	26815
801.499	26644
801.641	26564
801.783	26670
801.926	26724
802.068	26552
802.211	26579
802.353	26473
802.496	26142
802.638	26229
802.78	26107
802.923	26058
803.065	26062
803.208	26164
803.35	26221
803.492	26259
803.635	26332
803.777	26313
803.919	26298
804.061	26621
804.204	26507
804.346	26324
804.488	26244
804.63	26252
804.773	26199
804.915	26377
805.057	26492
805.199	26305
805.341	26237
805.483	26541
805.626	26488
805.768	26362
805.91	26492
806.052	26499
806.194	26374
806.336	26587
806.478	26332
806.62	26549
806.762	26507
806.904	26613
807.046	26845
807.188	26849
807.33	26921
807.472	26891
807.614	26762
807.756	26895
807.898	26754
808.04	26625
808.182	26708
808.324	26689
808.465	26845
808.607	26910
808.749	26982
808.891	27146
809.033	27279
809.174	27047
809.316	27005
809.458	26933
809.6	26952
809.741	27104
809.883	27138
810.025	27359
810.166	27431
810.308	27325
810.45	27351
810.591	27241
810.733	26979
810.875	26982
811.016	27017
811.158	27028
811.299	27104
811.441	27184
811.582	27188
811.724	27055
811.865	27070
812.007	27112
812.148	26948
812.29	26963
812.431	27294
812.573	27226
812.714	27427
812.855	27477
812.997	27595
813.138	27736
813.279	27637
813.421	27431
813.562	27412
813.703	27241
813.845	27192
813.986	26982
814.127	26739
814.268	26746
814.41	26659
814.551	26682
814.692	26815
814.833	26800
814.974	26705
815.115	26727
815.256	26522
815.397	26602
815.539	26370
815.68	26366
815.821	26377
815.962	26473
816.103	26370
816.244	26450
816.385	26309
816.526	26210
816.666	25909
816.807	25959
816.948	25921
817.089	26020
817.23	26046
817.371	25902
817.512	25883
817.653	25841
817.793	25818
817.934	25944
818.075	25993
818.216	25966
818.356	25890
818.497	25643
818.638	25609
818.778	25693
818.919	25613
819.06	25723
819.2	25772
819.341	25757
819.481	25936
819.622	25921
819.762	26233
819.903	26130
820.043	26065
820.184	25997
820.324	25997
820.465	26077
820.605	25978
820.746	25970
820.886	25928
821.026	25959
821.167	25898
821.307	26046
821.447	25818
821.588	25727
821.728	25704
821.868	25449
822.008	25403
822.149	25354
822.289	25426
822.429	25168
822.569	24894
822.709	25114
822.849	24943
822.99	24935
823.13	24992
823.27	24840
823.41	24585
823.55	24578
823.69	24673
823.83	24753
823.97	24719
824.11	24544
824.25	24486
824.389	24475
824.529	24452
824.669	24456
824.809	24601
824.949	24563
825.089	24563
825.228	24593
825.368	24395
825.508	24330
825.648	24426
825.787	24460
825.927	24517
826.067	24319
826.206	24399
826.346	24369
826.485	24483
826.625	24437
826.765	24422
826.904	24429
827.044	24102
827.183	24224
827.323	24136
827.462	24178
827.601	24049
827.741	24064
827.88	24057
828.02	24049
828.159	24030
828.298	24057
828.437	24155
828.577	24045
828.716	24311
828.855	24110
828.994	23794
829.134	23832
829.273	23832
829.412	23714
829.551	23634
829.69	23764
829.829	23718
829.968	23980
830.107	23859
830.246	23790
830.385	23691
830.524	23748
830.663	23665
830.802	23554
830.941	23478
831.08	23452
831.219	23554
831.357	23520
831.496	23611
831.635	23433
831.774	23326
831.913	23185
832.051	23200
832.19	23121
832.329	23303
832.467	23052
832.606	23022
832.744	23044
832.883	23083
833.022	23136
833.16	23086
833.299	23174
833.437	23090
833.576	23174
833.714	23208
833.852	23140
833.991	23231
834.129	23261
834.267	23269
834.406	23197
834.544	23197
834.682	23208
834.821	23121
834.959	23414
835.097	23098
835.235	23174
835.373	23083
835.511	23193
835.65	23022
835.788	22976
835.926	22809
836.064	22755
836.202	22847
836.34	23010
836.478	23086
836.615	22957
836.753	23033
836.891	23071
837.029	23166
837.167	22991
837.305	22862
837.443	22850
837.58	22911
837.718	23037
837.856	23025
837.993	22869
838.131	22809
838.269	22733
838.406	22759
838.544	22702
838.681	22561
838.819	22512
838.956	22329
839.094	22436
839.231	22325
839.369	22649
839.506	22733
839.643	22675
839.781	22398
839.918	22356
840.055	22481
840.193	22280
840.33	22226
840.467	22348
840.604	22360
840.742	22504
840.879	22135
841.016	22257
841.153	22162
841.29	22398
841.427	22204
841.564	22333
841.701	22287
841.838	22158
841.975	22185
842.112	22238
842.249	22329
842.385	22181
842.522	22215
842.659	22188
842.796	21991
842.933	22101
843.069	22032
843.206	22048
843.343	22025
843.479	22109
843.616	21960
843.752	21831
843.889	21911
844.025	21968
844.162	21915
844.298	21956
844.435	21732
844.571	21804
844.708	21774
844.844	22002
844.98	21960
845.117	21762
845.253	21831
845.389	21682
845.525	21778
845.661	21656
845.798	21511
845.934	21580
846.07	21587
846.206	21549
846.342	21591
846.478	21629
846.614	21389
846.75	21226
846.886	21222
847.022	21420
847.158	21374
847.294	21340
847.429	21291
847.565	21306
847.701	21496
847.837	21108
847.972	21085
848.108	21104
848.244	21066
848.379	20895
848.515	20902
848.65	20845
848.786	20990
848.921	20883
849.057	20971
849.192	20842
849.328	20982
849.463	20899
849.598	20902
849.734	20746
849.869	20781
850.004	20659
850.14	20648
850.275	20686
850.41	20644
850.545	20598
850.68	20598
850.815	20701
850.95	20644
851.085	20868
851.22	20849
851.355	20754
851.49	20705
851.625	20579
851.76	20648
851.895	20590
852.03	20648
852.165	20773
852.299	20731
852.434	20750
852.569	20640
852.703	20629
852.838	20625
852.973	20689
853.107	20765
853.242	20568
853.376	20450
853.511	20355
853.645	20484
853.78	20530
853.914	20564
854.048	20385
854.183	20499
854.317	20450
854.451	20640
854.585	20419
854.72	20465
854.854	20537
854.988	20442
855.122	20480
855.256	20484
855.39	20511
855.524	20670
855.658	20545
855.792	20431
855.926	20568
856.06	20552
856.194	20613
856.327	20393
856.461	20328
856.595	20256
856.729	20488
856.862	20606
856.996	20571
857.13	20621
857.263	20560
857.397	20583
857.53	20434
857.664	20450
857.797	20518
857.931	20530
858.064	20511
858.197	20629
858.331	20465
858.464	20526
858.597	20366
858.731	20438
858.864	20427
858.997	20545
859.13	20503
859.263	20518
859.396	20499
859.529	20454
859.662	20537
859.795	20396
859.928	20518
860.061	20560
860.194	20583
860.327	20488
860.46	20511
860.592	20629
860.725	20590
860.858	20427
860.99	20442
861.123	20450
861.256	20358
861.388	20488
861.521	21077
861.653	20347
861.786	20263
861.918	20324
862.05	20438
862.183	20442
862.315	20454
862.447	20476
862.58	20412
862.712	20282
862.844	20259
862.976	20278
863.108	20157
863.24	20686
863.372	20153
863.504	20168
863.636	20172
863.768	20172
863.9	20172
864.032	20115
864.164	20183
864.296	20187
864.428	20438
864.559	20267
864.691	20366
864.823	20149
864.954	20149
865.086	20206
865.217	20100
865.349	20065
865.48	20024
865.612	20077
865.743	20130
865.875	20157
866.006	20069
866.137	20096
866.269	20081
866.4	20115
866.531	20020
866.662	20031
866.793	19925
866.924	20096
867.055	20084
867.186	20115
867.317	19951
867.448	19959
867.579	20016
867.71	19986
867.841	19993
867.972	20092
868.103	19906
868.233	20130
868.364	19978
868.495	20130
868.625	20305
868.756	20412
868.886	20202
869.017	20415
869.147	20442
869.278	20328
869.408	20298
869.539	20271
869.669	20309
869.799	20396
869.929	20328
870.06	20400
870.19	20568
870.32	20488
870.45	20625
870.58	20587
870.71	20781
870.84	20785
870.97	20636
871.1	20731
871.23	20815
871.36	20956
871.489	20727
871.619	20804
871.749	20834
871.879	20994
872.008	21039
872.138	20933
872.267	20895
872.397	20804
872.526	20667
872.656	20727
872.785	20708
872.915	20944
873.044	20887
873.173	20883
873.303	20918
873.432	20944
873.561	21039
873.69	20887
873.819	20910
873.948	20895
874.077	20986
874.206	20864
874.335	20887
874.464	21001
874.593	21173
874.722	21100
874.851	21203
874.979	21294
875.108	21203
875.237	21146
875.365	21043
875.494	21184
875.623	21199
875.751	21157
875.88	21203
876.008	21351
876.136	21344
876.265	21538
876.393	21622
876.521	21675
876.65	21591
876.778	21580
876.906	21485
877.034	21538
877.162	21454
877.29	21576
877.418	21629
877.546	21553
877.674	21580
877.802	21515
877.93	21454
878.058	21504
878.185	21393
878.313	21485
878.441	21633
878.568	21458
878.696	21428
878.824	21523
878.951	21717
879.079	21576
879.206	21739
879.333	21694
879.461	21545
879.588	21656
879.715	21682
879.842	21816
879.97	21587
880.097	21348
880.224	21412
880.351	21515
880.478	21370
880.605	21405
880.732	21306
880.859	21542
880.986	21367
881.112	21428
881.239	21241
881.366	21127
881.493	20975
881.619	20914
881.746	20982
881.872	20944
881.999	20929
882.125	20842
882.252	20891
882.378	20933
882.505	21047
882.631	20788
882.757	20708
882.883	20716
883.01	20663
883.136	20648
883.262	20465
883.388	20564
883.514	20583
883.64	20609
883.766	20606
883.892	20461
884.018	20423
884.143	20609
884.269	20579
884.395	20294
884.52	20282
884.646	20339
884.772	20313
884.897	20183
885.023	20396
885.148	20594
885.274	20374
885.399	20568
885.524	20142
885.65	20161
885.775	20374
885.9	20374
886.025	20339
886.15	20358
886.275	20180
886.4	20244
886.525	20244
886.65	20305
886.775	20275
886.9	20374
887.025	20503
887.149	20278
887.274	20122
887.399	20119
887.523	19997
887.648	20065
887.773	19928
887.897	20077
888.021	20084
888.146	19906
888.27	20183
888.395	20195
888.519	20149
888.643	20122
888.767	20191
888.891	19921
889.015	19894
889.139	19951
889.263	19887
889.387	20081
889.511	20077
889.635	20027
889.759	19852
889.883	19852
890.006	19826
890.13	20012
890.254	19868
890.377	19803
890.501	19594
890.624	19616
890.748	19708
890.871	19521
890.995	19457
891.118	19445
891.241	19506
891.364	19506
891.488	19556
891.611	19434
891.734	19658
891.857	19480
891.98	19540
892.103	19346
892.226	19460
892.349	19403
892.471	19228
892.594	19445
892.717	19419
892.839	19339
892.962	19392
893.085	19369
893.207	19453
893.33	19129
893.452	19331
893.575	19335
893.697	19320
893.819	19430
893.941	19628
894.064	19495
894.186	19270
894.308	19331
894.43	19525
894.552	19518
894.674	19552
894.796	19358
894.918	19327
895.04	19293
895.161	19403
895.283	19312
895.405	19354
895.526	19384
895.648	19358
895.769	19445
895.891	19449
896.012	19392
896.134	19457
896.255	19384
896.376	19289
896.498	19369
896.619	19362
896.74	19381
896.861	19445
896.982	19719
897.103	19932
897.224	19586
897.345	19742
897.466	19594
897.587	19616
897.708	19788
897.828	19738
897.949	19639
898.07	19578
898.19	19419
898.311	19704
898.431	19499
898.552	19666
898.672	19681
898.792	19780
898.913	19605
899.033	19491
899.153	19434
899.273	19274
899.393	19316
899.513	19430
899.633	19457
899.753	19362
899.873	19339
899.993	19331
900.113	19297
900.232	19403
900.352	19221
900.472	19107
900.591	19194
900.711	19206
900.83	19099
900.95	19179
901.069	19289
901.189	19042
901.308	18875
901.427	18798
901.546	18772
901.665	18852
901.784	18848
901.904	18627
902.023	18502
902.141	18369
902.26	18285
902.379	18403
902.498	18213
902.617	18213
902.735	18262
902.854	18414
902.973	18224
903.091	17897
903.21	17999
903.328	17973
903.446	17870
903.565	17809
903.683	17794
903.801	17665
903.919	17767
904.038	17726
904.156	17520
904.274	17608
904.392	17657
904.51	17535
904.627	17478
904.745	17634
904.863	17509
904.981	17341
905.098	17178
905.216	17227
905.334	17216
905.451	17246
905.569	17083
905.686	17204
905.803	17197
905.921	17098
906.038	17098
906.155	16972
906.272	16915
906.389	16900
906.506	16687
906.623	16816
906.74	16740
906.857	16668
906.974	16656
907.091	16877
907.208	16854
907.324	16786
907.441	16679
907.557	16500
907.674	16451
907.79	16443
907.907	16371
908.023	16508
908.139	16531
908.256	16356
908.372	16325
908.488	16306
908.604	16272
908.72	16185
908.836	16200
908.952	16181
909.068	16265
909.184	16207
909.3	16249
909.415	16211
909.531	16211
909.647	15922
909.762	15911
909.878	15857
909.993	15876
910.108	15888
910.224	15831
910.339	15953
910.454	15945
910.57	15724
910.685	15648
910.8	15915
910.915	15812
911.03	15694
911.145	15580
911.259	15485
911.374	15469
911.489	15458
911.604	15450
911.718	15313
911.833	15272
911.947	15233
912.062	15169
912.176	15313
912.291	15393
912.405	15317
912.519	15545
912.633	15542
912.748	15336
912.862	15294
912.976	15093
913.09	14982
913.204	14998
913.318	15024
913.431	15176
913.545	15131
913.659	15245
913.772	15085
913.886	15005
914	14902
914.113	14998
914.226	14998
914.34	14937
914.453	14792
914.566	15001
914.68	14800
914.793	14804
914.906	14503
915.019	14434
915.132	14457
915.245	14495
915.358	14484
915.47	14507
915.583	14507
915.696	14564
915.809	14613
915.921	14689
916.034	14465
916.146	14469
916.259	14480
916.371	14530
916.483	14454
916.595	14362
916.708	14305
916.82	14381
916.932	14313
917.044	14298
917.156	14282
917.268	14202
917.38	14271
917.491	14081
917.603	14229
917.715	14336
917.826	14324
917.938	14153
918.049	14050
918.161	14176
918.272	14298
918.384	14305
918.495	14195
918.606	14050
918.717	13906
918.828	13925
918.939	14031
919.05	13909
919.161	13944
919.272	13761
919.383	13856
919.494	14062
919.604	14103
919.715	13936
919.826	13757
919.936	13932
920.047	14031
920.157	13890
920.267	14123
920.378	13925
920.488	13898
920.598	14103
920.708	14195
920.818	14092
920.928	14031
921.038	14271
921.148	14244
921.258	13947
921.368	13715
921.477	13807
921.587	13708
921.697	13601
921.806	13727
921.916	13578
922.025	13426
922.134	13365
922.244	13312
922.353	13384
922.462	13194
922.571	13149
922.68	13065
922.789	12977
922.898	13065
923.007	12973
923.116	13065
923.224	12947
923.333	13027
923.442	12863
923.55	12920
923.659	12829
923.767	12966
923.876	12768
923.984	12844
924.092	12684
924.201	12802
924.309	12703
924.417	12779
924.525	12715
924.633	12707
924.741	13689
924.849	12566
924.956	12688
925.064	12502
925.172	12467
925.279	12441
925.387	12448
925.494	12422
925.602	12597
925.709	12483
925.816	12338
925.924	12486
926.031	12521
926.138	12418
926.245	12395
926.352	12315
926.459	12517
926.566	12452
926.673	12319
926.779	12167
926.886	12197
926.993	12041
927.099	11999
927.206	11965
927.312	11851
927.419	12083
927.525	11923
927.631	12072
927.737	11977
927.843	11870
927.95	11870
928.056	11851
928.162	11863
928.267	11889
928.373	12395
928.479	11965
928.585	11707
928.69	11790
928.796	11866
928.901	11786
929.007	11581
929.112	11779
929.218	11691
929.323	11608
929.428	11570
929.533	11672
929.638	11528
929.743	11600
929.848	11592
929.953	11634
930.058	11436
930.163	11242
930.267	11334
930.372	11478
930.477	11250
930.581	11417
930.685	11250
930.79	11216
930.894	11223
930.998	11185
931.103	11242
931.207	10915
931.311	10881
931.415	10706
931.519	10660
931.623	10588
