Data from test_V78500241_1208.txt Node
Date: Fri Mar 25 15:18:16 CST 2022
User: usil
Spectrometer: V785-0024
Trigger mode: 0
Integration Time (sec): 4.000000E-1
Scans to average: 1
Nonlinearity correction enabled: false
Boxcar width: 0
Storing dark spectrum: false
XAxis mode: Wavelengths
Number of Pixels in Spectrum: 1024
>>>>>Begin Spectral Data<<<<<
801.071	28150
801.214	28063
801.356	27865
801.499	27751
801.641	27679
801.783	27675
801.926	27755
802.068	27774
802.211	27675
802.353	27671
802.496	27408
802.638	27294
802.78	27355
802.923	27443
803.065	27211
803.208	27317
803.35	27374
803.492	27473
803.635	27549
803.777	27504
803.919	27431
804.061	27918
804.204	27682
804.346	27526
804.488	27450
804.63	27568
804.773	27477
804.915	27606
805.057	27675
805.199	27705
805.341	27797
805.483	27850
805.626	27793
805.768	27648
805.91	27785
806.052	27724
806.194	27686
806.336	27876
806.478	27953
806.62	27713
806.762	27892
806.904	28055
807.046	28147
807.188	28154
807.33	28177
807.472	28116
807.614	28105
807.756	28017
807.898	28021
808.04	27968
808.182	27998
808.324	28063
808.465	28074
808.607	28139
808.749	28493
808.891	28630
809.033	28550
809.174	28523
809.316	28481
809.458	28405
809.6	28314
809.741	28618
809.883	28588
810.025	28733
810.166	28656
810.308	28721
810.45	28618
810.591	28626
810.733	28375
810.875	28500
811.016	28230
811.158	28333
811.299	28447
811.441	28443
811.582	28603
811.724	28497
811.865	28363
812.007	28344
812.148	28417
812.29	28485
812.431	28584
812.573	28782
812.714	28858
812.855	28862
812.997	28999
813.138	29204
813.279	29083
813.421	28976
813.562	28866
813.703	28698
813.845	28618
813.986	28333
814.127	28238
814.268	28204
814.41	28188
814.551	28177
814.692	28150
814.833	28112
814.974	28021
815.115	28120
815.256	28067
815.397	27994
815.539	28070
815.68	27953
815.821	27846
815.962	27876
816.103	27930
816.244	27755
816.385	27701
816.526	27698
816.666	27629
816.807	27488
816.948	27606
817.089	27488
817.23	27431
817.371	27439
817.512	27336
817.653	27386
817.793	27416
817.934	27424
818.075	27545
818.216	27420
818.356	27397
818.497	27336
818.638	27188
818.778	27192
818.919	27279
819.06	27203
819.2	27283
819.341	27454
819.481	27313
819.622	27618
819.762	27816
819.903	27641
820.043	27663
820.184	27622
820.324	27511
820.465	27538
820.605	27542
820.746	27530
820.886	27363
821.026	27553
821.167	27507
821.307	27473
821.447	27408
821.588	27447
821.728	27222
821.868	27154
822.008	26975
822.149	26800
822.289	27032
822.429	26621
822.569	26507
822.709	26518
822.849	26530
822.99	26499
823.13	26370
823.27	26336
823.41	26122
823.55	26153
823.69	26317
823.83	26237
823.97	26225
824.11	26122
824.25	26183
824.389	26027
824.529	26168
824.669	26088
824.809	26164
824.949	26122
825.089	26020
825.228	26149
825.368	26020
825.508	26054
825.648	25997
825.787	25894
825.927	26081
826.067	25951
826.206	25913
826.346	25894
826.485	25986
826.625	25974
826.765	26050
826.904	26119
827.044	25727
827.183	25700
827.323	25753
827.462	25746
827.601	25548
827.741	25616
827.88	25685
828.02	25483
828.159	25571
828.298	25784
828.437	25693
828.577	25521
828.716	25700
828.855	25712
828.994	25381
829.134	25415
829.273	25381
829.412	25343
829.551	25278
829.69	25343
829.829	25400
829.968	25354
830.107	25449
830.246	25373
830.385	25331
830.524	25396
830.663	25209
830.802	25232
830.941	24916
831.08	24947
831.219	25065
831.357	25042
831.496	25244
831.635	25000
831.774	24897
831.913	24802
832.051	24840
832.19	24894
832.329	24840
832.467	24574
832.606	24665
832.744	24589
832.883	24669
833.022	24589
833.16	24635
833.299	24669
833.437	24806
833.576	24837
833.714	24665
833.852	24825
833.991	24810
834.129	24825
834.267	24768
834.406	24753
834.544	24844
834.682	24692
834.821	24661
834.959	24935
835.097	24658
835.235	24692
835.373	24730
835.511	24707
835.65	24639
835.788	24654
835.926	24448
836.064	24232
836.202	24361
836.34	24566
836.478	24380
836.615	24429
836.753	24502
836.891	24711
837.029	24650
837.167	24452
837.305	24502
837.443	24467
837.58	24372
837.718	24528
837.856	24266
837.993	24486
838.131	24399
838.269	24235
838.406	24361
838.544	24174
838.681	24038
838.819	23965
838.956	23920
839.094	23885
839.231	23942
839.369	24060
839.506	24270
839.643	24171
839.781	23931
839.918	23798
840.055	23828
840.193	23946
840.33	23684
840.467	23851
840.604	23840
840.742	23916
840.879	23634
841.016	23737
841.153	23699
841.29	23889
841.427	23809
841.564	23923
841.701	23786
841.838	23786
841.975	23676
842.112	23573
842.249	23642
842.385	23512
842.522	23767
842.659	23573
842.796	23543
842.933	23543
843.069	23520
843.206	23547
843.343	23528
843.479	23596
843.616	23467
843.752	23334
843.889	23425
844.025	23471
844.162	23429
844.298	23360
844.435	23330
844.571	23311
844.708	23277
844.844	23509
844.98	23471
845.117	23398
845.253	23292
845.389	23094
845.525	23231
845.661	23117
845.798	23003
845.934	23090
846.07	23094
846.206	23029
846.342	23174
846.478	23052
846.614	22812
846.75	22691
846.886	22717
847.022	22869
847.158	22805
847.294	22713
847.429	22812
847.565	22626
847.701	22919
847.837	22611
847.972	22596
848.108	22535
848.244	22580
848.379	22417
848.515	22474
848.65	22375
848.786	22398
848.921	22402
849.057	22569
849.192	22402
849.328	22443
849.463	22428
849.598	22333
849.734	22276
849.869	22185
850.004	22238
850.14	22173
850.275	22265
850.41	22036
850.545	22154
850.68	22158
850.815	22253
850.95	22124
851.085	22261
851.22	22268
851.355	22261
851.49	22147
851.625	22109
851.76	21941
851.895	22067
852.03	22090
852.165	22181
852.299	22177
852.434	22318
852.569	22150
852.703	22287
852.838	22097
852.973	22257
853.107	22226
853.242	22078
853.376	21892
853.511	21793
853.645	21983
853.78	22166
853.914	22029
854.048	22006
854.183	21884
854.317	21968
854.451	22226
854.585	21960
854.72	21907
854.854	22036
854.988	21903
855.122	22109
855.256	21751
855.39	21930
855.524	21934
855.658	22128
855.792	21960
855.926	21937
856.06	21884
856.194	22063
856.327	21911
856.461	21880
856.595	21983
856.729	21956
856.862	22150
856.996	21987
857.13	22147
857.263	22067
857.397	21983
857.53	21987
857.664	22017
857.797	21945
857.931	22112
858.064	21850
858.197	22074
858.331	21991
858.464	21869
858.597	21812
858.731	21850
858.864	21739
858.997	21918
859.13	21873
859.263	22051
859.396	21998
859.529	21991
859.662	21918
859.795	21831
859.928	21953
860.061	22093
860.194	22048
860.327	22010
860.46	21918
860.592	22006
860.725	22051
860.858	22010
860.99	21983
861.123	21888
861.256	21994
861.388	22006
861.521	22771
861.653	21873
861.786	21595
861.918	21789
862.05	21903
862.183	21816
862.315	21819
862.447	22032
862.58	21842
862.712	21656
862.844	21682
862.976	21698
863.108	21766
863.24	22055
863.372	21625
863.504	21686
863.636	21614
863.768	21629
863.9	21720
864.032	21542
864.164	21580
864.296	21595
864.428	21686
864.559	21736
864.691	21759
864.823	21709
864.954	21679
865.086	21587
865.217	21652
865.349	21420
865.48	21545
865.612	21667
865.743	21507
865.875	21603
866.006	21515
866.137	21553
866.269	21504
866.4	21515
866.531	21606
866.662	21439
866.793	21386
866.924	21534
867.055	21473
867.186	21367
867.317	21523
867.448	21370
867.579	21462
867.71	21496
867.841	21393
867.972	21477
868.103	21553
868.233	21534
868.364	21500
868.495	21469
868.625	21701
868.756	21743
868.886	21564
869.017	21785
869.147	21831
869.278	21876
869.408	21808
869.539	21667
869.669	21831
869.799	21747
869.929	21785
870.06	21800
870.19	21964
870.32	22021
870.45	22048
870.58	22086
870.71	22223
870.84	22173
870.97	22143
871.1	22192
871.23	22215
871.36	22291
871.489	22204
871.619	22196
871.749	22322
871.879	22379
872.008	22371
872.138	22200
872.267	22280
872.397	22143
872.526	22067
872.656	22177
872.785	22112
872.915	22272
873.044	22314
873.173	22337
873.303	22318
873.432	22371
873.561	22371
873.69	22379
873.819	22314
873.948	22485
874.077	22390
874.206	22287
874.335	22337
874.464	22333
874.593	22542
874.722	22402
874.851	22474
874.979	22504
875.108	22550
875.237	22569
875.365	22348
875.494	22561
875.623	22691
875.751	22516
875.88	22584
876.008	22691
876.136	22656
876.265	22862
876.393	23071
876.521	23056
876.65	23094
876.778	22892
876.906	23010
877.034	22858
877.162	22934
877.29	22889
877.418	23014
877.546	22889
877.674	22752
877.802	22927
877.93	22961
878.058	22904
878.185	22694
878.313	22816
878.441	22904
878.568	22812
878.696	22858
878.824	22968
878.951	22942
879.079	23010
879.206	23094
879.333	22999
879.461	22938
879.588	23018
879.715	23067
879.842	23193
879.97	22949
880.097	22668
880.224	22782
880.351	22694
880.478	22748
880.605	22523
880.732	22755
880.859	22881
880.986	22835
881.112	22748
881.239	22596
881.366	22447
881.493	22284
881.619	22299
881.746	22261
881.872	22276
881.999	22322
882.125	22204
882.252	22367
882.378	22253
882.505	22360
882.631	21968
882.757	21968
882.883	22044
883.01	22017
883.136	21857
883.262	21793
883.388	21766
883.514	22059
883.64	21930
883.766	21873
883.892	21717
884.018	21720
884.143	21800
884.269	22029
884.395	21629
884.52	21526
884.646	21633
884.772	21580
884.897	21481
885.023	21622
885.148	21812
885.274	21770
885.399	21660
885.524	21610
885.65	21526
885.775	21625
885.9	21488
886.025	21625
886.15	21686
886.275	21564
886.4	21443
886.525	21587
886.65	21477
886.775	21473
886.9	21606
887.025	21743
887.149	21534
887.274	21466
887.399	21359
887.523	21386
887.648	21397
887.773	21298
887.897	21393
888.021	21424
888.146	21363
888.27	21428
888.395	21412
888.519	21374
888.643	21294
888.767	21515
888.891	21325
889.015	21123
889.139	21310
889.263	21089
889.387	21233
889.511	21348
889.635	21275
889.759	21131
889.883	21089
890.006	21127
890.13	21199
890.254	20994
890.377	21039
890.501	20891
890.624	20887
890.748	20925
890.871	20849
890.995	20670
891.118	20689
891.241	20655
891.364	20602
891.488	20777
891.611	20746
891.734	20670
891.857	20807
891.98	20705
892.103	20773
892.226	20667
892.349	20621
892.471	20537
892.594	20583
892.717	20777
892.839	20621
892.962	20636
893.085	20659
893.207	20689
893.33	20503
893.452	20492
893.575	20602
893.697	20701
893.819	20735
893.941	20762
894.064	20762
894.186	20564
894.308	20606
894.43	20625
894.552	20754
894.674	20640
894.796	20530
894.918	20583
895.04	20602
895.161	20625
895.283	20560
895.405	20636
895.526	20598
895.648	20465
895.769	20530
895.891	20644
896.012	20682
896.134	20564
896.255	20545
896.376	20552
896.498	20579
896.619	20632
896.74	20769
896.861	20720
896.982	20921
897.103	20963
897.224	20956
897.345	20785
897.466	20712
897.587	20834
897.708	20899
897.828	20811
897.949	20640
898.07	20590
898.19	20678
898.311	20800
898.431	20617
898.552	20834
898.672	20762
898.792	20826
898.913	20777
899.033	20609
899.153	20678
899.273	20476
899.393	20571
899.513	20564
899.633	20629
899.753	20514
899.873	20389
899.993	20636
900.113	20499
900.232	20522
900.352	20564
900.472	20389
900.591	20263
900.711	20393
900.83	20149
900.95	20469
901.069	20423
901.189	20077
901.308	19909
901.427	19841
901.546	19841
901.665	19841
901.784	19921
901.904	19708
902.023	19655
902.141	19460
902.26	19441
902.379	19426
902.498	19331
902.617	19365
902.735	19460
902.854	19335
902.973	19289
903.091	19175
903.21	19095
903.328	19053
903.446	18875
903.565	18981
903.683	18810
903.801	18753
903.919	18871
904.038	18814
904.156	18608
904.274	18726
904.392	18616
904.51	18528
904.627	18566
904.745	18566
904.863	18783
904.981	18479
905.098	18426
905.216	18448
905.334	18213
905.451	18213
905.569	18232
905.686	18323
905.803	18258
905.921	18030
906.038	18114
906.155	18072
906.272	17965
906.389	18011
906.506	17870
906.623	17992
906.74	17904
906.857	17741
906.974	17649
907.091	17870
907.208	17897
907.324	17752
907.441	17615
907.557	17455
907.674	17535
907.79	17383
907.907	17524
908.023	17535
908.139	17505
908.256	17509
908.372	17478
908.488	17334
908.604	17273
908.72	17170
908.836	17231
908.952	17311
909.068	17185
909.184	17395
909.3	17391
909.415	17204
909.531	17155
909.647	17056
909.762	17025
909.878	17018
909.993	16915
910.108	16972
910.224	16869
910.339	16965
910.454	16748
910.57	16778
910.685	16698
910.8	16908
910.915	16828
911.03	16786
911.145	16584
911.259	16466
911.374	16607
911.489	16424
911.604	16440
911.718	16314
911.833	16204
911.947	16200
912.062	16166
912.176	16226
912.291	16337
912.405	16253
912.519	16405
912.633	16303
912.748	16318
912.862	16280
912.976	16067
913.09	16109
913.204	15968
913.318	16097
913.431	16306
913.545	16074
913.659	16284
913.772	16044
913.886	15953
914	15934
914.113	15907
914.226	15983
914.34	15945
914.453	15762
914.566	15895
914.68	15766
914.793	15599
914.906	15629
915.019	15534
915.132	15450
915.245	15511
915.358	15511
915.47	15462
915.583	15595
915.696	15469
915.809	15557
915.921	15515
916.034	15412
916.146	15370
916.259	15313
916.371	15466
916.483	15454
916.595	15233
916.708	15245
916.82	15325
916.932	15325
917.044	15336
917.156	15252
917.268	15123
917.38	15188
917.491	15062
917.603	15127
917.715	15127
917.826	15317
917.938	15005
918.049	14906
918.161	15108
918.272	15173
918.384	15150
918.495	15043
918.606	14902
918.717	14845
918.828	14944
918.939	14845
919.05	14845
919.161	14842
919.272	14640
919.383	14701
919.494	14971
919.604	15081
919.715	14895
919.826	14743
919.936	14868
920.047	14918
920.157	14861
920.267	15070
920.378	14743
920.488	14811
920.598	14937
920.708	15093
920.818	14864
920.928	14918
921.038	15127
921.148	15074
921.258	14758
921.368	14705
921.477	14587
921.587	14575
921.697	14431
921.806	14590
921.916	14454
922.025	14252
922.134	14195
922.244	14164
922.353	14290
922.462	14084
922.571	13947
922.68	13940
922.789	13845
922.898	13860
923.007	13780
923.116	13951
923.224	13807
923.333	13772
923.442	13685
923.55	13696
923.659	13719
923.767	13784
923.876	13647
923.984	13757
924.092	13540
924.201	13681
924.309	13518
924.417	13563
924.525	13537
924.633	13571
924.741	14351
924.849	13369
924.956	13529
925.064	13373
925.172	13282
925.279	13304
925.387	13343
925.494	13270
925.602	13426
925.709	13384
925.816	13126
925.924	13168
926.031	13274
926.138	13171
926.245	13282
926.352	13137
926.459	13247
926.566	13297
926.673	13179
926.779	13069
926.886	12977
926.993	12878
927.099	12798
927.206	12814
927.312	12745
927.419	12913
927.525	12772
927.631	12817
927.737	12768
927.843	12642
927.95	12578
928.056	12574
928.162	12616
928.267	12639
928.373	13156
928.479	12681
928.585	12414
928.69	12540
928.796	12631
928.901	12490
929.007	12407
929.112	12540
929.218	12464
929.323	12391
929.428	12308
929.533	12426
929.638	12304
929.743	12315
929.848	12342
929.953	12338
930.058	12171
930.163	12098
930.267	12068
930.372	12201
930.477	12060
930.581	12235
930.685	12117
930.79	11931
930.894	11935
930.998	11885
931.103	12011
931.207	11691
931.311	11539
931.415	11478
931.519	11254
931.623	11277
