Data from test_V78500241_65.txt Node
Date: Fri Mar 25 15:10:18 CST 2022
User: usil
Spectrometer: V785-0024
Trigger mode: 0
Integration Time (sec): 4.000000E-1
Scans to average: 1
Nonlinearity correction enabled: false
Boxcar width: 0
Storing dark spectrum: false
XAxis mode: Wavelengths
Number of Pixels in Spectrum: 1024
>>>>>Begin Spectral Data<<<<<
801.071	28721
801.214	28755
801.356	28481
801.499	28375
801.641	28249
801.783	28070
801.926	28226
802.068	28188
802.211	28082
802.353	28124
802.496	27857
802.638	27804
802.78	27694
802.923	27724
803.065	27701
803.208	27625
803.35	27656
803.492	27850
803.635	27911
803.777	27842
803.919	28032
804.061	28253
804.204	27937
804.346	27842
804.488	27831
804.63	27899
804.773	27892
804.915	27831
805.057	27975
805.199	27717
805.341	27991
805.483	27956
805.626	27899
805.768	27774
805.91	28013
806.052	28032
806.194	27846
806.336	28215
806.478	27972
806.62	28044
806.762	28051
806.904	28101
807.046	28242
807.188	28428
807.33	28405
807.472	28440
807.614	28360
807.756	28325
807.898	28055
808.04	28154
808.182	28207
808.324	28124
808.465	28105
808.607	28246
808.749	28382
808.891	28675
809.033	28535
809.174	28470
809.316	28538
809.458	28565
809.6	28314
809.741	28405
809.883	28538
810.025	28596
810.166	28694
810.308	28607
810.45	28596
810.591	28588
810.733	28401
810.875	28367
811.016	28280
811.158	28295
811.299	28276
811.441	28546
811.582	28569
811.724	28280
811.865	28291
812.007	28386
812.148	28451
812.29	28417
812.431	28615
812.573	28702
812.714	28782
812.855	28824
812.997	28946
813.138	29083
813.279	28938
813.421	28869
813.562	28778
813.703	28675
813.845	28538
813.986	28322
814.127	28219
814.268	28086
814.41	28070
814.551	28010
814.692	28036
814.833	27914
814.974	27991
815.115	28002
815.256	27831
815.397	27911
815.539	27759
815.68	27736
815.821	27770
815.962	27720
816.103	27679
816.244	27641
816.385	27462
816.526	27538
816.666	27313
816.807	27252
816.948	27146
817.089	27207
817.23	27104
817.371	27051
817.512	27055
817.653	27195
817.793	27005
817.934	27108
818.075	27100
818.216	27043
818.356	27119
818.497	26940
818.638	26838
818.778	26785
818.919	26963
819.06	26979
819.2	26990
819.341	27089
819.481	27043
819.622	27165
819.762	27401
819.903	27317
820.043	27241
820.184	27169
820.324	26986
820.465	27203
820.605	27157
820.746	26967
820.886	27039
821.026	26994
821.167	26990
821.307	26975
821.447	26975
821.588	26872
821.728	26868
821.868	26511
822.008	26552
822.149	26461
822.289	26549
822.429	26214
822.569	26172
822.709	26172
822.849	26031
822.99	25883
823.13	25955
823.27	25875
823.41	25807
823.55	25780
823.69	25689
823.83	25681
823.97	25715
824.11	25552
824.25	25453
824.389	25540
824.529	25609
824.669	25479
824.809	25597
824.949	25476
825.089	25738
825.228	25556
825.368	25514
825.508	25358
825.648	25362
825.787	25441
825.927	25460
826.067	25407
826.206	25270
826.346	25377
826.485	25297
826.625	25403
826.765	25255
826.904	25346
827.044	24928
827.183	25042
827.323	25012
827.462	25053
827.601	24954
827.741	24935
827.88	25012
828.02	24905
828.159	24909
828.298	25004
828.437	25069
828.577	24935
828.716	25031
828.855	24924
828.994	24677
829.134	24646
829.273	24829
829.412	24730
829.551	24658
829.69	24639
829.829	24825
829.968	24677
830.107	24760
830.246	24589
830.385	24521
830.524	24551
830.663	24319
830.802	24357
830.941	24125
831.08	24239
831.219	24228
831.357	24273
831.496	24403
831.635	24182
831.774	24163
831.913	24095
832.051	24011
832.19	23980
832.329	24098
832.467	23931
832.606	23870
832.744	23802
832.883	23817
833.022	23733
833.16	23851
833.299	23882
833.437	23847
833.576	23809
833.714	23817
833.852	23885
833.991	23832
834.129	23874
834.267	23870
834.406	23840
834.544	23931
834.682	23809
834.821	23889
834.959	23984
835.097	23634
835.235	23779
835.373	23821
835.511	23722
835.65	23627
835.788	23764
835.926	23596
836.064	23379
836.202	23444
836.34	23581
836.478	23707
836.615	23608
836.753	23570
836.891	23714
837.029	23699
837.167	23535
837.305	23649
837.443	23608
837.58	23444
837.718	23421
837.856	23520
837.993	23398
838.131	23520
838.269	23429
838.406	23414
838.544	23155
838.681	23170
838.819	23086
838.956	22919
839.094	22915
839.231	23014
839.369	23090
839.506	23261
839.643	23136
839.781	22858
839.918	22706
840.055	22839
840.193	22835
840.33	22850
840.467	22755
840.604	22892
840.742	22968
840.879	22683
841.016	22687
841.153	22679
841.29	22824
841.427	22854
841.564	22801
841.701	22744
841.838	22645
841.975	22622
842.112	22687
842.249	22607
842.385	22516
842.522	22565
842.659	22516
842.796	22459
842.933	22421
843.069	22504
843.206	22451
843.343	22626
843.479	22451
843.616	22390
843.752	22234
843.889	22253
844.025	22272
844.162	22101
844.298	22310
844.435	22211
844.571	22196
844.708	22226
844.844	22261
844.98	22284
845.117	22238
845.253	22112
845.389	22147
845.525	22109
845.661	22215
845.798	21949
845.934	21953
846.07	21892
846.206	22017
846.342	22078
846.478	21915
846.614	21713
846.75	21633
846.886	21698
847.022	21728
847.158	21656
847.294	21610
847.429	21812
847.565	21526
847.701	21842
847.837	21359
847.972	21264
848.108	21477
848.244	21488
848.379	21218
848.515	21207
848.65	21173
848.786	21165
848.921	21112
849.057	21310
849.192	21211
849.328	21264
849.463	21165
849.598	21142
849.734	21055
849.869	20887
850.004	20956
850.14	20948
850.275	21024
850.41	20826
850.545	20872
850.68	20845
850.815	20929
850.95	20899
851.085	21062
851.22	21055
851.355	20864
851.49	20895
851.625	20838
851.76	20788
851.895	20765
852.03	20674
852.165	20929
852.299	20975
852.434	20910
852.569	20941
852.703	20830
852.838	20998
852.973	20948
853.107	20929
853.242	20777
853.376	20701
853.511	20670
853.645	20651
853.78	20758
853.914	20758
854.048	20640
854.183	20663
854.317	20629
854.451	20788
854.585	20708
854.72	20602
854.854	20693
854.988	20697
855.122	20613
855.256	20594
855.39	20697
855.524	20762
855.658	20739
855.792	20625
855.926	20682
856.06	20864
856.194	20739
856.327	20537
856.461	20632
856.595	20556
856.729	20678
856.862	20743
856.996	20602
857.13	20644
857.263	20819
857.397	20648
857.53	20689
857.664	20708
857.797	20735
857.931	20708
858.064	20693
858.197	20727
858.331	20537
858.464	20541
858.597	20503
858.731	20636
858.864	20571
858.997	20632
859.13	20651
859.263	20575
859.396	20754
859.529	20625
859.662	20522
859.795	20598
859.928	20541
860.061	20815
860.194	20914
860.327	20556
860.46	20549
860.592	20682
860.725	20678
860.858	20670
860.99	20442
861.123	20457
861.256	20480
861.388	20583
861.521	21127
861.653	20393
861.786	20503
861.918	20556
862.05	20564
862.183	20651
862.315	20617
862.447	20720
862.58	20530
862.712	20465
862.844	20374
862.976	20465
863.108	20419
863.24	20777
863.372	20294
863.504	20400
863.636	20389
863.768	20389
863.9	20301
864.032	20267
864.164	20336
864.296	20259
864.428	20343
864.559	20419
864.691	20434
864.823	20362
864.954	20355
865.086	20240
865.217	20317
865.349	20164
865.48	20164
865.612	20191
865.743	20351
865.875	20301
866.006	20202
866.137	20218
866.269	20134
866.4	20191
866.531	20336
866.662	20107
866.793	20164
866.924	20195
867.055	20195
867.186	20157
867.317	20088
867.448	20039
867.579	20111
867.71	20031
867.841	20050
867.972	20077
868.103	20054
868.233	20172
868.364	20100
868.495	20233
868.625	20400
868.756	20442
868.886	20286
869.017	20294
869.147	20412
869.278	20659
869.408	20408
869.539	20408
869.669	20393
869.799	20366
869.929	20568
870.06	20442
870.19	20670
870.32	20632
870.45	20598
870.58	20697
870.71	20811
870.84	20963
870.97	20777
871.1	20693
871.23	20982
871.36	20967
871.489	20785
871.619	20853
871.749	20990
871.879	21062
872.008	21058
872.138	21036
872.267	21005
872.397	20895
872.526	20834
872.656	20765
872.785	20788
872.915	20982
873.044	21005
873.173	20986
873.303	20956
873.432	21051
873.561	21116
873.69	20944
873.819	20929
873.948	21039
874.077	21017
874.206	20952
874.335	21009
874.464	21028
874.593	21233
874.722	21218
874.851	21268
874.979	21359
875.108	21123
875.237	21169
875.365	21119
875.494	21241
875.623	21272
875.751	21272
875.88	21214
876.008	21332
876.136	21363
876.265	21671
876.393	21694
876.521	21610
876.65	21682
876.778	21572
876.906	21519
877.034	21618
877.162	21641
877.29	21534
877.418	21557
877.546	21507
877.674	21625
877.802	21622
877.93	21549
878.058	21454
878.185	21439
878.313	21561
878.441	21606
878.568	21370
878.696	21458
878.824	21564
878.951	21564
879.079	21774
879.206	21907
879.333	21755
879.461	21435
879.588	21625
879.715	21728
879.842	21808
879.97	21564
880.097	21393
880.224	21321
880.351	21393
880.478	21351
880.605	21378
880.732	21386
880.859	21682
880.986	21530
881.112	21431
881.239	21195
881.366	21142
881.493	20963
881.619	21032
881.746	21062
881.872	20929
881.999	20986
882.125	20891
882.252	21058
882.378	21017
882.505	21051
882.631	20804
882.757	20762
882.883	20777
883.01	20765
883.136	20579
883.262	20571
883.388	20701
883.514	20853
883.64	20754
883.766	20674
883.892	20514
884.018	20552
884.143	20629
884.269	20701
884.395	20408
884.52	20442
884.646	20355
884.772	20343
884.897	20267
885.023	20393
885.148	20469
885.274	20518
885.399	20545
885.524	20282
885.65	20461
885.775	20431
885.9	20377
886.025	20533
886.15	20457
886.275	20305
886.4	20259
886.525	20389
886.65	20263
886.775	20225
886.9	20343
887.025	20454
887.149	20191
887.274	20168
887.399	20183
887.523	20107
887.648	20164
887.773	20039
887.897	20237
888.021	20088
888.146	19993
888.27	20263
888.395	20244
888.519	20111
888.643	20138
888.767	20130
888.891	19932
889.015	19871
889.139	19879
889.263	19928
889.387	20088
889.511	20145
889.635	19963
889.759	19841
889.883	19928
890.006	19856
890.13	20039
890.254	19928
890.377	19921
890.501	19635
890.624	19753
890.748	19772
890.871	19548
890.995	19586
891.118	19384
891.241	19434
891.364	19457
891.488	19571
891.611	19365
891.734	19434
891.857	19518
891.98	19518
892.103	19495
892.226	19563
892.349	19464
892.471	19320
892.594	19354
892.717	19422
892.839	19400
892.962	19426
893.085	19491
893.207	19350
893.33	19320
893.452	19225
893.575	19365
893.697	19358
893.819	19556
893.941	19559
894.064	19476
894.186	19365
894.308	19350
894.43	19559
894.552	19578
894.674	19422
894.796	19289
894.918	19251
895.04	19392
895.161	19445
895.283	19358
895.405	19358
895.526	19438
895.648	19293
895.769	19392
895.891	19483
896.012	19487
896.134	19430
896.255	19464
896.376	19422
896.498	19441
896.619	19457
896.74	19441
896.861	19594
896.982	19860
897.103	20005
897.224	19677
897.345	19700
897.466	19689
897.587	19712
897.708	19852
897.828	19693
897.949	19510
898.07	19533
898.19	19571
898.311	19715
898.431	19571
898.552	19529
898.672	19704
898.792	19605
898.913	19632
899.033	19396
899.153	19537
899.273	19240
899.393	19316
899.513	19297
899.633	19434
899.753	19362
899.873	19377
899.993	19335
900.113	19324
900.232	19388
900.352	19141
900.472	19247
900.591	19259
900.711	19107
900.83	19076
900.95	19274
901.069	19122
901.189	19061
901.308	18833
901.427	18730
901.546	18669
901.665	18692
901.784	18734
901.904	18582
902.023	18547
902.141	18296
902.26	18247
902.379	18365
902.498	18247
902.617	18144
902.735	18205
902.854	18194
902.973	18095
903.091	17992
903.21	17935
903.328	17897
903.446	17840
903.565	17707
903.683	17821
903.801	17707
903.919	17783
904.038	17703
904.156	17512
904.274	17577
904.392	17463
904.51	17490
904.627	17467
904.745	17596
904.863	17516
904.981	17299
905.098	17254
905.216	17143
905.334	17143
905.451	17124
905.569	17220
905.686	17102
905.803	17216
905.921	16968
906.038	17090
906.155	16949
906.272	16869
906.389	16900
906.506	16618
906.623	16793
906.74	16675
906.857	16577
906.974	16588
907.091	16691
907.208	16831
907.324	16740
907.441	16645
907.557	16398
907.674	16390
907.79	16230
907.907	16421
908.023	16390
908.139	16421
908.256	16379
908.372	16211
908.488	16265
908.604	16071
908.72	16090
908.836	16173
908.952	16120
909.068	16059
909.184	16177
909.3	16040
909.415	16059
909.531	16143
909.647	15789
909.762	15873
909.878	15774
909.993	15679
910.108	15804
910.224	15751
910.339	15690
910.454	15679
910.57	15644
910.685	15496
910.8	15812
910.915	15709
911.03	15618
911.145	15447
911.259	15336
911.374	15329
911.489	15264
911.604	15230
911.718	15085
911.833	15104
911.947	15028
912.062	14937
912.176	14979
912.291	15146
912.405	15104
912.519	15241
912.633	15241
912.748	15116
912.862	15005
912.976	14929
913.09	14777
913.204	14861
913.318	14906
913.431	15009
913.545	15017
913.659	15081
913.772	14781
913.886	14830
914	14765
914.113	14895
914.226	14849
914.34	14788
914.453	14667
914.566	14785
914.68	14640
914.793	14610
914.906	14393
915.019	14408
915.132	14298
915.245	14385
915.358	14385
915.47	14393
915.583	14431
915.696	14427
915.809	14480
915.921	14556
916.034	14221
916.146	14278
916.259	14256
916.371	14339
916.483	14343
916.595	14180
916.708	14282
916.82	14187
916.932	14164
917.044	14210
917.156	14103
917.268	14084
917.38	14012
917.491	14035
917.603	14020
917.715	14176
917.826	14100
917.938	13986
918.049	13826
918.161	14005
918.272	14134
918.384	14126
918.495	14020
918.606	13811
918.717	13788
918.828	13871
918.939	13776
919.05	13734
919.161	13734
919.272	13616
919.383	13540
919.494	13799
919.604	14001
919.715	13750
919.826	13757
919.936	13757
920.047	13837
920.157	13753
920.267	13940
920.378	13788
920.488	13757
920.598	13909
920.708	14027
920.818	13875
920.928	13902
921.038	14050
921.148	14001
921.258	13620
921.368	13521
921.477	13525
921.587	13468
921.697	13464
921.806	13548
921.916	13293
922.025	13156
922.134	13133
922.244	13038
922.353	13228
922.462	12966
922.571	13027
922.68	12852
922.789	12829
922.898	12833
923.007	12700
923.116	12814
923.224	12677
923.333	12772
923.442	12673
923.55	12574
923.659	12612
923.767	12696
923.876	12631
923.984	12703
924.092	12536
924.201	12528
924.309	12506
924.417	12547
924.525	12467
924.633	12471
924.741	13190
924.849	12296
924.956	12426
925.064	12228
925.172	12155
925.279	12239
925.387	12235
925.494	12273
925.602	12346
925.709	12243
925.816	12194
925.924	12266
926.031	12251
926.138	12251
926.245	12220
926.352	12175
926.459	12254
926.566	12216
926.673	12129
926.779	11996
926.886	12053
926.993	11885
927.099	11863
927.206	11756
927.312	11748
927.419	11824
927.525	11893
927.631	11878
927.737	11748
927.843	11630
927.95	11600
928.056	11695
928.162	11691
928.267	11634
928.373	12376
928.479	11684
928.585	11467
928.69	11634
928.796	11657
928.901	11532
929.007	11448
929.112	11543
929.218	11455
929.323	11395
929.428	11570
929.533	11581
929.638	11322
929.743	11417
929.848	11383
929.953	11360
930.058	11250
930.163	11105
930.267	11075
930.372	11220
930.477	11064
930.581	11360
930.685	11128
930.79	10987
930.894	11022
930.998	10980
931.103	11109
931.207	10801
931.311	10603
931.415	10531
931.519	10363
931.623	10402
