Data from test_V78500241_3617.txt Node
Date: Fri Mar 25 15:35:02 CST 2022
User: usil
Spectrometer: V785-0024
Trigger mode: 0
Integration Time (sec): 4.000000E-1
Scans to average: 1
Nonlinearity correction enabled: false
Boxcar width: 0
Storing dark spectrum: false
XAxis mode: Wavelengths
Number of Pixels in Spectrum: 1024
>>>>>Begin Spectral Data<<<<<
801.071	27275
801.214	27283
801.356	27020
801.499	26876
801.641	26746
801.783	26796
801.926	26716
802.068	26762
802.211	26819
802.353	26708
802.496	26541
802.638	26488
802.78	26492
802.923	26438
803.065	26412
803.208	26347
803.35	26427
803.492	26712
803.635	26609
803.777	26564
803.919	26602
804.061	26819
804.204	26762
804.346	26530
804.488	26431
804.63	26606
804.773	26511
804.915	26602
805.057	26579
805.199	26530
805.341	26667
805.483	26727
805.626	26651
805.768	26571
805.91	26773
806.052	26754
806.194	26655
806.336	26975
806.478	26701
806.62	26655
806.762	26834
806.904	27074
807.046	27245
807.188	27089
807.33	27127
807.472	27173
807.614	27096
807.756	27009
807.898	26967
808.04	26914
808.182	26921
808.324	26895
808.465	27013
808.607	27116
808.749	27351
808.891	27401
809.033	27564
809.174	27370
809.316	27287
809.458	27317
809.6	27252
809.741	27351
809.883	27427
810.025	27603
810.166	27629
810.308	27610
810.45	27469
810.591	27534
810.733	27492
810.875	27454
811.016	27306
811.158	27188
811.299	27424
811.441	27504
811.582	27507
811.724	27420
811.865	27226
812.007	27332
812.148	27256
812.29	27279
812.431	27462
812.573	27656
812.714	27648
812.855	27816
812.997	27930
813.138	27911
813.279	28013
813.421	27888
813.562	27808
813.703	27599
813.845	27530
813.986	27264
814.127	27055
814.268	26963
814.41	26979
814.551	27062
814.692	27096
814.833	26975
814.974	26868
815.115	26944
815.256	26853
815.397	26785
815.539	26925
815.68	26758
815.821	26705
815.962	26743
816.103	26773
816.244	26606
816.385	26450
816.526	26533
816.666	26271
816.807	26218
816.948	26347
817.089	26240
817.23	26355
817.371	26256
817.512	26271
817.653	26130
817.793	26202
817.934	26191
818.075	26244
818.216	26305
818.356	26294
818.497	26134
818.638	25978
818.778	25944
818.919	25982
819.06	26005
819.2	26195
819.341	26191
819.481	26240
819.622	26549
819.762	26667
819.903	26499
820.043	26404
820.184	26423
820.324	26393
820.465	26450
820.605	26404
820.746	26256
820.886	26229
821.026	26305
821.167	26317
821.307	26408
821.447	26214
821.588	26176
821.728	26050
821.868	25803
822.008	25761
822.149	25856
822.289	25651
822.429	25384
822.569	25377
822.709	25460
822.849	25244
822.99	25335
823.13	25247
823.27	25217
823.41	24951
823.55	24970
823.69	25080
823.83	25156
823.97	24996
824.11	24951
824.25	24901
824.389	24947
824.529	24905
824.669	24802
824.809	24954
824.949	25069
825.089	24901
825.228	24924
825.368	24646
825.508	24642
825.648	24654
825.787	24772
825.927	24673
826.067	24776
826.206	24654
826.346	24757
826.485	24745
826.625	24688
826.765	24947
826.904	24760
827.044	24582
827.183	24391
827.323	24669
827.462	24486
827.601	24433
827.741	24380
827.88	24464
828.02	24330
828.159	24464
828.298	24388
828.437	24376
828.577	24292
828.716	24650
828.855	24338
828.994	24220
829.134	24239
829.273	24213
829.412	24201
829.551	24091
829.69	24228
829.829	24201
829.968	24216
830.107	24167
830.246	24235
830.385	24060
830.524	24045
830.663	23977
830.802	23878
830.941	23771
831.08	23775
831.219	23935
831.357	23908
831.496	24133
831.635	23718
831.774	23665
831.913	23733
832.051	23611
832.19	23726
832.329	23547
832.467	23402
832.606	23391
832.744	23421
832.883	23452
833.022	23318
833.16	23478
833.299	23509
833.437	23589
833.576	23589
833.714	23562
833.852	23566
833.991	23566
834.129	23665
834.267	23535
834.406	23661
834.544	23623
834.682	23509
834.821	23505
834.959	23703
835.097	23372
835.235	23611
835.373	23509
835.511	23486
835.65	23448
835.788	23284
835.926	23223
836.064	23162
836.202	23227
836.34	23334
836.478	23455
836.615	23318
836.753	23474
836.891	23364
837.029	23402
837.167	23417
837.305	23242
837.443	23315
837.58	23227
837.718	23151
837.856	23246
837.993	23159
838.131	23227
838.269	23159
838.406	23117
838.544	22987
838.681	22869
838.819	22786
838.956	22618
839.094	22672
839.231	22653
839.369	22885
839.506	23037
839.643	22949
839.781	22679
839.918	22679
840.055	22611
840.193	22618
840.33	22679
840.467	22626
840.604	22588
840.742	23064
840.879	22618
841.016	22478
841.153	22622
841.29	22809
841.427	22660
841.564	22672
841.701	22584
841.838	22664
841.975	22554
842.112	22611
842.249	22584
842.385	22352
842.522	22649
842.659	22500
842.796	22417
842.933	22344
843.069	22363
843.206	22295
843.343	22554
843.479	22367
843.616	22405
843.752	22097
843.889	22188
844.025	22314
844.162	22192
844.298	22253
844.435	22154
844.571	22261
844.708	22265
844.844	22348
844.98	22344
845.117	22306
845.253	22196
845.389	22013
845.525	22021
845.661	22086
845.798	21991
845.934	21934
846.07	21865
846.206	21922
846.342	22139
846.478	21998
846.614	21770
846.75	21572
846.886	21679
847.022	21717
847.158	21671
847.294	21804
847.429	21709
847.565	21667
847.701	21998
847.837	21450
847.972	21393
848.108	21393
848.244	21408
848.379	21207
848.515	21321
848.65	21336
848.786	21317
848.921	21199
849.057	21302
849.192	21374
849.328	21306
849.463	21249
849.598	21214
849.734	21180
849.869	21161
850.004	21028
850.14	20982
850.275	21074
850.41	21058
850.545	21062
850.68	20944
850.815	21024
850.95	21058
851.085	21157
851.22	21138
851.355	21032
851.49	20990
851.625	21093
851.76	20986
851.895	20918
852.03	20861
852.165	20941
852.299	21131
852.434	21180
852.569	21028
852.703	21062
852.838	21017
852.973	21146
853.107	21131
853.242	20975
853.376	20982
853.511	20712
853.645	20758
853.78	20838
853.914	20872
854.048	20849
854.183	20849
854.317	21017
854.451	20883
854.585	20823
854.72	20834
854.854	20963
854.988	20819
855.122	20838
855.256	20762
855.39	20811
855.524	20925
855.658	20937
855.792	20796
855.926	20815
856.06	20842
856.194	20853
856.327	20830
856.461	20811
856.595	20785
856.729	20800
856.862	20952
856.996	20861
857.13	20967
857.263	20929
857.397	20861
857.53	20819
857.664	20975
857.797	20826
857.931	20918
858.064	20773
858.197	20975
858.331	20804
858.464	20773
858.597	20754
858.731	20826
858.864	20720
858.997	20819
859.13	20864
859.263	20785
859.396	20948
859.529	20845
859.662	20743
859.795	20807
859.928	20826
860.061	20979
860.194	21039
860.327	20960
860.46	20902
860.592	20998
860.725	20956
860.858	21036
860.99	20883
861.123	20807
861.256	20758
861.388	20876
861.521	21644
861.653	20644
861.786	20689
861.918	20678
862.05	20739
862.183	20868
862.315	20800
862.447	20845
862.58	20712
862.712	20651
862.844	20636
862.976	20720
863.108	20705
863.24	20960
863.372	20590
863.504	20511
863.636	20507
863.768	20587
863.9	20617
864.032	20533
864.164	20583
864.296	20492
864.428	20621
864.559	20533
864.691	20640
864.823	20583
864.954	20571
865.086	20412
865.217	20564
865.349	20427
865.48	20450
865.612	20370
865.743	20526
865.875	20374
866.006	20450
866.137	20404
866.269	20564
866.4	20518
866.531	20385
866.662	20488
866.793	20503
866.924	20358
867.055	20450
867.186	20404
867.317	20488
867.448	20381
867.579	20461
867.71	20294
867.841	20347
867.972	20305
868.103	20313
868.233	20385
868.364	20351
868.495	20533
868.625	20583
868.756	20693
868.886	20632
869.017	20617
869.147	20697
869.278	20864
869.408	20686
869.539	20571
869.669	20838
869.799	20712
869.929	20765
870.06	20720
870.19	20994
870.32	20979
870.45	21036
870.58	21066
870.71	21199
870.84	21275
870.97	21017
871.1	21051
871.23	21264
871.36	21325
871.489	21108
871.619	21161
871.749	21291
871.879	21424
872.008	21424
872.138	21306
872.267	21260
872.397	21138
872.526	21169
872.656	21184
872.785	21093
872.915	21275
873.044	21378
873.173	21264
873.303	21363
873.432	21367
873.561	21298
873.69	21317
873.819	21313
873.948	21272
874.077	21199
874.206	21203
874.335	21230
874.464	21329
874.593	21637
874.722	21511
874.851	21549
874.979	21606
875.108	21542
875.237	21583
875.365	21439
875.494	21420
875.623	21591
875.751	21564
875.88	21587
876.008	21656
876.136	21709
876.265	21876
876.393	22158
876.521	21968
876.65	22017
876.778	21873
876.906	21884
877.034	21838
877.162	21975
877.29	21827
877.418	21850
877.546	21918
877.674	21888
877.802	21972
877.93	21899
878.058	21823
878.185	21838
878.313	21854
878.441	21915
878.568	21587
878.696	21835
878.824	21819
878.951	21945
879.079	22021
879.206	22230
879.333	22143
879.461	21892
879.588	21964
879.715	22051
879.842	22143
879.97	21945
880.097	21850
880.224	21667
880.351	21720
880.478	21778
880.605	21747
880.732	21709
880.859	21781
880.986	21770
881.112	21713
881.239	21583
881.366	21428
881.493	21348
881.619	21264
881.746	21370
881.872	21264
881.999	21275
882.125	21222
882.252	21252
882.378	21313
882.505	21340
882.631	21108
882.757	21085
882.883	21100
883.01	20960
883.136	20921
883.262	20975
883.388	20727
883.514	21108
883.64	21013
883.766	20929
883.892	20777
884.018	20815
884.143	20941
884.269	21119
884.395	20727
884.52	20598
884.646	20648
884.772	20587
884.897	20583
885.023	20648
885.148	20686
885.274	20754
885.399	20716
885.524	20697
885.65	20689
885.775	20667
885.9	20556
886.025	20746
886.15	20743
886.275	20560
886.4	20632
886.525	20590
886.65	20537
886.775	20598
886.9	20651
887.025	20872
887.149	20655
887.274	20530
887.399	20434
887.523	20339
887.648	20431
887.773	20423
887.897	20484
888.021	20469
888.146	20389
888.27	20442
888.395	20518
888.519	20396
888.643	20431
888.767	20358
888.891	20298
889.015	20237
889.139	20263
889.263	20206
889.387	20336
889.511	20385
889.635	20328
889.759	20168
889.883	20282
890.006	20187
890.13	20240
890.254	20157
890.377	20164
890.501	20046
890.624	19978
890.748	20016
890.871	19788
890.995	19742
891.118	19799
891.241	19731
891.364	19814
891.488	19849
891.611	19868
891.734	19864
891.857	19830
891.98	19727
892.103	19799
892.226	19803
892.349	19658
892.471	19620
892.594	19655
892.717	19818
892.839	19776
892.962	19681
893.085	19704
893.207	19799
893.33	19601
893.452	19571
893.575	19822
893.697	19708
893.819	19807
893.941	19883
894.064	19936
894.186	19635
894.308	19525
894.43	19852
894.552	19887
894.674	19849
894.796	19575
894.918	19685
895.04	19651
895.161	19681
895.283	19693
895.405	19658
895.526	19674
895.648	19567
895.769	19708
895.891	19613
896.012	19765
896.134	19677
896.255	19689
896.376	19605
896.498	19712
896.619	19746
896.74	19715
896.861	19738
896.982	19993
897.103	20233
897.224	19974
897.345	19856
897.466	19856
897.587	19997
897.708	19970
897.828	19989
897.949	19822
898.07	19830
898.19	19849
898.311	19947
898.431	19822
898.552	19959
898.672	19959
898.792	19959
898.913	19921
899.033	19772
899.153	19715
899.273	19624
899.393	19750
899.513	19655
899.633	19628
899.753	19712
899.873	19499
899.993	19693
900.113	19590
900.232	19677
900.352	19624
900.472	19487
900.591	19510
900.711	19434
900.83	19400
900.95	19533
901.069	19438
901.189	19419
901.308	19072
901.427	19099
901.546	18962
901.665	19023
901.784	19046
901.904	18848
902.023	18852
902.141	18642
902.26	18555
902.379	18661
902.498	18578
902.617	18536
902.735	18601
902.854	18483
902.973	18308
903.091	18258
903.21	18327
903.328	18171
903.446	18049
903.565	18106
903.683	18121
903.801	17958
903.919	18015
904.038	17946
904.156	17821
904.274	17878
904.392	17863
904.51	17748
904.627	17771
904.745	17904
904.863	17832
904.981	17604
905.098	17543
905.216	17577
905.334	17554
905.451	17455
905.569	17501
905.686	17516
905.803	17459
905.921	17349
906.038	17311
906.155	17223
906.272	17235
906.389	17231
906.506	16987
906.623	17060
906.74	17128
906.857	16934
906.974	16991
907.091	17014
907.208	17083
907.324	17132
907.441	16934
907.557	16763
907.674	16790
907.79	16778
907.907	16713
908.023	16733
908.139	16740
908.256	16641
908.372	16622
908.488	16592
908.604	16599
908.72	16428
908.836	16508
908.952	16489
909.068	16424
909.184	16542
909.3	16485
909.415	16470
909.531	16485
909.647	16249
909.762	16181
909.878	16177
909.993	16181
910.108	16147
910.224	16162
910.339	16158
910.454	16116
910.57	16032
910.685	15934
910.8	16261
910.915	16169
911.03	15968
911.145	15762
911.259	15789
911.374	15846
911.489	15762
911.604	15705
911.718	15637
911.833	15686
911.947	15523
912.062	15408
912.176	15606
912.291	15660
912.405	15534
912.519	15751
912.633	15781
912.748	15686
912.862	15428
912.976	15332
913.09	15351
913.204	15310
913.318	15424
913.431	15382
913.545	15454
913.659	15428
913.772	15332
913.886	15214
914	15150
914.113	15176
914.226	15310
914.34	15245
914.453	15001
914.566	15272
914.68	15055
914.793	14971
914.906	14864
915.019	14727
915.132	14735
915.245	14815
915.358	14796
915.47	14880
915.583	14648
915.696	14826
915.809	14864
915.921	14899
916.034	14663
916.146	14743
916.259	14720
916.371	14727
916.483	14686
916.595	14571
916.708	14511
916.82	14670
916.932	14598
917.044	14636
917.156	14571
917.268	14492
917.38	14526
917.491	14457
917.603	14499
917.715	14514
917.826	14511
917.938	14438
918.049	14332
918.161	14423
918.272	14545
918.384	14473
918.495	14339
918.606	14282
918.717	14176
918.828	14168
918.939	14351
919.05	14180
919.161	14191
919.272	13997
919.383	14084
919.494	14298
919.604	14324
919.715	14157
919.826	14145
919.936	14134
920.047	14324
920.157	14126
920.267	14320
920.378	14237
920.488	14119
920.598	14423
920.708	14499
920.818	14328
920.928	14305
921.038	14480
921.148	14484
921.258	14142
921.368	14039
921.477	13940
921.587	13940
921.697	13795
921.806	14054
921.916	13674
922.025	13651
922.134	13529
922.244	13548
922.353	13681
922.462	13441
922.571	13415
922.68	13244
922.789	13152
922.898	13168
923.007	13126
923.116	13236
923.224	13228
923.333	13149
923.442	13088
923.55	13099
923.659	13072
923.767	13084
923.876	13042
923.984	13027
924.092	12935
924.201	13012
924.309	13012
924.417	12928
924.525	12840
924.633	12958
924.741	13784
924.849	12692
924.956	12825
925.064	12692
925.172	12631
925.279	12582
925.387	12692
925.494	12612
925.602	12741
925.709	12669
925.816	12509
925.924	12688
926.031	12696
926.138	12620
926.245	12570
926.352	12555
926.459	12536
926.566	12684
926.673	12547
926.779	12525
926.886	12395
926.993	12270
927.099	12247
927.206	12243
927.312	12239
927.419	12266
927.525	12262
927.631	12273
927.737	12117
927.843	12011
927.95	11965
928.056	11969
928.162	12095
928.267	12060
928.373	12589
928.479	12102
928.585	11885
928.69	12038
928.796	12095
928.901	11923
929.007	11760
929.112	11961
929.218	11931
929.323	11786
929.428	11729
929.533	11939
929.638	11699
929.743	11714
929.848	11817
929.953	11733
930.058	11699
930.163	11421
930.267	11558
930.372	11634
930.477	11440
930.581	11722
930.685	11623
930.79	11387
930.894	11364
930.998	11307
931.103	11581
931.207	11128
931.311	10995
931.415	11003
931.519	10755
931.623	10729
