Data from test_V78500241_961.txt Node
Date: Fri Mar 25 15:16:33 CST 2022
User: usil
Spectrometer: V785-0024
Trigger mode: 0
Integration Time (sec): 4.000000E-1
Scans to average: 1
Nonlinearity correction enabled: false
Boxcar width: 0
Storing dark spectrum: false
XAxis mode: Wavelengths
Number of Pixels in Spectrum: 1024
>>>>>Begin Spectral Data<<<<<
801.071	28063
801.214	27949
801.356	27599
801.499	27629
801.641	27542
801.783	27435
801.926	27549
802.068	27572
802.211	27355
802.353	27313
802.496	27135
802.638	27142
802.78	27077
802.923	26952
803.065	27039
803.208	27062
803.35	27119
803.492	27279
803.635	27332
803.777	27176
803.919	27374
804.061	27545
804.204	27351
804.346	27332
804.488	27264
804.63	27317
804.773	27192
804.915	27389
805.057	27408
805.199	27393
805.341	27507
805.483	27523
805.626	27500
805.768	27260
805.91	27424
806.052	27564
806.194	27332
806.336	27568
806.478	27507
806.62	27492
806.762	27583
806.904	27736
807.046	27949
807.188	27816
807.33	27827
807.472	27850
807.614	27755
807.756	27850
807.898	27724
808.04	27648
808.182	27827
808.324	27789
808.465	27755
808.607	27876
808.749	28112
808.891	28090
809.033	28169
809.174	28181
809.316	28166
809.458	28078
809.6	28070
809.741	28242
809.883	28272
810.025	28360
810.166	28333
810.308	28394
810.45	28451
810.591	28417
810.733	28192
810.875	28230
811.016	28097
811.158	28055
811.299	28314
811.441	28249
811.582	28242
811.724	28154
811.865	28051
812.007	28177
812.148	28173
812.29	28120
812.431	28230
812.573	28356
812.714	28584
812.855	28645
812.997	28694
813.138	28892
813.279	28694
813.421	28664
813.562	28653
813.703	28557
813.845	28500
813.986	28147
814.127	27949
814.268	27778
814.41	27808
814.551	27819
814.692	27907
814.833	27709
814.974	27797
815.115	27850
815.256	27679
815.397	27667
815.539	27732
815.68	27595
815.821	27580
815.962	27705
816.103	27576
816.244	27458
816.385	27458
816.526	27382
816.666	27142
816.807	27100
816.948	27108
817.089	27173
817.23	27249
817.371	27176
817.512	27138
817.653	27245
817.793	27093
817.934	27226
818.075	27058
818.216	27074
818.356	27093
818.497	27077
818.638	26868
818.778	26842
818.919	26940
819.06	26963
819.2	27070
819.341	27028
819.481	27123
819.622	27397
819.762	27431
819.903	27431
820.043	27176
820.184	27279
820.324	27131
820.465	27260
820.605	27233
820.746	27233
820.886	27116
821.026	27112
821.167	27127
821.307	27264
821.447	27085
821.588	27058
821.728	26899
821.868	26792
822.008	26579
822.149	26617
822.289	26583
822.429	26343
822.569	26138
822.709	26240
822.849	26054
822.99	26172
823.13	26077
823.27	26077
823.41	26031
823.55	25902
823.69	25940
823.83	25921
823.97	25928
824.11	25734
824.25	25746
824.389	25677
824.529	25951
824.669	25913
824.809	25898
824.949	25784
825.089	25837
825.228	25818
825.368	25590
825.508	25750
825.648	25696
825.787	25845
825.927	25753
826.067	25704
826.206	25575
826.346	25677
826.485	25799
826.625	25624
826.765	25890
826.904	25769
827.044	25518
827.183	25468
827.323	25346
827.462	25529
827.601	25449
827.741	25327
827.88	25392
828.02	25259
828.159	25316
828.298	25403
828.437	25308
828.577	25335
828.716	25392
828.855	25346
828.994	25095
829.134	25107
829.273	25156
829.412	25179
829.551	25015
829.69	25084
829.829	25076
829.968	25335
830.107	25122
830.246	25114
830.385	25008
830.524	24905
830.663	24890
830.802	24901
830.941	24741
831.08	24642
831.219	24806
831.357	24894
831.496	25057
831.635	24650
831.774	24639
831.913	24639
832.051	24547
832.19	24490
832.329	24582
832.467	24471
832.606	24330
832.744	24346
832.883	24627
833.022	24391
833.16	24494
833.299	24505
833.437	24433
833.576	24395
833.714	24559
833.852	24528
833.991	24494
834.129	24551
834.267	24479
834.406	24426
834.544	24437
834.682	24399
834.821	24300
834.959	24673
835.097	24346
835.235	24513
835.373	24536
835.511	24509
835.65	24334
835.788	24300
835.926	24228
836.064	24239
836.202	24117
836.34	24315
836.478	24437
836.615	24194
836.753	24353
836.891	24323
837.029	24505
837.167	24353
837.305	24205
837.443	24167
837.58	24144
837.718	24129
837.856	24224
837.993	24072
838.131	24030
838.269	23980
838.406	23992
838.544	23863
838.681	23798
838.819	23733
838.956	23596
839.094	23668
839.231	23661
839.369	23901
839.506	23927
839.643	23863
839.781	23646
839.918	23585
840.055	23668
840.193	23589
840.33	23425
840.467	23585
840.604	23585
840.742	23718
840.879	23406
841.016	23444
841.153	23528
841.29	23543
841.427	23478
841.564	23592
841.701	23524
841.838	23486
841.975	23497
842.112	23436
842.249	23280
842.385	23239
842.522	23402
842.659	23311
842.796	23250
842.933	23379
843.069	23296
843.206	23216
843.343	23349
843.479	23368
843.616	23265
843.752	23162
843.889	23155
844.025	23227
844.162	22972
844.298	23193
844.435	23033
844.571	23056
844.708	23121
844.844	23204
844.98	23151
845.117	23193
845.253	23128
845.389	23044
845.525	22980
845.661	22934
845.798	22824
845.934	22927
846.07	22809
846.206	22683
846.342	22801
846.478	22873
846.614	22672
846.75	22474
846.886	22485
847.022	22565
847.158	22519
847.294	22580
847.429	22508
847.565	22523
847.701	22675
847.837	22341
847.972	22181
848.108	22344
848.244	22242
848.379	22086
848.515	22109
848.65	22124
848.786	22070
848.921	22185
849.057	22284
849.192	22280
849.328	22093
849.463	22200
849.598	22124
849.734	22055
849.869	22002
850.004	21854
850.14	21865
850.275	21994
850.41	21747
850.545	21804
850.68	21770
850.815	21937
850.95	21930
851.085	22105
851.22	22021
851.355	21953
851.49	22010
851.625	21968
851.76	21838
851.895	21816
852.03	21850
852.165	21960
852.299	21907
852.434	21926
852.569	21831
852.703	21899
852.838	21964
852.973	21960
853.107	22025
853.242	21884
853.376	21751
853.511	21648
853.645	21606
853.78	21717
853.914	21800
854.048	21644
854.183	21709
854.317	21686
854.451	21880
854.585	21770
854.72	21705
854.854	21762
854.988	21652
855.122	21625
855.256	21492
855.39	21705
855.524	21717
855.658	21698
855.792	21625
855.926	21694
856.06	21728
856.194	21774
856.327	21660
856.461	21641
856.595	21644
856.729	21732
856.862	21808
856.996	21736
857.13	21728
857.263	21762
857.397	21793
857.53	21728
857.664	21679
857.797	21698
857.931	21762
858.064	21701
858.197	21766
858.331	21614
858.464	21648
858.597	21644
858.731	21648
858.864	21549
858.997	21690
859.13	21717
859.263	21732
859.396	21709
859.529	21625
859.662	21652
859.795	21778
859.928	21637
860.061	21717
860.194	21842
860.327	21785
860.46	21644
860.592	21732
860.725	21827
860.858	21865
860.99	21751
861.123	21576
861.256	21705
861.388	21736
861.521	22299
861.653	21568
861.786	21572
861.918	21519
862.05	21591
862.183	21675
862.315	21637
862.447	21743
862.58	21644
862.712	21450
862.844	21321
862.976	21481
863.108	21523
863.24	21755
863.372	21214
863.504	21481
863.636	21393
863.768	21462
863.9	21431
864.032	21340
864.164	21405
864.296	21447
864.428	21553
864.559	21359
864.691	21511
864.823	21420
864.954	21397
865.086	21466
865.217	21332
865.349	21408
865.48	21283
865.612	21226
865.743	21496
865.875	21294
866.006	21252
866.137	21192
866.269	21195
866.4	21336
866.531	21241
866.662	21199
866.793	21272
866.924	21203
867.055	21245
867.186	21180
867.317	21169
867.448	20982
867.579	21226
867.71	21256
867.841	21104
867.972	21348
868.103	21199
868.233	21256
868.364	21173
868.495	21397
868.625	21389
868.756	21542
868.886	21340
869.017	21447
869.147	21504
869.278	21622
869.408	21504
869.539	21336
869.669	21507
869.799	21614
869.929	21545
870.06	21485
870.19	21854
870.32	21705
870.45	21926
870.58	21876
870.71	22010
870.84	21911
870.97	21850
871.1	21880
871.23	21854
871.36	21998
871.489	22010
871.619	22082
871.749	22025
871.879	22185
872.008	22048
872.138	22032
872.267	22032
872.397	21987
872.526	21800
872.656	21869
872.785	21869
872.915	22048
873.044	22044
873.173	22128
873.303	22055
873.432	21998
873.561	22173
873.69	22070
873.819	21857
873.948	21991
874.077	22040
874.206	21880
874.335	22002
874.464	22204
874.593	22287
874.722	22329
874.851	22379
874.979	22341
875.108	22207
875.237	22272
875.365	22070
875.494	22303
875.623	22272
875.751	22185
875.88	22219
876.008	22497
876.136	22455
876.265	22607
876.393	22748
876.521	22729
876.65	22736
876.778	22637
876.906	22584
877.034	22588
877.162	22656
877.29	22538
877.418	22565
877.546	22531
877.674	22603
877.802	22664
877.93	22618
878.058	22588
878.185	22470
878.313	22531
878.441	22588
878.568	22417
878.696	22592
878.824	22489
878.951	22717
879.079	22847
879.206	22957
879.333	22759
879.461	22584
879.588	22744
879.715	22850
879.842	22820
879.97	22691
880.097	22413
880.224	22367
880.351	22527
880.478	22516
880.605	22474
880.732	22527
880.859	22618
880.986	22421
881.112	22386
881.239	22325
881.366	22223
881.493	22147
881.619	21994
881.746	22029
881.872	22105
881.999	21998
882.125	21979
882.252	22063
882.378	21998
882.505	22128
882.631	21713
882.757	21755
882.883	21728
883.01	21785
883.136	21785
883.262	21534
883.388	21572
883.514	21644
883.64	21838
883.766	21717
883.892	21545
884.018	21515
884.143	21614
884.269	21747
884.395	21466
884.52	21367
884.646	21363
884.772	21294
884.897	21165
885.023	21397
885.148	21363
885.274	21530
885.399	21405
885.524	21386
885.65	21363
885.775	21401
885.9	21321
886.025	21462
886.15	21439
886.275	21230
886.4	21199
886.525	21298
886.65	21260
886.775	21169
886.9	21420
887.025	21591
887.149	21237
887.274	21036
887.399	21077
887.523	21131
887.648	21100
887.773	21005
887.897	21089
888.021	21222
888.146	21043
888.27	21108
888.395	21291
888.519	21017
888.643	21222
888.767	21142
888.891	21032
889.015	20861
889.139	20929
889.263	20899
889.387	20941
889.511	21077
889.635	20963
889.759	20792
889.883	20982
890.006	20891
890.13	20849
890.254	20823
890.377	20762
890.501	20796
890.624	20705
890.748	20838
890.871	20621
890.995	20495
891.118	20480
891.241	20434
891.364	20541
891.488	20606
891.611	20385
891.734	20545
891.857	20560
891.98	20552
892.103	20404
892.226	20480
892.349	20423
892.471	20218
892.594	20408
892.717	20415
892.839	20404
892.962	20389
893.085	20434
893.207	20393
893.33	20290
893.452	20244
893.575	20347
893.697	20328
893.819	20579
893.941	20579
894.064	20507
894.186	20263
894.308	20396
894.43	20434
894.552	20511
894.674	20427
894.796	20294
894.918	20305
895.04	20332
895.161	20374
895.283	20408
895.405	20366
895.526	20358
895.648	20336
895.769	20355
895.891	20362
896.012	20358
896.134	20309
896.255	20381
896.376	20248
896.498	20339
896.619	20469
896.74	20351
896.861	20415
896.982	20792
897.103	20929
897.224	20636
897.345	20575
897.466	20488
897.587	20583
897.708	20765
897.828	20575
897.949	20499
898.07	20347
898.19	20389
898.311	20693
898.431	20552
898.552	20598
898.672	20575
898.792	20613
898.913	20686
899.033	20442
899.153	20313
899.273	20225
899.393	20377
899.513	20320
899.633	20362
899.753	20320
899.873	20282
899.993	20355
900.113	20195
900.232	20317
900.352	20172
900.472	20088
900.591	20058
900.711	20016
900.83	20122
900.95	20195
901.069	20176
901.189	19989
901.308	19746
901.427	19666
901.546	19734
901.665	19616
901.784	19696
901.904	19537
902.023	19483
902.141	19289
902.26	19209
902.379	19297
902.498	19221
902.617	19206
902.735	19148
902.854	19259
902.973	19095
903.091	18958
903.21	18833
903.328	18791
903.446	18738
903.565	18768
903.683	18677
903.801	18475
903.919	18673
904.038	18684
904.156	18399
904.274	18448
904.392	18391
904.51	18327
904.627	18433
904.745	18490
904.863	18452
904.981	18243
905.098	18190
905.216	18125
905.334	18197
905.451	18038
905.569	17935
905.686	18110
905.803	18030
905.921	17893
906.038	17946
906.155	17920
906.272	17798
906.389	17855
906.506	17638
906.623	17691
906.74	17638
906.857	17482
906.974	17573
907.091	17642
907.208	17722
907.324	17687
907.441	17554
907.557	17410
907.674	17440
907.79	17246
907.907	17223
908.023	17421
908.139	17292
908.256	17273
908.372	17231
908.488	17121
908.604	17079
908.72	16995
908.836	17086
908.952	17018
909.068	17132
909.184	17086
909.3	17098
909.415	17098
909.531	16995
909.647	16740
909.762	16824
909.878	16801
909.993	16850
910.108	16752
910.224	16694
910.339	16713
910.454	16687
910.57	16523
910.685	16504
910.8	16820
910.915	16656
911.03	16679
911.145	16402
911.259	16402
911.374	16375
911.489	16295
911.604	16287
911.718	16105
911.833	16116
911.947	15994
912.062	15945
912.176	16128
912.291	16158
912.405	16116
912.519	16337
912.633	16242
912.748	16131
912.862	16059
912.976	15892
913.09	15823
913.204	15816
913.318	15880
913.431	16074
913.545	16051
913.659	15934
913.772	15880
913.886	15774
914	15785
914.113	15789
914.226	15808
914.34	15785
914.453	15625
914.566	15778
914.68	15610
914.793	15466
914.906	15408
915.019	15317
915.132	15370
915.245	15302
915.358	15363
915.47	15302
915.583	15344
915.696	15264
915.809	15378
915.921	15370
916.034	15230
916.146	15146
916.259	15226
916.371	15222
916.483	15192
916.595	15214
916.708	15104
916.82	15249
916.932	15062
917.044	15047
917.156	14971
917.268	15043
917.38	15169
917.491	14842
917.603	14906
917.715	15032
917.826	15074
917.938	14876
918.049	14781
918.161	14845
918.272	14986
918.384	15017
918.495	14842
918.606	14769
918.717	14705
918.828	14712
918.939	14769
919.05	14651
919.161	14693
919.272	14564
919.383	14507
919.494	14762
919.604	14819
919.715	14678
919.826	14537
919.936	14648
920.047	14716
920.157	14644
920.267	14838
920.378	14689
920.488	14724
920.598	14785
920.708	14910
920.818	14769
920.928	14823
921.038	14960
921.148	14925
921.258	14541
921.368	14530
921.477	14419
921.587	14259
921.697	14298
921.806	14423
921.916	14294
922.025	14119
922.134	14092
922.244	14035
922.353	14043
922.462	13959
922.571	13864
922.68	13742
922.789	13658
922.898	13662
923.007	13689
923.116	13727
923.224	13609
923.333	13609
923.442	13476
923.55	13506
923.659	13537
923.767	13563
923.876	13472
923.984	13548
924.092	13396
924.201	13392
924.309	13449
924.417	13403
924.525	13293
924.633	13388
924.741	14275
924.849	13118
924.956	13343
925.064	13118
925.172	13027
925.279	13050
925.387	13034
925.494	13095
925.602	13129
925.709	13122
925.816	12951
925.924	13080
926.031	13156
926.138	13031
926.245	13133
926.352	12882
926.459	13091
926.566	13061
926.673	12947
926.779	12859
926.886	12829
926.993	12738
927.099	12673
927.206	12681
927.312	12582
927.419	12623
927.525	12608
927.631	12623
927.737	12544
927.843	12517
927.95	12414
928.056	12441
928.162	12437
928.267	12570
928.373	13107
928.479	12521
928.585	12273
928.69	12403
928.796	12448
928.901	12319
929.007	12224
929.112	12323
929.218	12311
929.323	12258
929.428	12197
929.533	12273
929.638	12106
929.743	12030
929.848	12133
929.953	12155
930.058	11965
930.163	11878
930.267	11870
930.372	12045
930.477	11840
930.581	12072
930.685	11885
930.79	11790
930.894	11653
930.998	11707
931.103	11885
931.207	11512
931.311	11425
931.415	11341
931.519	11193
931.623	11174
