Data from test_V78500241_2904.txt Node
Date: Fri Mar 25 15:30:04 CST 2022
User: usil
Spectrometer: V785-0024
Trigger mode: 0
Integration Time (sec): 4.000000E-1
Scans to average: 1
Nonlinearity correction enabled: false
Boxcar width: 0
Storing dark spectrum: false
XAxis mode: Wavelengths
Number of Pixels in Spectrum: 1024
>>>>>Begin Spectral Data<<<<<
801.071	27245
801.214	27188
801.356	26853
801.499	26933
801.641	26796
801.783	26670
801.926	26762
802.068	26701
802.211	26765
802.353	26590
802.496	26549
802.638	26400
802.78	26366
802.923	26233
803.065	26168
803.208	26305
803.35	26381
803.492	26476
803.635	26549
803.777	26419
803.919	26549
804.061	26880
804.204	26579
804.346	26431
804.488	26476
804.63	26400
804.773	26450
804.915	26587
805.057	26579
805.199	26438
805.341	26598
805.483	26663
805.626	26697
805.768	26678
805.91	26716
806.052	26617
806.194	26571
806.336	26758
806.478	26701
806.62	26568
806.762	26708
806.904	27043
807.046	27230
807.188	27009
807.33	27135
807.472	27195
807.614	27055
807.756	27051
807.898	26807
808.04	26834
808.182	26788
808.324	26921
808.465	26861
808.607	27127
808.749	27203
808.891	27329
809.033	27336
809.174	27207
809.316	27116
809.458	27081
809.6	27237
809.741	27332
809.883	27329
810.025	27466
810.166	27492
810.308	27549
810.45	27424
810.591	27382
810.733	27279
810.875	27138
811.016	27165
811.158	27154
811.299	27405
811.441	27325
811.582	27523
811.724	27195
811.865	27237
812.007	27222
812.148	27237
812.29	27100
812.431	27408
812.573	27675
812.714	27743
812.855	27720
812.997	27781
813.138	28021
813.279	27778
813.421	27633
813.562	27789
813.703	27450
813.845	27386
813.986	27150
814.127	27020
814.268	26895
814.41	26918
814.551	26830
814.692	26792
814.833	26796
814.974	26788
815.115	26872
815.256	26697
815.397	26674
815.539	26796
815.68	26659
815.821	26720
815.962	26701
816.103	26598
816.244	26385
816.385	26328
816.526	26400
816.666	26164
816.807	26050
816.948	26176
817.089	26103
817.23	26062
817.371	26035
817.512	26069
817.653	26103
817.793	25989
817.934	26187
818.075	26111
818.216	26199
818.356	26161
818.497	26024
818.638	25856
818.778	25769
818.919	25856
819.06	25913
819.2	26077
819.341	26149
819.481	26092
819.622	26271
819.762	26320
819.903	26324
820.043	26259
820.184	26195
820.324	26142
820.465	26248
820.605	26290
820.746	26233
820.886	26191
821.026	26145
821.167	26103
821.307	26267
821.447	25989
821.588	26084
821.728	26008
821.868	25753
822.008	25696
822.149	25594
822.289	25529
822.429	25187
822.569	25240
822.709	25225
822.849	25038
822.99	24992
823.13	25107
823.27	25065
823.41	24932
823.55	24772
823.69	24871
823.83	24943
823.97	24810
824.11	24677
824.25	24787
824.389	24726
824.529	24711
824.669	24681
824.809	24795
824.949	24719
825.089	24814
825.228	24703
825.368	24639
825.508	24639
825.648	24627
825.787	24707
825.927	24639
826.067	24452
826.206	24620
826.346	24677
826.485	24540
826.625	24544
826.765	24707
826.904	24589
827.044	24467
827.183	24369
827.323	24273
827.462	24342
827.601	24300
827.741	24300
827.88	24262
828.02	24194
828.159	24304
828.298	24171
828.437	24399
828.577	24262
828.716	24369
828.855	24178
828.994	24064
829.134	23836
829.273	23984
829.412	23961
829.551	23996
829.69	23942
829.829	23984
829.968	24102
830.107	23904
830.246	24079
830.385	23977
830.524	23859
830.663	23824
830.802	23710
830.941	23520
831.08	23570
831.219	23703
831.357	23619
831.496	23771
831.635	23570
831.774	23448
831.913	23429
832.051	23410
832.19	23330
832.329	23383
832.467	23254
832.606	23216
832.744	23151
832.883	23311
833.022	23109
833.16	23265
833.299	23307
833.437	23334
833.576	23360
833.714	23326
833.852	23242
833.991	23303
834.129	23345
834.267	23296
834.406	23421
834.544	23337
834.682	23330
834.821	23288
834.959	23368
835.097	23288
835.235	23353
835.373	23318
835.511	23242
835.65	23193
835.788	23181
835.926	23033
836.064	23022
836.202	22831
836.34	23181
836.478	23220
836.615	23029
836.753	23155
836.891	23208
837.029	23220
837.167	23132
837.305	22995
837.443	23083
837.58	22927
837.718	22919
837.856	22991
837.993	22850
838.131	22991
838.269	22835
838.406	22980
838.544	22850
838.681	22622
838.819	22634
838.956	22405
839.094	22573
839.231	22535
839.369	22603
839.506	22858
839.643	22717
839.781	22337
839.918	22371
840.055	22436
840.193	22455
840.33	22421
840.467	22356
840.604	22455
840.742	22535
840.879	22333
841.016	22310
841.153	22310
841.29	22489
841.427	22356
841.564	22428
841.701	22413
841.838	22329
841.975	22314
842.112	22276
842.249	22360
842.385	22200
842.522	22375
842.659	22367
842.796	22105
842.933	22078
843.069	22120
843.206	22158
843.343	22284
843.479	22131
843.616	22109
843.752	21842
843.889	21876
844.025	22093
844.162	21975
844.298	21895
844.435	21869
844.571	21827
844.708	21941
844.844	22063
844.98	21918
845.117	22059
845.253	21819
845.389	21850
845.525	21739
845.661	21789
845.798	21656
845.934	21629
846.07	21667
846.206	21705
846.342	21785
846.478	21739
846.614	21386
846.75	21367
846.886	21405
847.022	21401
847.158	21431
847.294	21488
847.429	21526
847.565	21412
847.701	21572
847.837	21211
847.972	21104
848.108	21291
848.244	21161
848.379	21154
848.515	20941
848.65	21028
848.786	20883
848.921	21032
849.057	21089
849.192	21017
849.328	21001
849.463	21093
849.598	20956
849.734	20937
849.869	20750
850.004	20807
850.14	20731
850.275	20842
850.41	20743
850.545	20648
850.68	20720
850.815	20796
850.95	20739
851.085	20849
851.22	20838
851.355	20705
851.49	20731
851.625	20773
851.76	20678
851.895	20746
852.03	20640
852.165	20785
852.299	20838
852.434	20708
852.569	20765
852.703	20785
852.838	20788
852.973	20849
853.107	20830
853.242	20621
853.376	20533
853.511	20415
853.645	20473
853.78	20609
853.914	20560
854.048	20514
854.183	20537
854.317	20575
854.451	20750
854.585	20552
854.72	20583
854.854	20575
854.988	20556
855.122	20556
855.256	20511
855.39	20492
855.524	20682
855.658	20568
855.792	20651
855.926	20617
856.06	20617
856.194	20594
856.327	20457
856.461	20454
856.595	20507
856.729	20495
856.862	20678
856.996	20545
857.13	20564
857.263	20670
857.397	20678
857.53	20454
857.664	20625
857.797	20590
857.931	20663
858.064	20659
858.197	20663
858.331	20507
858.464	20438
858.597	20568
858.731	20549
858.864	20602
858.997	20545
859.13	20583
859.263	20606
859.396	20560
859.529	20598
859.662	20511
859.795	20560
859.928	20663
860.061	20716
860.194	20735
860.327	20590
860.46	20549
860.592	20609
860.725	20727
860.858	20720
860.99	20617
861.123	20545
861.256	20511
861.388	20632
861.521	21096
861.653	20579
861.786	20324
861.918	20412
862.05	20442
862.183	20514
862.315	20533
862.447	20476
862.58	20461
862.712	20336
862.844	20301
862.976	20408
863.108	20332
863.24	20758
863.372	20107
863.504	20328
863.636	20275
863.768	20305
863.9	20267
864.032	20267
864.164	20332
864.296	20370
864.428	20419
864.559	20434
864.691	20214
864.823	20214
864.954	20324
865.086	20248
865.217	20328
865.349	20229
865.48	20157
865.612	20092
865.743	20404
865.875	20176
866.006	20122
866.137	20062
866.269	20256
866.4	20103
866.531	20111
866.662	20001
866.793	20187
866.924	20210
867.055	20183
867.186	20180
867.317	20168
867.448	19959
867.579	20020
867.71	20069
867.841	20069
867.972	20172
868.103	20031
868.233	20107
868.364	20092
868.495	20107
868.625	20317
868.756	20476
868.886	20309
869.017	20339
869.147	20556
869.278	20473
869.408	20438
869.539	20324
869.669	20495
869.799	20347
869.929	20434
870.06	20552
870.19	20598
870.32	20644
870.45	20731
870.58	20807
870.71	20899
870.84	20872
870.97	20670
871.1	20815
871.23	21005
871.36	21036
871.489	20807
871.619	20902
871.749	20921
871.879	20937
872.008	21051
872.138	20952
872.267	20967
872.397	20838
872.526	20777
872.656	20902
872.785	20750
872.915	20868
873.044	21074
873.173	20948
873.303	21005
873.432	21104
873.561	21112
873.69	21009
873.819	20982
873.948	21036
874.077	21051
874.206	20914
874.335	21036
874.464	21116
874.593	21252
874.722	21165
874.851	21207
874.979	21135
875.108	21294
875.237	21176
875.365	21123
875.494	21173
875.623	21237
875.751	21245
875.88	21188
876.008	21424
876.136	21443
876.265	21603
876.393	21759
876.521	21762
876.65	21675
876.778	21614
876.906	21568
877.034	21557
877.162	21698
877.29	21504
877.418	21599
877.546	21705
877.674	21652
877.802	21648
877.93	21542
878.058	21679
878.185	21450
878.313	21424
878.441	21564
878.568	21389
878.696	21599
878.824	21523
878.951	21739
879.079	21736
879.206	21922
879.333	21736
879.461	21519
879.588	21648
879.715	21751
879.842	21930
879.97	21637
880.097	21397
880.224	21454
880.351	21412
880.478	21306
880.605	21412
880.732	21545
880.859	21583
880.986	21389
881.112	21462
881.239	21279
881.366	21096
881.493	21051
881.619	20963
881.746	21005
881.872	20937
881.999	20857
882.125	20944
882.252	20963
882.378	20994
882.505	21089
882.631	20792
882.757	20739
882.883	20758
883.01	20667
883.136	20686
883.262	20613
883.388	20465
883.514	20693
883.64	20750
883.766	20587
883.892	20427
884.018	20541
884.143	20537
884.269	20727
884.395	20324
884.52	20328
884.646	20358
884.772	20202
884.897	20145
885.023	20370
885.148	20442
885.274	20465
885.399	20484
885.524	20396
885.65	20385
885.775	20396
885.9	20290
886.025	20434
886.15	20271
886.275	20317
886.4	20263
886.525	20214
886.65	20320
886.775	20267
886.9	20469
887.025	20537
887.149	20259
887.274	20168
887.399	20138
887.523	20202
887.648	20035
887.773	19974
887.897	20191
888.021	20195
888.146	20024
888.27	20027
888.395	20195
888.519	20119
888.643	20065
888.767	20191
888.891	19982
889.015	19970
889.139	20134
889.263	19963
889.387	20084
889.511	20149
889.635	20119
889.759	20008
889.883	19928
890.006	19906
890.13	20153
890.254	19871
890.377	19811
890.501	19651
890.624	19613
890.748	19693
890.871	19655
890.995	19487
891.118	19453
891.241	19529
891.364	19415
891.488	19651
891.611	19533
891.734	19537
891.857	19620
891.98	19441
892.103	19491
892.226	19483
892.349	19480
892.471	19289
892.594	19381
892.717	19495
892.839	19422
892.962	19480
893.085	19480
893.207	19324
893.33	19289
893.452	19403
893.575	19487
893.697	19373
893.819	19567
893.941	19571
894.064	19575
894.186	19480
894.308	19270
894.43	19552
894.552	19590
894.674	19495
894.796	19445
894.918	19407
895.04	19453
895.161	19533
895.283	19556
895.405	19365
895.526	19518
895.648	19441
895.769	19377
895.891	19499
896.012	19491
896.134	19567
896.255	19559
896.376	19362
896.498	19369
896.619	19407
896.74	19419
896.861	19518
896.982	19814
897.103	19940
897.224	19731
897.345	19681
897.466	19655
897.587	19594
897.708	19795
897.828	19784
897.949	19639
898.07	19525
898.19	19616
898.311	19734
898.431	19628
898.552	19674
898.672	19708
898.792	19677
898.913	19750
899.033	19586
899.153	19605
899.273	19362
899.393	19369
899.513	19468
899.633	19460
899.753	19480
899.873	19377
899.993	19464
900.113	19434
900.232	19327
900.352	19362
900.472	19228
900.591	19240
900.711	19247
900.83	19133
900.95	19365
901.069	19297
901.189	19103
901.308	18951
901.427	18844
901.546	18856
901.665	18821
901.784	18810
901.904	18688
902.023	18661
902.141	18467
902.26	18380
902.379	18437
902.498	18323
902.617	18357
902.735	18395
902.854	18251
902.973	18239
903.091	18064
903.21	17954
903.328	18049
903.446	17954
903.565	17767
903.683	17889
903.801	17794
903.919	17946
904.038	17722
904.156	17657
904.274	17680
904.392	17653
904.51	17672
904.627	17532
904.745	17680
904.863	17520
904.981	17452
905.098	17277
905.216	17254
905.334	17436
905.451	17250
905.569	17204
905.686	17223
905.803	17315
905.921	17117
906.038	17178
906.155	17117
906.272	17037
906.389	16908
906.506	16797
906.623	16797
906.74	16805
906.857	16721
906.974	16744
907.091	16908
907.208	16862
907.324	16885
907.441	16763
907.557	16607
907.674	16542
907.79	16508
907.907	16519
908.023	16653
908.139	16596
908.256	16500
908.372	16424
908.488	16299
908.604	16249
908.72	16230
908.836	16200
908.952	16280
909.068	16314
909.184	16402
909.3	16238
909.415	16341
909.531	16219
909.647	15964
909.762	16074
909.878	15895
909.993	16013
910.108	15953
910.224	15983
910.339	15956
910.454	15835
910.57	15819
910.685	15770
910.8	16013
910.915	16017
911.03	15789
911.145	15610
911.259	15561
911.374	15530
911.489	15538
911.604	15412
911.718	15302
911.833	15397
911.947	15214
912.062	15184
912.176	15336
912.291	15329
912.405	15351
912.519	15485
912.633	15488
912.748	15363
912.862	15344
912.976	15112
913.09	15119
913.204	15108
913.318	15100
913.431	15245
913.545	15222
913.659	15157
913.772	15207
913.886	15077
914	14918
914.113	15062
914.226	15081
914.34	14990
914.453	14857
914.566	14925
914.68	14845
914.793	14872
914.906	14648
915.019	14568
915.132	14530
915.245	14568
915.358	14602
915.47	14705
915.583	14533
915.696	14651
915.809	14678
915.921	14712
916.034	14473
916.146	14545
916.259	14434
916.371	14537
916.483	14522
916.595	14400
916.708	14469
916.82	14465
916.932	14366
917.044	14362
917.156	14381
917.268	14263
917.38	14282
917.491	14218
917.603	14385
917.715	14275
917.826	14271
917.938	14324
918.049	14111
918.161	14176
918.272	14393
918.384	14317
918.495	14157
918.606	14130
918.717	13986
918.828	14111
918.939	14134
919.05	13951
919.161	13982
919.272	13742
919.383	13879
919.494	14092
919.604	14210
919.715	14008
919.826	13947
919.936	13970
920.047	13993
920.157	13997
920.267	14161
920.378	13982
920.488	13997
920.598	14153
920.708	14282
920.818	14134
920.928	14134
921.038	14377
921.148	14210
921.258	13978
921.368	13849
921.477	13727
921.587	13750
921.697	13696
921.806	13734
921.916	13655
922.025	13476
922.134	13362
922.244	13422
922.353	13457
922.462	13339
922.571	13247
922.68	13099
922.789	13099
922.898	13034
923.007	13000
923.116	13107
923.224	13031
923.333	13065
923.442	12966
923.55	12844
923.659	12962
923.767	13023
923.876	12833
923.984	12894
924.092	12795
924.201	12829
924.309	12810
924.417	12814
924.525	12673
924.633	12753
924.741	13651
924.849	12563
924.956	12707
925.064	12506
925.172	12464
925.279	12441
925.387	12502
925.494	12486
925.602	12623
925.709	12509
925.816	12460
925.924	12445
926.031	12494
926.138	12566
926.245	12330
926.352	12410
926.459	12330
926.566	12467
926.673	12384
926.779	12197
926.886	12175
926.993	12144
927.099	12095
927.206	12091
927.312	12098
927.419	12121
927.525	12057
927.631	12049
927.737	11942
927.843	11942
927.95	11878
928.056	11916
928.162	12007
928.267	11901
928.373	12582
928.479	11954
928.585	11741
928.69	11771
928.796	11878
928.901	11737
929.007	11592
929.112	11813
929.218	11813
929.323	11699
929.428	11638
929.533	11703
929.638	11512
929.743	11577
929.848	11668
929.953	11585
930.058	11512
930.163	11364
930.267	11391
930.372	11387
930.477	11250
930.581	11433
930.685	11398
930.79	11208
930.894	11296
930.998	11239
931.103	11307
931.207	10961
931.311	10896
931.415	10930
931.519	10615
931.623	10577
