Data from test_V78500241_1216.txt Node
Date: Fri Mar 25 15:18:19 CST 2022
User: usil
Spectrometer: V785-0024
Trigger mode: 0
Integration Time (sec): 4.000000E-1
Scans to average: 1
Nonlinearity correction enabled: false
Boxcar width: 0
Storing dark spectrum: false
XAxis mode: Wavelengths
Number of Pixels in Spectrum: 1024
>>>>>Begin Spectral Data<<<<<
801.071	28215
801.214	28131
801.356	27994
801.499	27888
801.641	27827
801.783	27618
801.926	27739
802.068	27789
802.211	27644
802.353	27526
802.496	27450
802.638	27374
802.78	27492
802.923	27408
803.065	27252
803.208	27306
803.35	27401
803.492	27603
803.635	27583
803.777	27511
803.919	27564
804.061	27922
804.204	27812
804.346	27656
804.488	27466
804.63	27568
804.773	27500
804.915	27686
805.057	27751
805.199	27686
805.341	27739
805.483	27827
805.626	27766
805.768	27595
805.91	27762
806.052	27667
806.194	27743
806.336	27983
806.478	27869
806.62	27911
806.762	28063
806.904	28116
807.046	28242
807.188	28257
807.33	28128
807.472	28207
807.614	28253
807.756	28185
807.898	28147
808.04	28002
808.182	27975
808.324	28048
808.465	28150
808.607	28188
808.749	28401
808.891	28500
809.033	28691
809.174	28478
809.316	28333
809.458	28360
809.6	28375
809.741	28508
809.883	28535
810.025	28767
810.166	28702
810.308	28752
810.45	28763
810.591	28653
810.733	28607
810.875	28352
811.016	28417
811.158	28363
811.299	28512
811.441	28603
811.582	28512
811.724	28394
811.865	28554
812.007	28314
812.148	28424
812.29	28538
812.431	28713
812.573	28736
812.714	28961
812.855	28930
812.997	28953
813.138	29151
813.279	29170
813.421	29033
813.562	28953
813.703	28801
813.845	28710
813.986	28386
814.127	28367
814.268	28226
814.41	28154
814.551	28158
814.692	28166
814.833	28097
814.974	28135
815.115	28021
815.256	28082
815.397	27998
815.539	28067
815.68	27945
815.821	27994
815.962	27983
816.103	27972
816.244	27918
816.385	27720
816.526	27713
816.666	27450
816.807	27515
816.948	27580
817.089	27603
817.23	27485
817.371	27466
817.512	27405
817.653	27454
817.793	27401
817.934	27439
818.075	27416
818.216	27477
818.356	27389
818.497	27386
818.638	27230
818.778	27275
818.919	27226
819.06	27275
819.2	27397
819.341	27595
819.481	27458
819.622	27637
819.762	27766
819.903	27671
820.043	27671
820.184	27637
820.324	27416
820.465	27751
820.605	27553
820.746	27660
820.886	27386
821.026	27625
821.167	27591
821.307	27568
821.447	27435
821.588	27241
821.728	27298
821.868	27077
822.008	26979
822.149	26887
822.289	26868
822.429	26583
822.569	26621
822.709	26743
822.849	26511
822.99	26518
823.13	26431
823.27	26446
823.41	26309
823.55	26164
823.69	26275
823.83	26301
823.97	26259
824.11	25944
824.25	26115
824.389	26130
824.529	26210
824.669	26210
824.809	26187
824.949	26221
825.089	26122
825.228	26168
825.368	25875
825.508	25947
825.648	26149
825.787	25947
825.927	26035
826.067	26046
826.206	25997
826.346	25940
826.485	26092
826.625	25928
826.765	26027
826.904	26069
827.044	25750
827.183	25849
827.323	25738
827.462	25704
827.601	25814
827.741	25712
827.88	25734
828.02	25609
828.159	25689
828.298	25731
828.437	25734
828.577	25571
828.716	25864
828.855	25715
828.994	25377
829.134	25407
829.273	25468
829.412	25331
829.551	25350
829.69	25438
829.829	25487
829.968	25552
830.107	25563
830.246	25590
830.385	25396
830.524	25308
830.663	25236
830.802	25103
830.941	25061
831.08	24894
831.219	25168
831.357	25061
831.496	25225
831.635	25183
831.774	25038
831.913	24897
832.051	24810
832.19	24856
832.329	24829
832.467	24779
832.606	24817
832.744	24665
832.883	24703
833.022	24623
833.16	24604
833.299	24730
833.437	24749
833.576	24787
833.714	24764
833.852	24886
833.991	24795
834.129	24890
834.267	24852
834.406	24730
834.544	24764
834.682	24875
834.821	24859
834.959	25027
835.097	24730
835.235	24821
835.373	24829
835.511	24810
835.65	24665
835.788	24673
835.926	24490
836.064	24486
836.202	24570
836.34	24509
836.478	24700
836.615	24589
836.753	24650
836.891	24696
837.029	24582
837.167	24448
837.305	24426
837.443	24585
837.58	24323
837.718	24601
837.856	24403
837.993	24403
838.131	24540
838.269	24361
838.406	24452
838.544	24399
838.681	24163
838.819	24095
838.956	23904
839.094	23999
839.231	23950
839.369	24091
839.506	24327
839.643	24076
839.781	23923
839.918	23851
840.055	23802
840.193	23828
840.33	23851
840.467	23912
840.604	23783
840.742	24079
840.879	23824
841.016	23760
841.153	23653
841.29	23885
841.427	23764
841.564	23832
841.701	23859
841.838	23794
841.975	23611
842.112	23824
842.249	23623
842.385	23543
842.522	23764
842.659	23638
842.796	23585
842.933	23630
843.069	23520
843.206	23490
843.343	23608
843.479	23570
843.616	23539
843.752	23459
843.889	23376
844.025	23455
844.162	23311
844.298	23471
844.435	23303
844.571	23261
844.708	23349
844.844	23448
844.98	23490
845.117	23436
845.253	23288
845.389	23250
845.525	23284
845.661	23239
845.798	23124
845.934	23239
846.07	23090
846.206	23052
846.342	23189
846.478	23052
846.614	22831
846.75	22725
846.886	22812
847.022	22862
847.158	22896
847.294	22896
847.429	22816
847.565	22744
847.701	22965
847.837	22603
847.972	22611
848.108	22603
848.244	22752
848.379	22440
848.515	22523
848.65	22303
848.786	22413
848.921	22363
849.057	22447
849.192	22405
849.328	22508
849.463	22310
849.598	22394
849.734	22303
849.869	22268
850.004	22188
850.14	22158
850.275	22306
850.41	22082
850.545	22021
850.68	22188
850.815	22280
850.95	22246
851.085	22310
851.22	22306
851.355	22215
851.49	22166
851.625	22188
851.76	22261
851.895	22299
852.03	22074
852.165	22158
852.299	22238
852.434	22272
852.569	22097
852.703	22097
852.838	22295
852.973	22295
853.107	22295
853.242	22135
853.376	22120
853.511	21949
853.645	21994
853.78	21979
853.914	22032
854.048	21991
854.183	22017
854.317	22105
854.451	22215
854.585	22021
854.72	21869
854.854	22101
854.988	21808
855.122	21968
855.256	21907
855.39	22040
855.524	22074
855.658	22044
855.792	22051
855.926	22040
856.06	22055
856.194	22128
856.327	21987
856.461	22025
856.595	21895
856.729	21876
856.862	22116
856.996	22131
857.13	22101
857.263	22162
857.397	22055
857.53	21994
857.664	22112
857.797	21998
857.931	22093
858.064	22070
858.197	22131
858.331	21972
858.464	21915
858.597	21686
858.731	21960
858.864	21907
858.997	21934
859.13	22082
859.263	21964
859.396	22029
859.529	21968
859.662	21983
859.795	21953
859.928	21930
860.061	22215
860.194	22185
860.327	22112
860.46	22051
860.592	22192
860.725	22158
860.858	22158
860.99	21907
861.123	21975
861.256	21968
861.388	21892
861.521	22733
861.653	21800
861.786	21743
861.918	21865
862.05	21808
862.183	21937
862.315	21873
862.447	21945
862.58	21994
862.712	21774
862.844	21660
862.976	21728
863.108	21816
863.24	22040
863.372	21682
863.504	21698
863.636	21667
863.768	21622
863.9	21701
864.032	21523
864.164	21618
864.296	21633
864.428	21880
864.559	21720
864.691	21831
864.823	21717
864.954	21698
865.086	21660
865.217	21622
865.349	21412
865.48	21580
865.612	21572
865.743	21797
865.875	21545
866.006	21473
866.137	21576
866.269	21557
866.4	21428
866.531	21557
866.662	21443
866.793	21595
866.924	21542
867.055	21641
867.186	21572
867.317	21462
867.448	21485
867.579	21397
867.71	21435
867.841	21454
867.972	21469
868.103	21466
868.233	21492
868.364	21408
868.495	21553
868.625	21812
868.756	21876
868.886	21667
869.017	21656
869.147	21713
869.278	21884
869.408	21846
869.539	21789
869.669	21679
869.799	21873
869.929	21869
870.06	21816
870.19	21979
870.32	22082
870.45	22135
870.58	22185
870.71	22207
870.84	22219
870.97	22112
871.1	22234
871.23	22299
871.36	22386
871.489	22337
871.619	22344
871.749	22276
871.879	22466
872.008	22493
872.138	22379
872.267	22287
872.397	22116
872.526	22196
872.656	22143
872.785	22192
872.915	22363
873.044	22443
873.173	22348
873.303	22299
873.432	22325
873.561	22462
873.69	22314
873.819	22398
873.948	22409
874.077	22443
874.206	22367
874.335	22325
874.464	22485
874.593	22679
874.722	22569
874.851	22584
874.979	22592
875.108	22626
875.237	22417
875.365	22451
875.494	22500
875.623	22797
875.751	22497
875.88	22462
876.008	22725
876.136	22729
876.265	22911
876.393	23143
876.521	23037
876.65	23029
876.778	23041
876.906	22984
877.034	22881
877.162	22847
877.29	22809
877.418	23006
877.546	22938
877.674	22953
877.802	22854
877.93	22904
878.058	22812
878.185	22774
878.313	22892
878.441	22889
878.568	22744
878.696	22942
878.824	22957
878.951	22946
879.079	22991
879.206	23174
879.333	23018
879.461	22923
879.588	23037
879.715	22995
879.842	23151
879.97	23079
880.097	22755
880.224	22752
880.351	22793
880.478	22786
880.605	22675
880.732	22694
880.859	22873
880.986	22618
881.112	22790
881.239	22607
881.366	22618
881.493	22367
881.619	22215
881.746	22398
881.872	22314
881.999	22390
882.125	22284
882.252	22341
882.378	22299
882.505	22386
882.631	22090
882.757	22055
882.883	21945
883.01	21991
883.136	21895
883.262	21899
883.388	21793
883.514	22036
883.64	22025
883.766	21861
883.892	21838
884.018	21797
884.143	21922
884.269	22063
884.395	21656
884.52	21545
884.646	21622
884.772	21648
884.897	21469
885.023	21618
885.148	21614
885.274	21705
885.399	21759
885.524	21591
885.65	21603
885.775	21561
885.9	21595
886.025	21724
886.15	21656
886.275	21656
886.4	21504
886.525	21500
886.65	21500
886.775	21447
886.9	21835
887.025	21793
887.149	21603
887.274	21523
887.399	21450
887.523	21401
887.648	21306
887.773	21272
887.897	21458
888.021	21389
888.146	21412
888.27	21435
888.395	21492
888.519	21466
888.643	21378
888.767	21492
888.891	21237
889.015	21188
889.139	21207
889.263	21165
889.387	21249
889.511	21355
889.635	21302
889.759	21013
889.883	21214
890.006	21123
890.13	21226
890.254	20998
890.377	21169
890.501	20933
890.624	20918
890.748	20967
890.871	20971
890.995	20663
891.118	20731
891.241	20743
891.364	20716
891.488	20933
891.611	20811
891.734	20716
891.857	20712
891.98	20762
892.103	20796
892.226	20609
892.349	20625
892.471	20473
892.594	20731
892.717	20701
892.839	20655
892.962	20682
893.085	20697
893.207	20708
893.33	20552
893.452	20541
893.575	20609
893.697	20488
893.819	20826
893.941	20773
894.064	20724
894.186	20636
894.308	20568
894.43	20754
894.552	20678
894.674	20689
894.796	20560
894.918	20602
895.04	20674
895.161	20659
895.283	20716
895.405	20469
895.526	20640
895.648	20689
895.769	20701
895.891	20583
896.012	20659
896.134	20659
896.255	20701
896.376	20522
896.498	20682
896.619	20587
896.74	20629
896.861	20655
896.982	20963
897.103	20986
897.224	20899
897.345	20754
897.466	20800
897.587	20804
897.708	21001
897.828	20785
897.949	20724
898.07	20636
898.19	20686
898.311	20937
898.431	20781
898.552	20880
898.672	20773
898.792	20845
898.913	20845
899.033	20689
899.153	20571
899.273	20511
899.393	20503
899.513	20568
899.633	20488
899.753	20469
899.873	20488
899.993	20560
900.113	20434
900.232	20549
900.352	20469
900.472	20347
900.591	20320
900.711	20370
900.83	20290
900.95	20480
901.069	20446
901.189	20252
901.308	20012
901.427	19944
901.546	19978
901.665	19944
901.784	19928
901.904	19837
902.023	19757
902.141	19434
902.26	19544
902.379	19453
902.498	19430
902.617	19354
902.735	19419
902.854	19476
902.973	19362
903.091	19171
903.21	19137
903.328	19034
903.446	18985
903.565	18886
903.683	18935
903.801	18844
903.919	18875
904.038	18696
904.156	18681
904.274	18757
904.392	18646
904.51	18642
904.627	18601
904.745	18719
904.863	18738
904.981	18372
905.098	18327
905.216	18399
905.334	18266
905.451	18452
905.569	18186
905.686	18327
905.803	18403
905.921	18064
906.038	18197
906.155	18239
906.272	17954
906.389	17992
906.506	17821
906.623	17965
906.74	17832
906.857	17722
906.974	17786
907.091	17965
907.208	17992
907.324	17794
907.441	17745
907.557	17589
907.674	17539
907.79	17524
907.907	17551
908.023	17547
908.139	17592
908.256	17512
908.372	17414
908.488	17315
908.604	17337
908.72	17223
908.836	17292
908.952	17356
909.068	17246
909.184	17444
909.3	17315
909.415	17315
909.531	17334
909.647	17045
909.762	17033
909.878	16942
909.993	17006
910.108	16869
910.224	16873
910.339	16961
910.454	16812
910.57	16752
910.685	16755
910.8	16938
910.915	16919
911.03	16740
911.145	16531
911.259	16664
911.374	16603
911.489	16546
911.604	16478
911.718	16341
911.833	16253
911.947	16234
912.062	16040
912.176	16299
912.291	16272
912.405	16268
912.519	16478
912.633	16538
912.748	16424
912.862	16291
912.976	16074
913.09	15983
913.204	16109
913.318	16105
913.431	16131
913.545	16196
913.659	16253
913.772	15964
913.886	15994
914	15827
914.113	15941
914.226	15994
914.34	15945
914.453	15907
914.566	15888
914.68	15895
914.793	15686
914.906	15557
915.019	15534
915.132	15469
915.245	15405
915.358	15534
915.47	15576
915.583	15519
915.696	15530
915.809	15690
915.921	15561
916.034	15580
916.146	15393
916.259	15367
916.371	15507
916.483	15443
916.595	15237
916.708	15336
916.82	15367
916.932	15272
917.044	15283
917.156	15272
917.268	15135
917.38	15089
917.491	15081
917.603	15192
917.715	15268
917.826	15351
917.938	14998
918.049	14929
918.161	15081
918.272	15135
918.384	15195
918.495	15032
918.606	15009
918.717	14876
918.828	14842
918.939	14872
919.05	14819
919.161	14952
919.272	14587
919.383	14826
919.494	14906
919.604	14979
919.715	14899
919.826	14754
919.936	14853
920.047	14906
920.157	14830
920.267	15020
920.378	14899
920.488	14758
920.598	15009
920.708	15157
920.818	15009
920.928	14990
921.038	15173
921.148	15104
921.258	14746
921.368	14777
921.477	14598
921.587	14564
921.697	14431
921.806	14686
921.916	14434
922.025	14172
922.134	14256
922.244	14176
922.353	14199
922.462	14073
922.571	14039
922.68	13864
922.789	13883
922.898	13830
923.007	13822
923.116	13864
923.224	13860
923.333	13830
923.442	13772
923.55	13677
923.659	13674
923.767	13651
923.876	13632
923.984	13700
924.092	13460
924.201	13605
924.309	13609
924.417	13559
924.525	13525
924.633	13445
924.741	14294
924.849	13377
924.956	13419
925.064	13388
925.172	13278
925.279	13297
925.387	13251
925.494	13335
925.602	13324
925.709	13304
925.816	13107
925.924	13168
926.031	13289
926.138	13183
926.245	13266
926.352	13057
926.459	13198
926.566	13251
926.673	13038
926.779	12871
926.886	12973
926.993	12757
927.099	12875
927.206	12837
927.312	12764
927.419	12772
927.525	12863
927.631	12829
927.737	12544
927.843	12692
927.95	12597
928.056	12631
928.162	12604
928.267	12612
928.373	13133
928.479	12711
928.585	12410
928.69	12509
928.796	12635
928.901	12475
929.007	12292
929.112	12513
929.218	12391
929.323	12410
929.428	12403
929.533	12441
929.638	12254
929.743	12266
929.848	12334
929.953	12247
930.058	12155
930.163	11961
930.267	11992
930.372	12190
930.477	11954
930.581	12220
930.685	12098
930.79	11904
930.894	11923
930.998	11783
931.103	12022
931.207	11680
931.311	11619
931.415	11512
931.519	11349
931.623	11227
