Data from test_V78500241_2536.txt Node
Date: Fri Mar 25 15:27:31 CST 2022
User: usil
Spectrometer: V785-0024
Trigger mode: 0
Integration Time (sec): 4.000000E-1
Scans to average: 1
Nonlinearity correction enabled: false
Boxcar width: 0
Storing dark spectrum: false
XAxis mode: Wavelengths
Number of Pixels in Spectrum: 1024
>>>>>Begin Spectral Data<<<<<
801.071	27157
801.214	27123
801.356	26910
801.499	26754
801.641	26746
801.783	26716
801.926	26842
802.068	26579
802.211	26587
802.353	26609
802.496	26461
802.638	26370
802.78	26278
802.923	26332
803.065	26259
803.208	26317
803.35	26324
803.492	26362
803.635	26457
803.777	26339
803.919	26655
804.061	26807
804.204	26655
804.346	26442
804.488	26488
804.63	26511
804.773	26507
804.915	26511
805.057	26594
805.199	26347
805.341	26613
805.483	26640
805.626	26617
805.768	26442
805.91	26568
806.052	26644
806.194	26453
806.336	26842
806.478	26655
806.62	26655
806.762	26765
806.904	26887
807.046	27096
807.188	27081
807.33	26998
807.472	27218
807.614	27070
807.756	26948
807.898	26960
808.04	26826
808.182	26807
808.324	26910
808.465	26990
808.607	26971
808.749	27317
808.891	27264
809.033	27420
809.174	27310
809.316	27146
809.458	27100
809.6	27173
809.741	27256
809.883	27317
810.025	27473
810.166	27538
810.308	27374
810.45	27511
810.591	27511
810.733	27199
810.875	27268
811.016	27146
811.158	27051
811.299	27325
811.441	27416
811.582	27401
811.724	27359
811.865	27176
812.007	27313
812.148	27279
812.29	27252
812.431	27397
812.573	27526
812.714	27698
812.855	27671
812.997	27732
813.138	27987
813.279	27907
813.421	27838
813.562	27511
813.703	27511
813.845	27344
813.986	27123
814.127	26960
814.268	26910
814.41	26895
814.551	26887
814.692	27013
814.833	26697
814.974	26815
815.115	26807
815.256	26682
815.397	26842
815.539	26853
815.68	26659
815.821	26526
815.962	26636
816.103	26594
816.244	26461
816.385	26442
816.526	26396
816.666	26233
816.807	26024
816.948	26309
817.089	26225
817.23	26149
817.371	26210
817.512	26119
817.653	26107
817.793	25989
817.934	26073
818.075	26138
818.216	26115
818.356	26039
818.497	25936
818.638	25818
818.778	25879
818.919	25947
819.06	25925
819.2	26008
819.341	25997
819.481	26134
819.622	26225
819.762	26434
819.903	26495
820.043	26415
820.184	26282
820.324	26229
820.465	26286
820.605	26134
820.746	26187
820.886	26050
821.026	26172
821.167	26271
821.307	26370
821.447	26084
821.588	26111
821.728	26020
821.868	25818
822.008	25533
822.149	25605
822.289	25514
822.429	25449
822.569	25381
822.709	25240
822.849	25091
822.99	25088
823.13	25095
823.27	25038
823.41	24985
823.55	24894
823.69	24939
823.83	24886
823.97	24943
824.11	24703
824.25	24753
824.389	24741
824.529	24817
824.669	24734
824.809	24791
824.949	24749
825.089	24791
825.228	24582
825.368	24620
825.508	24627
825.648	24563
825.787	24650
825.927	24673
826.067	24604
826.206	24589
826.346	24734
826.485	24795
826.625	24616
826.765	24833
826.904	24760
827.044	24429
827.183	24498
827.323	24330
827.462	24460
827.601	24228
827.741	24357
827.88	24262
828.02	24277
828.159	24346
828.298	24361
828.437	24395
828.577	24209
828.716	24346
828.855	24429
828.994	24117
829.134	23992
829.273	23973
829.412	24053
829.551	23961
829.69	24140
829.829	24018
829.968	24174
830.107	24022
830.246	23950
830.385	23916
830.524	23840
830.663	23866
830.802	23737
830.941	23718
831.08	23802
831.219	23733
831.357	23710
831.496	23809
831.635	23611
831.774	23623
831.913	23547
832.051	23505
832.19	23448
832.329	23402
832.467	23360
832.606	23239
832.744	23307
832.883	23433
833.022	23315
833.16	23337
833.299	23345
833.437	23345
833.576	23337
833.714	23417
833.852	23452
833.991	23528
834.129	23436
834.267	23486
834.406	23402
834.544	23474
834.682	23474
834.821	23387
834.959	23539
835.097	23433
835.235	23391
835.373	23459
835.511	23372
835.65	23406
835.788	23265
835.926	23208
836.064	23124
836.202	23140
836.34	23185
836.478	23353
836.615	23193
836.753	23330
836.891	23379
837.029	23322
837.167	23227
837.305	23239
837.443	23277
837.58	23151
837.718	23090
837.856	23060
837.993	23071
838.131	23140
838.269	23025
838.406	23025
838.544	22980
838.681	22866
838.819	22717
838.956	22634
839.094	22611
839.231	22675
839.369	22835
839.506	22953
839.643	22904
839.781	22618
839.918	22546
840.055	22599
840.193	22481
840.33	22516
840.467	22618
840.604	22626
840.742	22919
840.879	22436
841.016	22535
841.153	22371
841.29	22641
841.427	22481
841.564	22580
841.701	22580
841.838	22542
841.975	22386
842.112	22573
842.249	22398
842.385	22280
842.522	22592
842.659	22531
842.796	22287
842.933	22394
843.069	22306
843.206	22295
843.343	22360
843.479	22291
843.616	22257
843.752	22173
843.889	22131
844.025	22158
844.162	22040
844.298	22078
844.435	22196
844.571	22101
844.708	22101
844.844	22276
844.98	22318
845.117	22036
845.253	21979
845.389	21937
845.525	22074
845.661	21876
845.798	21934
845.934	21800
846.07	21781
846.206	21739
846.342	21888
846.478	21846
846.614	21606
846.75	21458
846.886	21599
847.022	21709
847.158	21542
847.294	21549
847.429	21682
847.565	21568
847.701	21671
847.837	21359
847.972	21165
848.108	21374
848.244	21431
848.379	21222
848.515	21013
848.65	20998
848.786	21127
848.921	21169
849.057	21272
849.192	21207
849.328	21272
849.463	21062
849.598	21169
849.734	21081
849.869	21013
850.004	20853
850.14	20986
850.275	20975
850.41	20777
850.545	20906
850.68	20842
850.815	20941
850.95	20956
851.085	21119
851.22	20967
851.355	20975
851.49	20872
851.625	20872
851.76	20891
851.895	20853
852.03	20937
852.165	20960
852.299	20941
852.434	20979
852.569	20956
852.703	20868
852.838	20921
852.973	21062
853.107	21077
853.242	20834
853.376	20758
853.511	20583
853.645	20804
853.78	20743
853.914	20724
854.048	20727
854.183	20720
854.317	20670
854.451	20861
854.585	20724
854.72	20785
854.854	20826
854.988	20571
855.122	20781
855.256	20473
855.39	20667
855.524	20864
855.658	20651
855.792	20731
855.926	20785
856.06	20754
856.194	20796
856.327	20724
856.461	20659
856.595	20735
856.729	20655
856.862	20804
856.996	20838
857.13	20716
857.263	20933
857.397	20861
857.53	20689
857.664	20842
857.797	20819
857.931	20746
858.064	20693
858.197	20773
858.331	20777
858.464	20678
858.597	20727
858.731	20648
858.864	20743
858.997	20697
859.13	20754
859.263	20750
859.396	20807
859.529	20686
859.662	20609
859.795	20659
859.928	20754
860.061	20906
860.194	20925
860.327	20788
860.46	20636
860.592	20758
860.725	20762
860.858	20876
860.99	20636
861.123	20644
861.256	20640
861.388	20819
861.521	21458
861.653	20590
861.786	20469
861.918	20602
862.05	20560
862.183	20663
862.315	20705
862.447	20762
862.58	20594
862.712	20511
862.844	20278
862.976	20492
863.108	20568
863.24	20895
863.372	20526
863.504	20522
863.636	20545
863.768	20530
863.9	20347
864.032	20473
864.164	20454
864.296	20484
864.428	20674
864.559	20499
864.691	20632
864.823	20358
864.954	20423
865.086	20503
865.217	20298
865.349	20309
865.48	20442
865.612	20294
865.743	20492
865.875	20431
866.006	20404
866.137	20377
866.269	20339
866.4	20396
866.531	20278
866.662	20161
866.793	20244
866.924	20267
867.055	20427
867.186	20328
867.317	20195
867.448	20202
867.579	20393
867.71	20324
867.841	20180
867.972	20271
868.103	20336
868.233	20248
868.364	20400
868.495	20370
868.625	20431
868.756	20579
868.886	20366
869.017	20590
869.147	20697
869.278	20800
869.408	20522
869.539	20511
869.669	20625
869.799	20450
869.929	20579
870.06	20659
870.19	20838
870.32	20819
870.45	20853
870.58	20883
870.71	20933
870.84	21020
870.97	20963
871.1	20963
871.23	21096
871.36	21188
871.489	21116
871.619	21074
871.749	21058
871.879	21108
872.008	21283
872.138	21199
872.267	21249
872.397	20979
872.526	20986
872.656	20979
872.785	20963
872.915	21252
873.044	21287
873.173	21173
873.303	21233
873.432	21199
873.561	21180
873.69	21104
873.819	21332
873.948	21195
874.077	21195
874.206	21062
874.335	21138
874.464	21340
874.593	21424
874.722	21359
874.851	21473
874.979	21488
875.108	21454
875.237	21378
875.365	21203
875.494	21397
875.623	21386
875.751	21397
875.88	21431
876.008	21538
876.136	21599
876.265	21873
876.393	21816
876.521	21888
876.65	21865
876.778	21694
876.906	21846
877.034	21728
877.162	21675
877.29	21625
877.418	21838
877.546	21675
877.674	21797
877.802	21903
877.93	21686
878.058	21736
878.185	21633
878.313	21720
878.441	21800
878.568	21431
878.696	21553
878.824	21736
878.951	21934
879.079	21873
879.206	22074
879.333	22029
879.461	21762
879.588	21937
879.715	21934
879.842	22120
879.97	21648
880.097	21576
880.224	21511
880.351	21576
880.478	21644
880.605	21507
880.732	21526
880.859	21808
880.986	21591
881.112	21614
881.239	21325
881.366	21264
881.493	21359
881.619	21142
881.746	21226
881.872	21199
881.999	21127
882.125	21176
882.252	21241
882.378	21207
882.505	21233
882.631	21032
882.757	20861
882.883	20979
883.01	20925
883.136	20773
883.262	20777
883.388	20746
883.514	20792
883.64	20861
883.766	20777
883.892	20609
884.018	20693
884.143	20804
884.269	20849
884.395	20617
884.52	20476
884.646	20530
884.772	20560
884.897	20644
885.023	20446
885.148	20495
885.274	20537
885.399	20636
885.524	20522
885.65	20674
885.775	20564
885.9	20617
886.025	20556
886.15	20644
886.275	20473
886.4	20404
886.525	20454
886.65	20396
886.775	20358
886.9	20499
887.025	20720
887.149	20507
887.274	20271
887.399	20275
887.523	20343
887.648	20252
887.773	20191
887.897	20290
888.021	20259
888.146	20199
888.27	20305
888.395	20457
888.519	20385
888.643	20305
888.767	20320
888.891	20134
889.015	20199
889.139	20275
889.263	20039
889.387	20263
889.511	20286
889.635	20107
889.759	20138
889.883	20027
890.006	20195
890.13	20149
890.254	20122
890.377	19982
890.501	19875
890.624	19837
890.748	19947
890.871	19788
890.995	19681
891.118	19712
891.241	19731
891.364	19708
891.488	19830
891.611	19795
891.734	19605
891.857	19674
891.98	19696
892.103	19769
892.226	19685
892.349	19487
892.471	19460
892.594	19571
892.717	19658
892.839	19533
892.962	19563
893.085	19696
893.207	19632
893.33	19476
893.452	19510
893.575	19582
893.697	19582
893.819	19658
893.941	19803
894.064	19769
894.186	19575
894.308	19609
894.43	19685
894.552	19765
894.674	19632
894.796	19438
894.918	19628
895.04	19548
895.161	19647
895.283	19662
895.405	19525
895.526	19601
895.648	19586
895.769	19578
895.891	19586
896.012	19666
896.134	19708
896.255	19643
896.376	19529
896.498	19590
896.619	19597
896.74	19677
896.861	19601
896.982	19822
897.103	20073
897.224	19788
897.345	19742
897.466	19723
897.587	19750
897.708	19826
897.828	19970
897.949	19761
898.07	19681
898.19	19780
898.311	19887
898.431	19830
898.552	19833
898.672	19887
898.792	19978
898.913	19890
899.033	19613
899.153	19609
899.273	19518
899.393	19685
899.513	19670
899.633	19525
899.753	19624
899.873	19521
899.993	19582
900.113	19552
900.232	19502
900.352	19491
900.472	19567
900.591	19358
900.711	19396
900.83	19274
900.95	19415
901.069	19346
901.189	19240
901.308	19133
901.427	18916
901.546	18913
901.665	18886
901.784	18920
901.904	18848
902.023	18722
902.141	18544
902.26	18433
902.379	18525
902.498	18391
902.617	18471
902.735	18448
902.854	18388
902.973	18426
903.091	18281
903.21	18091
903.328	18140
903.446	18148
903.565	18030
903.683	17916
903.801	17893
903.919	17855
904.038	18022
904.156	17687
904.274	17798
904.392	17805
904.51	17661
904.627	17710
904.745	17786
904.863	17783
904.981	17516
905.098	17383
905.216	17554
905.334	17459
905.451	17345
905.569	17505
905.686	17509
905.803	17349
905.921	17216
906.038	17383
906.155	17220
906.272	17170
906.389	17143
906.506	16858
906.623	17117
906.74	16889
906.857	16839
906.974	16892
907.091	16961
907.208	17041
907.324	16961
907.441	16831
907.557	16691
907.674	16630
907.79	16656
907.907	16634
908.023	16656
908.139	16763
908.256	16664
908.372	16481
908.488	16630
908.604	16424
908.72	16405
908.836	16382
908.952	16325
909.068	16413
909.184	16485
909.3	16356
909.415	16413
909.531	16337
909.647	16150
909.762	16223
909.878	16071
909.993	16154
910.108	16044
910.224	16044
910.339	16150
910.454	16021
910.57	15934
910.685	15835
910.8	16090
910.915	16048
911.03	15899
911.145	15720
911.259	15755
911.374	15774
911.489	15717
911.604	15656
911.718	15519
911.833	15401
911.947	15424
912.062	15363
912.176	15534
912.291	15618
912.405	15526
912.519	15701
912.633	15698
912.748	15542
912.862	15458
912.976	15195
913.09	15097
913.204	15260
913.318	15374
913.431	15340
913.545	15393
913.659	15401
913.772	15310
913.886	15195
914	15112
914.113	15108
914.226	15199
914.34	15127
914.453	15036
914.566	15169
914.68	14902
914.793	14876
914.906	14773
915.019	14701
915.132	14651
915.245	14594
915.358	14689
915.47	14701
915.583	14720
915.696	14697
915.809	14800
915.921	14762
916.034	14613
916.146	14655
916.259	14454
916.371	14720
916.483	14648
916.595	14571
916.708	14636
916.82	14533
916.932	14377
917.044	14476
917.156	14495
917.268	14305
917.38	14320
917.491	14358
917.603	14183
917.715	14419
917.826	14598
917.938	14298
918.049	14267
918.161	14317
918.272	14355
918.384	14415
918.495	14347
918.606	14225
918.717	14012
918.828	14123
918.939	14111
919.05	14092
919.161	14172
919.272	13902
919.383	13963
919.494	14126
919.604	14343
919.715	14050
919.826	14115
919.936	14126
920.047	14126
920.157	14100
920.267	14305
920.378	14115
920.488	14065
920.598	14176
920.708	14434
920.818	14187
920.928	14294
921.038	14385
921.148	14408
921.258	14103
921.368	13967
921.477	13849
921.587	13841
921.697	13780
921.806	13799
921.916	13757
922.025	13525
922.134	13518
922.244	13403
922.353	13544
922.462	13422
922.571	13297
922.68	13190
922.789	13103
922.898	13213
923.007	13027
923.116	13194
923.224	13168
923.333	13160
923.442	13069
923.55	13076
923.659	13015
923.767	12973
923.876	12928
923.984	13015
924.092	12863
924.201	12973
924.309	12875
924.417	12897
924.525	12791
924.633	12779
924.741	13818
924.849	12646
924.956	12772
925.064	12604
925.172	12525
925.279	12563
925.387	12616
925.494	12563
925.602	12696
925.709	12627
925.816	12441
925.924	12612
926.031	12623
926.138	12578
926.245	12517
926.352	12479
926.459	12585
926.566	12669
926.673	12479
926.779	12353
926.886	12388
926.993	12190
927.099	12110
927.206	12186
927.312	12155
927.419	12254
927.525	12136
927.631	12167
927.737	12091
927.843	12098
927.95	11931
928.056	11969
928.162	11965
928.267	12091
928.373	12517
928.479	12125
928.585	11885
928.69	11999
928.796	11908
928.901	11836
929.007	11775
929.112	11874
929.218	11817
929.323	11737
929.428	11672
929.533	11863
929.638	11661
929.743	11733
929.848	11699
929.953	11710
930.058	11668
930.163	11440
930.267	11452
930.372	11608
930.477	11414
930.581	11543
930.685	11482
930.79	11273
930.894	11417
930.998	11337
931.103	11482
931.207	11067
931.311	11048
931.415	10980
931.519	10706
931.623	10725
