Data from test_V78500241_2949.txt Node
Date: Fri Mar 25 15:30:23 CST 2022
User: usil
Spectrometer: V785-0024
Trigger mode: 0
Integration Time (sec): 4.000000E-1
Scans to average: 1
Nonlinearity correction enabled: false
Boxcar width: 0
Storing dark spectrum: false
XAxis mode: Wavelengths
Number of Pixels in Spectrum: 1024
>>>>>Begin Spectral Data<<<<<
801.071	27131
801.214	27005
801.356	26823
801.499	26868
801.641	26682
801.783	26594
801.926	26674
802.068	26594
802.211	26598
802.353	26587
802.496	26419
802.638	26343
802.78	26305
802.923	26119
803.065	26145
803.208	26218
803.35	26214
803.492	26408
803.635	26434
803.777	26370
803.919	26492
804.061	26697
804.204	26370
804.346	26309
804.488	26339
804.63	26556
804.773	26259
804.915	26450
805.057	26495
805.199	26370
805.341	26408
805.483	26594
805.626	26609
805.768	26431
805.91	26537
806.052	26651
806.194	26503
806.336	26712
806.478	26530
806.62	26476
806.762	26564
806.904	26796
807.046	27058
807.188	27005
807.33	27070
807.472	26982
807.614	26944
807.756	27096
807.898	26842
808.04	26670
808.182	26743
808.324	26754
808.465	26868
808.607	26982
808.749	27051
808.891	27161
809.033	27348
809.174	27283
809.316	27138
809.458	27161
809.6	27108
809.741	27180
809.883	27401
810.025	27291
810.166	27473
810.308	27367
810.45	27435
810.591	27279
810.733	27180
810.875	27161
811.016	27005
811.158	27005
811.299	27173
811.441	27218
811.582	27355
811.724	27112
811.865	27100
812.007	27131
812.148	27096
812.29	27222
812.431	27283
812.573	27393
812.714	27511
812.855	27648
812.997	27599
813.138	27728
813.279	27781
813.421	27656
813.562	27500
813.703	27420
813.845	27203
813.986	27028
814.127	26868
814.268	26910
814.41	26876
814.551	26667
814.692	26952
814.833	26655
814.974	26864
815.115	26800
815.256	26636
815.397	26727
815.539	26575
815.68	26556
815.821	26507
815.962	26682
816.103	26431
816.244	26286
816.385	26381
816.526	26336
816.666	26005
816.807	25986
816.948	26157
817.089	26096
817.23	26111
817.371	26020
817.512	26065
817.653	25913
817.793	25974
817.934	26001
818.075	25936
818.216	26046
818.356	25917
818.497	25890
818.638	25830
818.778	25784
818.919	25719
819.06	25757
819.2	25906
819.341	25928
819.481	25868
819.622	26206
819.762	26476
819.903	26244
820.043	26103
820.184	26149
820.324	26168
820.465	26130
820.605	26119
820.746	26092
820.886	25909
821.026	26027
821.167	26119
821.307	26126
821.447	26138
821.588	25997
821.728	25845
821.868	25559
822.008	25381
822.149	25449
822.289	25449
822.429	25346
822.569	25148
822.709	25285
822.849	24909
822.99	25110
823.13	25038
823.27	24970
823.41	24817
823.55	24707
823.69	24924
823.83	24760
823.97	24661
824.11	24688
824.25	24479
824.389	24623
824.529	24726
824.669	24658
824.809	24642
824.949	24658
825.089	24616
825.228	24764
825.368	24532
825.508	24429
825.648	24559
825.787	24513
825.927	24566
826.067	24456
826.206	24525
826.346	24563
826.485	24532
826.625	24505
826.765	24574
826.904	24498
827.044	24194
827.183	24243
827.323	24167
827.462	24376
827.601	24144
827.741	24098
827.88	24239
828.02	24018
828.159	24068
828.298	24083
828.437	24205
828.577	24026
828.716	24136
828.855	24072
828.994	23855
829.134	23897
829.273	23874
829.412	23790
829.551	23893
829.69	23707
829.829	23939
829.968	23980
830.107	23855
830.246	23832
830.385	23798
830.524	23695
830.663	23653
830.802	23531
830.941	23459
831.08	23463
831.219	23566
831.357	23551
831.496	23611
831.635	23509
831.774	23368
831.913	23265
832.051	23330
832.19	23330
832.329	23212
832.467	23105
832.606	23090
832.744	23113
832.883	23151
833.022	23041
833.16	23170
833.299	23174
833.437	23102
833.576	23235
833.714	23254
833.852	23212
833.991	23155
834.129	23220
834.267	23356
834.406	23174
834.544	23166
834.682	23216
834.821	23208
834.959	23356
835.097	23121
835.235	23258
835.373	23143
835.511	23189
835.65	23010
835.788	23056
835.926	22850
836.064	22835
836.202	22843
836.34	22919
836.478	23102
836.615	22946
836.753	22995
836.891	23117
837.029	23064
837.167	22961
837.305	22923
837.443	22927
837.58	22858
837.718	22911
837.856	22995
837.993	22873
838.131	22911
838.269	22607
838.406	22710
838.544	22592
838.681	22561
838.819	22527
838.956	22318
839.094	22249
839.231	22413
839.369	22660
839.506	22656
839.643	22641
839.781	22398
839.918	22078
840.055	22337
840.193	22402
840.33	22344
840.467	22215
840.604	22306
840.742	22455
840.879	22219
841.016	22249
841.153	22219
841.29	22363
841.427	22196
841.564	22402
841.701	22280
841.838	22287
841.975	22207
842.112	22306
842.249	22128
842.385	21991
842.522	22253
842.659	22097
842.796	22059
842.933	21972
843.069	21838
843.206	22017
843.343	22097
843.479	21994
843.616	22021
843.752	21766
843.889	21778
844.025	21850
844.162	21846
844.298	21922
844.435	21819
844.571	21732
844.708	21804
844.844	22032
844.98	21873
845.117	21907
845.253	21739
845.389	21637
845.525	21759
845.661	21603
845.798	21568
845.934	21587
846.07	21523
846.206	21473
846.342	21515
846.478	21469
846.614	21332
846.75	21192
846.886	21310
847.022	21283
847.158	21287
847.294	21302
847.429	21264
847.565	21260
847.701	21447
847.837	21005
847.972	21020
848.108	21039
848.244	21001
848.379	20948
848.515	20868
848.65	20899
848.786	20887
848.921	20857
849.057	20861
849.192	20918
849.328	20986
849.463	20872
849.598	20819
849.734	20826
849.869	20670
850.004	20659
850.14	20667
850.275	20587
850.41	20609
850.545	20613
850.68	20655
850.815	20621
850.95	20674
851.085	20899
851.22	20701
851.355	20613
851.49	20682
851.625	20549
851.76	20518
851.895	20484
852.03	20583
852.165	20689
852.299	20693
852.434	20834
852.569	20568
852.703	20564
852.838	20613
852.973	20724
853.107	20720
853.242	20568
853.376	20393
853.511	20480
853.645	20473
853.78	20556
853.914	20336
854.048	20484
854.183	20408
854.317	20549
854.451	20606
854.585	20461
854.72	20473
854.854	20545
854.988	20377
855.122	20370
855.256	20396
855.39	20461
855.524	20556
855.658	20560
855.792	20454
855.926	20674
856.06	20488
856.194	20568
856.327	20461
856.461	20396
856.595	20305
856.729	20526
856.862	20507
856.996	20434
857.13	20530
857.263	20537
857.397	20526
857.53	20374
857.664	20533
857.797	20613
857.931	20438
858.064	20587
858.197	20587
858.331	20324
858.464	20423
858.597	20377
858.731	20446
858.864	20404
858.997	20415
859.13	20507
859.263	20465
859.396	20545
859.529	20431
859.662	20514
859.795	20461
859.928	20450
860.061	20606
860.194	20590
860.327	20575
860.46	20454
860.592	20583
860.725	20674
860.858	20522
860.99	20571
861.123	20320
861.256	20366
861.388	20431
861.521	21077
861.653	20317
861.786	20320
861.918	20301
862.05	20408
862.183	20446
862.315	20450
862.447	20442
862.58	20374
862.712	20191
862.844	20126
862.976	20187
863.108	20206
863.24	20670
863.372	20081
863.504	20259
863.636	20172
863.768	20309
863.9	20126
864.032	20153
864.164	20142
864.296	20237
864.428	20206
864.559	20176
864.691	20244
864.823	20256
864.954	20240
865.086	20092
865.217	20142
865.349	20001
865.48	20039
865.612	20199
865.743	20126
865.875	20035
866.006	19967
866.137	20062
866.269	19997
866.4	19989
866.531	19982
866.662	19951
866.793	19993
866.924	20081
867.055	20016
867.186	20142
867.317	20065
867.448	19997
867.579	20024
867.71	19963
867.841	19970
867.972	19970
868.103	20035
868.233	19936
868.364	19978
868.495	20164
868.625	20294
868.756	20339
868.886	20210
869.017	20317
869.147	20434
869.278	20362
869.408	20275
869.539	20381
869.669	20366
869.799	20347
869.929	20423
870.06	20309
870.19	20617
870.32	20503
870.45	20613
870.58	20693
870.71	20762
870.84	20735
870.97	20655
871.1	20644
871.23	20838
871.36	20861
871.489	20785
871.619	20781
871.749	20743
871.879	20921
872.008	20899
872.138	20902
872.267	20921
872.397	20739
872.526	20564
872.656	20625
872.785	20792
872.915	20861
873.044	20918
873.173	20952
873.303	20990
873.432	21066
873.561	20967
873.69	20937
873.819	20864
873.948	20887
874.077	20937
874.206	20735
874.335	20868
874.464	21024
874.593	21135
874.722	21085
874.851	21195
874.979	21252
875.108	21245
875.237	21036
875.365	21142
875.494	21047
875.623	21161
875.751	21104
875.88	21017
876.008	21332
876.136	21344
876.265	21496
876.393	21553
876.521	21618
876.65	21625
876.778	21477
876.906	21488
877.034	21534
877.162	21538
877.29	21329
877.418	21454
877.546	21507
877.674	21454
877.802	21431
877.93	21447
878.058	21363
878.185	21298
878.313	21313
878.441	21454
878.568	21344
878.696	21374
878.824	21523
878.951	21519
879.079	21576
879.206	21698
879.333	21641
879.461	21523
879.588	21545
879.715	21667
879.842	21755
879.97	21564
880.097	21378
880.224	21264
880.351	21348
880.478	21340
880.605	21325
880.732	21272
880.859	21568
880.986	21332
881.112	21329
881.239	21131
881.366	21077
881.493	21028
881.619	20826
881.746	20830
881.872	20933
881.999	20872
882.125	20861
882.252	20963
882.378	20982
882.505	21017
882.631	20788
882.757	20659
882.883	20731
883.01	20724
883.136	20617
883.262	20484
883.388	20431
883.514	20693
883.64	20667
883.766	20583
883.892	20438
884.018	20476
884.143	20644
884.269	20716
884.395	20446
884.52	20366
884.646	20286
884.772	20267
884.897	20256
885.023	20286
885.148	20400
885.274	20389
885.399	20408
885.524	20282
885.65	20313
885.775	20233
885.9	20286
886.025	20358
886.15	20374
886.275	20294
886.4	20176
886.525	20282
886.65	20271
886.775	20229
886.9	20355
887.025	20370
887.149	20256
887.274	20103
887.399	20027
887.523	20054
887.648	20062
887.773	19887
887.897	20168
888.021	20073
888.146	20161
888.27	20126
888.395	20206
888.519	20115
888.643	20119
888.767	20092
888.891	19841
889.015	19925
889.139	19936
889.263	19833
889.387	20046
889.511	20054
889.635	19894
889.759	19799
889.883	19795
890.006	19894
890.13	19936
890.254	19887
890.377	19852
890.501	19681
890.624	19632
890.748	19658
890.871	19552
890.995	19506
891.118	19362
891.241	19537
891.364	19518
891.488	19677
891.611	19537
891.734	19597
891.857	19537
891.98	19540
892.103	19472
892.226	19483
892.349	19514
892.471	19194
892.594	19472
892.717	19422
892.839	19392
892.962	19411
893.085	19483
893.207	19430
893.33	19392
893.452	19320
893.575	19407
893.697	19343
893.819	19556
893.941	19502
894.064	19544
894.186	19278
894.308	19392
894.43	19468
894.552	19499
894.674	19521
894.796	19255
894.918	19327
895.04	19316
895.161	19464
895.283	19396
895.405	19251
895.526	19495
895.648	19396
895.769	19293
895.891	19441
896.012	19464
896.134	19369
896.255	19373
896.376	19217
896.498	19445
896.619	19468
896.74	19381
896.861	19499
896.982	19772
897.103	19849
897.224	19715
897.345	19540
897.466	19540
897.587	19655
897.708	19776
897.828	19639
897.949	19571
898.07	19407
898.19	19529
898.311	19765
898.431	19510
898.552	19715
898.672	19704
898.792	19639
898.913	19666
899.033	19518
899.153	19480
899.273	19335
899.393	19381
899.513	19422
899.633	19449
899.753	19483
899.873	19270
899.993	19445
900.113	19194
900.232	19343
900.352	19282
900.472	19156
900.591	19141
900.711	19225
900.83	19168
900.95	19316
901.069	19289
901.189	19027
901.308	18840
901.427	18703
901.546	18878
901.665	18753
901.784	18768
901.904	18631
902.023	18559
902.141	18277
902.26	18323
902.379	18471
902.498	18254
902.617	18319
902.735	18251
902.854	18273
902.973	18209
903.091	18049
903.21	17980
903.328	18121
903.446	17923
903.565	17843
903.683	17821
903.801	17661
903.919	17745
904.038	17729
904.156	17676
904.274	17783
904.392	17562
904.51	17505
904.627	17558
904.745	17687
904.863	17695
904.981	17417
905.098	17235
905.216	17121
905.334	17223
905.451	17246
905.569	17189
905.686	17280
905.803	17261
905.921	17022
906.038	17098
906.155	16919
906.272	16885
906.389	16980
906.506	16801
906.623	16752
906.74	16816
906.857	16599
906.974	16687
907.091	16831
907.208	16873
907.324	16752
907.441	16683
907.557	16546
907.674	16398
907.79	16402
907.907	16527
908.023	16618
908.139	16455
908.256	16443
908.372	16284
908.488	16417
908.604	16314
908.72	16150
908.836	16226
908.952	16109
909.068	16310
909.184	16295
909.3	16131
909.415	16314
909.531	16287
909.647	15953
909.762	15895
909.878	15869
909.993	15915
910.108	15835
910.224	15911
910.339	15892
910.454	15724
910.57	15717
910.685	15629
910.8	15934
910.915	15956
911.03	15717
911.145	15568
911.259	15580
911.374	15580
911.489	15534
911.604	15325
911.718	15355
911.833	15336
911.947	15249
912.062	15195
912.176	15287
912.291	15389
912.405	15313
912.519	15485
912.633	15542
912.748	15275
912.862	15123
912.976	15093
913.09	14975
913.204	15089
913.318	15093
913.431	15222
913.545	15192
913.659	15142
913.772	14990
913.886	14937
914	14925
914.113	15039
914.226	14960
914.34	15058
914.453	14864
914.566	14933
914.68	14792
914.793	14735
914.906	14587
915.019	14625
915.132	14564
915.245	14484
915.358	14590
915.47	14415
915.583	14473
915.696	14454
915.809	14583
915.921	14648
916.034	14370
916.146	14476
916.259	14457
916.371	14549
916.483	14560
916.595	14320
916.708	14389
916.82	14415
916.932	14294
917.044	14199
917.156	14381
917.268	14305
917.38	14244
917.491	14229
917.603	14225
917.715	14286
917.826	14358
917.938	14233
918.049	14077
918.161	14210
918.272	14339
918.384	14275
918.495	14248
918.606	14020
918.717	13906
918.828	14039
918.939	14058
919.05	13894
919.161	13898
919.272	13738
919.383	13871
919.494	14058
919.604	14214
919.715	14092
919.826	13822
919.936	13951
920.047	14031
920.157	13997
920.267	14115
920.378	13909
920.488	13947
920.598	14100
920.708	14324
920.818	14214
920.928	14035
921.038	14183
921.148	14263
921.258	13936
921.368	13822
921.477	13670
921.587	13696
921.697	13605
921.806	13700
921.916	13616
922.025	13381
922.134	13377
922.244	13293
922.353	13324
922.462	13354
922.571	13221
922.68	13091
922.789	13053
922.898	13027
923.007	12985
923.116	13137
923.224	12916
923.333	13050
923.442	12897
923.55	12890
923.659	12833
923.767	12875
923.876	12692
923.984	12897
924.092	12681
924.201	12745
924.309	12715
924.417	12817
924.525	12703
924.633	12753
924.741	13411
924.849	12570
924.956	12521
925.064	12559
925.172	12460
925.279	12376
925.387	12528
925.494	12521
925.602	12597
925.709	12532
925.816	12361
925.924	12372
926.031	12486
926.138	12365
926.245	12547
926.352	12353
926.459	12433
926.566	12509
926.673	12213
926.779	12357
926.886	12270
926.993	12057
927.099	12022
927.206	12007
927.312	11999
927.419	12049
927.525	12015
927.631	12034
927.737	11916
927.843	11893
927.95	11885
928.056	11802
928.162	11874
928.267	11897
928.373	12490
928.479	11992
928.585	11665
928.69	11893
928.796	11855
928.901	11699
929.007	11676
929.112	11779
929.218	11680
929.323	11665
929.428	11604
929.533	11809
929.638	11627
929.743	11501
929.848	11642
929.953	11573
930.058	11452
930.163	11315
930.267	11345
930.372	11429
930.477	11303
930.581	11509
930.685	11330
930.79	11204
930.894	11189
930.998	11105
931.103	11330
931.207	10919
931.311	10896
931.415	10812
931.519	10607
931.623	10558
