Data from test_V78500241_3110.txt Node
Date: Fri Mar 25 15:31:30 CST 2022
User: usil
Spectrometer: V785-0024
Trigger mode: 0
Integration Time (sec): 4.000000E-1
Scans to average: 1
Nonlinearity correction enabled: false
Boxcar width: 0
Storing dark spectrum: false
XAxis mode: Wavelengths
Number of Pixels in Spectrum: 1024
>>>>>Begin Spectral Data<<<<<
801.071	26693
801.214	26625
801.356	26484
801.499	26366
801.641	26081
801.783	26138
801.926	26305
802.068	26278
802.211	26107
802.353	26027
802.496	25830
802.638	25677
802.78	25925
802.923	25799
803.065	25757
803.208	25575
803.35	25864
803.492	25913
803.635	25936
803.777	25875
803.919	25959
804.061	26164
804.204	25993
804.346	25887
804.488	25811
804.63	25932
804.773	25784
804.915	25963
805.057	26081
805.199	25818
805.341	25940
805.483	25906
805.626	25940
805.768	25894
805.91	25963
806.052	26035
806.194	25993
806.336	26355
806.478	26058
806.62	25906
806.762	26145
806.904	26358
807.046	26499
807.188	26438
807.33	26450
807.472	26457
807.614	26476
807.756	26320
807.898	26309
808.04	26062
808.182	26218
808.324	26298
808.465	26271
808.607	26480
808.749	26663
808.891	26724
809.033	26727
809.174	26575
809.316	26625
809.458	26598
809.6	26503
809.741	26716
809.883	26682
810.025	26868
810.166	26849
810.308	26834
810.45	26902
810.591	26712
810.733	26606
810.875	26552
811.016	26469
811.158	26450
811.299	26777
811.441	26887
811.582	26735
811.724	26545
811.865	26526
812.007	26556
812.148	26495
812.29	26511
812.431	26575
812.573	26754
812.714	26998
812.855	27070
812.997	27089
813.138	27291
813.279	27112
813.421	27108
813.562	27066
813.703	26712
813.845	26769
813.986	26381
814.127	26221
814.268	26225
814.41	26225
814.551	26214
814.692	26206
814.833	26233
814.974	26096
815.115	26183
815.256	26168
815.397	26035
815.539	26027
815.68	26069
815.821	25913
815.962	25997
816.103	25925
816.244	25887
816.385	25738
816.526	25712
816.666	25525
816.807	25365
816.948	25472
817.089	25575
817.23	25460
817.371	25449
817.512	25354
817.653	25365
817.793	25407
817.934	25441
818.075	25388
818.216	25476
818.356	25392
818.497	25255
818.638	25225
818.778	25114
818.919	25236
819.06	25240
819.2	25304
819.341	25377
819.481	25384
819.622	25422
819.762	25693
819.903	25715
820.043	25594
820.184	25533
820.324	25430
820.465	25571
820.605	25540
820.746	25567
820.886	25369
821.026	25575
821.167	25438
821.307	25548
821.447	25499
821.588	25285
821.728	25274
821.868	25156
822.008	24970
822.149	24859
822.289	24970
822.429	24505
822.569	24654
822.709	24604
822.849	24509
822.99	24365
823.13	24460
823.27	24452
823.41	24144
823.55	24117
823.69	24178
823.83	24243
823.97	24079
824.11	23984
824.25	24129
824.389	23931
824.529	24068
824.669	24018
824.809	24095
824.949	24155
825.089	24095
825.228	24057
825.368	23855
825.508	23901
825.648	23832
825.787	23885
825.927	23954
826.067	23920
826.206	23859
826.346	23958
826.485	23977
826.625	23996
826.765	23946
826.904	23912
827.044	23703
827.183	23714
827.323	23608
827.462	23634
827.601	23638
827.741	23452
827.88	23710
828.02	23452
828.159	23615
828.298	23703
828.437	23684
828.577	23589
828.716	23566
828.855	23452
828.994	23307
829.134	23178
829.273	23402
829.412	23341
829.551	23326
829.69	23269
829.829	23376
829.968	23414
830.107	23429
830.246	23242
830.385	23318
830.524	23151
830.663	23113
830.802	23094
830.941	22930
831.08	22843
831.219	22991
831.357	22938
831.496	23014
831.635	22896
831.774	22809
831.913	22797
832.051	22641
832.19	22717
832.329	22679
832.467	22622
832.606	22615
832.744	22535
832.883	22466
833.022	22497
833.16	22554
833.299	22535
833.437	22573
833.576	22649
833.714	22691
833.852	22698
833.991	22694
834.129	22915
834.267	22630
834.406	22683
834.544	22687
834.682	22649
834.821	22683
834.959	22790
835.097	22675
835.235	22672
835.373	22702
835.511	22527
835.65	22527
835.788	22580
835.926	22405
836.064	22390
836.202	22386
836.34	22519
836.478	22611
836.615	22413
836.753	22573
836.891	22523
837.029	22622
837.167	22417
837.305	22314
837.443	22352
837.58	22379
837.718	22443
837.856	22447
837.993	22223
838.131	22337
838.269	22261
838.406	22299
838.544	22215
838.681	22059
838.819	21964
838.956	21865
839.094	21797
839.231	21899
839.369	22013
839.506	22249
839.643	22112
839.781	21873
839.918	21819
840.055	21717
840.193	21743
840.33	21873
840.467	21816
840.604	21755
840.742	22063
840.879	21751
841.016	21583
841.153	21720
841.29	21918
841.427	21762
841.564	21739
841.701	21694
841.838	21743
841.975	21713
842.112	21694
842.249	21576
842.385	21625
842.522	21812
842.659	21576
842.796	21515
842.933	21526
843.069	21519
843.206	21386
843.343	21644
843.479	21641
843.616	21370
843.752	21332
843.889	21313
844.025	21336
844.162	21374
844.298	21405
844.435	21317
844.571	21237
844.708	21340
844.844	21374
844.98	21386
845.117	21450
845.253	21245
845.389	21199
845.525	21176
845.661	21161
845.798	21062
845.934	21032
846.07	20925
846.206	21077
846.342	21161
846.478	21013
846.614	20994
846.75	20739
846.886	20788
847.022	20804
847.158	20857
847.294	20758
847.429	20815
847.565	20807
847.701	20982
847.837	20568
847.972	20613
848.108	20621
848.244	20606
848.379	20423
848.515	20450
848.65	20358
848.786	20393
848.921	20423
849.057	20556
849.192	20488
849.328	20412
849.463	20404
849.598	20313
849.734	20317
849.869	20263
850.004	20153
850.14	20115
850.275	20164
850.41	20069
850.545	20138
850.68	20187
850.815	20115
850.95	20221
851.085	20476
851.22	20263
851.355	20244
851.49	20221
851.625	20218
851.76	20065
851.895	20035
852.03	20054
852.165	20145
852.299	20317
852.434	20153
852.569	20130
852.703	20134
852.838	20225
852.973	20237
853.107	20263
853.242	20142
853.376	19959
853.511	19898
853.645	19909
853.78	20054
853.914	19959
854.048	19902
854.183	20005
854.317	19970
854.451	20100
854.585	20054
854.72	20016
854.854	20001
854.988	19932
855.122	19932
855.256	19902
855.39	19997
855.524	20092
855.658	20005
855.792	20008
855.926	19989
856.06	20100
856.194	20050
856.327	19963
856.461	20016
856.595	19883
856.729	19932
856.862	20168
856.996	20050
857.13	20096
857.263	20039
857.397	20031
857.53	19928
857.664	19925
857.797	20054
857.931	20103
858.064	19970
858.197	20218
858.331	20081
858.464	19932
858.597	20039
858.731	19951
858.864	19970
858.997	19982
859.13	20001
859.263	20069
859.396	20005
859.529	19917
859.662	20012
859.795	19913
859.928	19940
860.061	20157
860.194	20161
860.327	19989
860.46	19978
860.592	19978
860.725	20069
860.858	20088
860.99	19982
861.123	19909
861.256	19864
861.388	20012
861.521	20419
861.653	19807
861.786	19776
861.918	19769
862.05	19845
862.183	19860
862.315	19906
862.447	19967
862.58	19845
862.712	19772
862.844	19624
862.976	19807
863.108	19723
863.24	20142
863.372	19556
863.504	19719
863.636	19639
863.768	19708
863.9	19685
864.032	19578
864.164	19723
864.296	19742
864.428	19822
864.559	19879
864.691	19852
864.823	19715
864.954	19670
865.086	19731
865.217	19643
865.349	19514
865.48	19704
865.612	19658
865.743	19696
865.875	19670
866.006	19578
866.137	19632
866.269	19601
866.4	19635
866.531	19537
866.662	19491
866.793	19601
866.924	19491
867.055	19460
867.186	19597
867.317	19552
867.448	19415
867.579	19597
867.71	19575
867.841	19521
867.972	19575
868.103	19529
868.233	19563
868.364	19658
868.495	19715
868.625	19818
868.756	19852
868.886	19674
869.017	19868
869.147	19928
869.278	19830
869.408	19841
869.539	19715
869.669	19868
869.799	19799
869.929	20008
870.06	19928
870.19	20180
870.32	20084
870.45	20046
870.58	20172
870.71	20320
870.84	20377
870.97	20157
871.1	20229
871.23	20415
871.36	20431
871.489	20347
871.619	20328
871.749	20465
871.879	20339
872.008	20552
872.138	20400
872.267	20473
872.397	20149
872.526	20233
872.656	20263
872.785	20278
872.915	20427
873.044	20454
873.173	20423
873.303	20522
873.432	20438
873.561	20598
873.69	20400
873.819	20438
873.948	20362
874.077	20400
874.206	20393
874.335	20381
874.464	20495
874.593	20670
874.722	20720
874.851	20758
874.979	20701
875.108	20724
875.237	20682
875.365	20686
875.494	20648
875.623	20735
875.751	20705
875.88	20648
876.008	20891
876.136	20861
876.265	21108
876.393	21085
876.521	21154
876.65	21188
876.778	20975
876.906	21108
877.034	21096
877.162	21218
877.29	21081
877.418	20998
877.546	21066
877.674	21108
877.802	20990
877.93	21081
878.058	20933
878.185	20864
878.313	20944
878.441	20929
878.568	20941
878.696	21055
878.824	21051
878.951	21081
879.079	21165
879.206	21359
879.333	21176
879.461	21074
879.588	21245
879.715	21214
879.842	21363
879.97	21081
880.097	20921
880.224	20819
880.351	20868
880.478	20796
880.605	20960
880.732	20979
880.859	21043
880.986	20876
881.112	20838
881.239	20792
881.366	20640
881.493	20575
881.619	20370
881.746	20488
881.872	20434
881.999	20473
882.125	20377
882.252	20575
882.378	20434
882.505	20480
882.631	20278
882.757	20157
882.883	20298
883.01	20202
883.136	20145
883.262	20058
883.388	20069
883.514	20157
883.64	20275
883.766	19902
883.892	20073
884.018	19913
884.143	20126
884.269	20286
884.395	20046
884.52	19818
884.646	19921
884.772	19746
884.897	19734
885.023	19856
885.148	19963
885.274	20046
885.399	19982
885.524	19894
885.65	19769
885.775	19837
885.9	19746
886.025	19871
886.15	19902
886.275	19715
886.4	19685
886.525	19795
886.65	19742
886.775	19837
886.9	19970
887.025	20035
887.149	19791
887.274	19624
887.399	19582
887.523	19575
887.648	19502
887.773	19548
887.897	19772
888.021	19605
888.146	19597
888.27	19795
888.395	19761
888.519	19723
888.643	19712
888.767	19693
888.891	19460
889.015	19487
889.139	19487
889.263	19400
889.387	19605
889.511	19635
889.635	19601
889.759	19396
889.883	19384
890.006	19422
890.13	19499
890.254	19308
890.377	19327
890.501	19156
890.624	19221
890.748	19251
890.871	19171
890.995	18954
891.118	18962
891.241	19057
891.364	19053
891.488	19091
891.611	18981
891.734	19069
891.857	19046
891.98	19118
892.103	19008
892.226	18996
892.349	19050
892.471	18825
892.594	19004
892.717	18993
892.839	18924
892.962	18947
893.085	18973
893.207	18913
893.33	18741
893.452	18871
893.575	18981
893.697	18840
893.819	19160
893.941	19171
894.064	19061
894.186	18901
894.308	18924
894.43	19114
894.552	19179
894.674	19012
894.796	18909
894.918	18947
895.04	18970
895.161	18989
895.283	18928
895.405	18817
895.526	18897
895.648	18852
895.769	19000
895.891	18943
896.012	18909
896.134	19107
896.255	18977
896.376	18924
896.498	18970
896.619	19015
896.74	18973
896.861	19088
896.982	19350
897.103	19495
897.224	19251
897.345	19190
897.466	19118
897.587	19206
897.708	19350
897.828	19297
897.949	19069
898.07	19118
898.19	19179
898.311	19221
898.431	19122
898.552	19331
898.672	19285
898.792	19350
898.913	19411
899.033	19103
899.153	19069
899.273	18916
899.393	19053
899.513	18951
899.633	18939
899.753	18985
899.873	18916
899.993	19053
900.113	18863
900.232	18890
900.352	18977
900.472	18779
900.591	18745
900.711	18825
900.83	18639
900.95	18798
901.069	18878
901.189	18798
901.308	18456
901.427	18395
901.546	18384
901.665	18372
901.784	18410
901.904	18247
902.023	18262
902.141	17969
902.26	17885
902.379	18087
902.498	17866
902.617	17843
902.735	17935
902.854	17832
902.973	17775
903.091	17573
903.21	17585
903.328	17512
903.446	17532
903.565	17364
903.683	17398
903.801	17299
903.919	17303
904.038	17280
904.156	17121
904.274	17246
904.392	17181
904.51	17250
904.627	17204
904.745	17128
904.863	17296
904.981	16923
905.098	16881
905.216	16885
905.334	16904
905.451	16919
905.569	16828
905.686	16889
905.803	16797
905.921	16675
906.038	16816
906.155	16721
906.272	16440
906.389	16527
906.506	16474
906.623	16371
906.74	16318
906.857	16314
906.974	16211
907.091	16493
907.208	16459
907.324	16325
907.441	16322
907.557	16207
907.674	16116
907.79	16017
907.907	16006
908.023	16051
908.139	16109
908.256	16067
908.372	15949
908.488	16086
908.604	15865
908.72	15857
908.836	15823
908.952	15846
909.068	15903
909.184	16002
909.3	15781
909.415	15831
909.531	15873
909.647	15549
909.762	15633
909.878	15454
909.993	15599
910.108	15534
910.224	15439
910.339	15587
910.454	15367
910.57	15355
910.685	15317
910.8	15648
910.915	15492
911.03	15340
911.145	15230
911.259	15154
911.374	15241
911.489	15100
911.604	15017
911.718	14975
911.833	14979
911.947	14948
912.062	14765
912.176	14887
912.291	15001
912.405	14975
912.519	15100
912.633	15108
912.748	14921
912.862	14914
912.976	14712
913.09	14663
913.204	14693
913.318	14769
913.431	14781
913.545	14785
913.659	14819
913.772	14697
913.886	14511
914	14621
914.113	14625
914.226	14754
914.34	14670
914.453	14427
914.566	14583
914.68	14488
914.793	14431
914.906	14362
915.019	14256
915.132	14126
915.245	14240
915.358	14191
915.47	14298
915.583	14153
915.696	14183
915.809	14408
915.921	14336
916.034	14107
916.146	14149
916.259	14096
916.371	14233
916.483	14172
916.595	14024
916.708	14062
916.82	14092
916.932	14001
917.044	13936
917.156	14031
917.268	13841
917.38	13864
917.491	13849
917.603	13959
917.715	14054
917.826	13959
917.938	13780
918.049	13689
918.161	13856
918.272	14005
918.384	13955
918.495	13890
918.606	13746
918.717	13616
918.828	13769
918.939	13753
919.05	13590
919.161	13567
919.272	13525
919.383	13388
919.494	13704
919.604	13879
919.715	13578
919.826	13483
919.936	13693
920.047	13662
920.157	13571
920.267	13811
920.378	13658
920.488	13685
920.598	13795
920.708	13837
920.818	13765
920.928	13875
921.038	13970
921.148	13883
921.258	13571
921.368	13575
921.477	13453
921.587	13392
921.697	13320
921.806	13438
921.916	13255
922.025	13232
922.134	13110
922.244	12985
922.353	13072
922.462	12954
922.571	12970
922.68	12738
922.789	12738
922.898	12734
923.007	12703
923.116	12665
923.224	12700
923.333	12738
923.442	12662
923.55	12471
923.659	12551
923.767	12608
923.876	12475
923.984	12544
924.092	12486
924.201	12597
924.309	12475
924.417	12426
924.525	12403
924.633	12426
924.741	13324
924.849	12167
924.956	12338
925.064	12216
925.172	12053
925.279	12235
925.387	12232
925.494	12136
925.602	12239
925.709	12194
925.816	12095
925.924	12121
926.031	12243
926.138	12125
926.245	12209
926.352	12019
926.459	12190
926.566	12144
926.673	12038
926.779	12015
926.886	12015
926.993	11923
927.099	11764
927.206	11752
927.312	11817
927.419	11786
927.525	11688
927.631	11790
927.737	11615
927.843	11684
927.95	11543
928.056	11554
928.162	11676
928.267	11657
928.373	12315
928.479	11608
928.585	11490
928.69	11611
928.796	11539
928.901	11440
929.007	11398
929.112	11478
929.218	11474
929.323	11391
929.428	11311
929.533	11421
929.638	11239
929.743	11345
929.848	11410
929.953	11337
930.058	11235
930.163	11052
930.267	11052
930.372	11197
930.477	11033
930.581	11239
930.685	10965
930.79	10938
930.894	10976
930.998	10904
931.103	11052
931.207	10691
931.311	10630
931.415	10519
931.519	10402
931.623	10348
