Data from test_V78500241_3104.txt Node
Date: Fri Mar 25 15:31:28 CST 2022
User: usil
Spectrometer: V785-0024
Trigger mode: 0
Integration Time (sec): 4.000000E-1
Scans to average: 1
Nonlinearity correction enabled: false
Boxcar width: 0
Storing dark spectrum: false
XAxis mode: Wavelengths
Number of Pixels in Spectrum: 1024
>>>>>Begin Spectral Data<<<<<
801.071	26754
801.214	26758
801.356	26484
801.499	26374
801.641	26267
801.783	26210
801.926	26168
802.068	26126
802.211	26111
802.353	26058
802.496	26054
802.638	25909
802.78	25811
802.923	25833
803.065	25624
803.208	25727
803.35	25708
803.492	25951
803.635	25959
803.777	25947
803.919	26084
804.061	26286
804.204	26005
804.346	25944
804.488	25811
804.63	25959
804.773	25837
804.915	26043
805.057	26157
805.199	25947
805.341	25989
805.483	26138
805.626	26180
805.768	25959
805.91	26111
806.052	26142
806.194	26039
806.336	26290
806.478	26100
806.62	26221
806.762	26058
806.904	26305
807.046	26587
807.188	26461
807.33	26450
807.472	26427
807.614	26393
807.756	26267
807.898	26328
808.04	26176
808.182	26332
808.324	26278
808.465	26480
808.607	26564
808.749	26682
808.891	26762
809.033	26655
809.174	26701
809.316	26632
809.458	26693
809.6	26651
809.741	26716
809.883	26804
810.025	26883
810.166	26960
810.308	26994
810.45	26849
810.591	26868
810.733	26682
810.875	26575
811.016	26423
811.158	26590
811.299	26716
811.441	26674
811.582	26842
811.724	26351
811.865	26473
812.007	26549
812.148	26640
812.29	26594
812.431	26754
812.573	26998
812.714	27161
812.855	27180
812.997	27230
813.138	27237
813.279	27233
813.421	27123
813.562	26971
813.703	26895
813.845	26849
813.986	26648
814.127	26366
814.268	26351
814.41	26343
814.551	26206
814.692	26282
814.833	26119
814.974	26229
815.115	26191
815.256	26195
815.397	26145
815.539	26202
815.68	26119
815.821	25955
815.962	25993
816.103	26008
816.244	25997
816.385	25772
816.526	25753
816.666	25594
816.807	25525
816.948	25620
817.089	25582
817.23	25514
817.371	25445
817.512	25529
817.653	25381
817.793	25422
817.934	25422
818.075	25464
818.216	25506
818.356	25346
818.497	25434
818.638	25168
818.778	25255
818.919	25297
819.06	25282
819.2	25369
819.341	25499
819.481	25434
819.622	25639
819.762	25791
819.903	25647
820.043	25575
820.184	25658
820.324	25571
820.465	25643
820.605	25628
820.746	25487
820.886	25339
821.026	25544
821.167	25502
821.307	25529
821.447	25312
821.588	25384
821.728	25270
821.868	25198
822.008	24901
822.149	25050
822.289	24932
822.429	24787
822.569	24711
822.709	24703
822.849	24555
822.99	24372
823.13	24456
823.27	24422
823.41	24407
823.55	24167
823.69	24281
823.83	24285
823.97	24163
824.11	24114
824.25	24125
824.389	23996
824.529	24102
824.669	24057
824.809	24117
824.949	24034
825.089	24136
825.228	24079
825.368	23859
825.508	23958
825.648	23969
825.787	24026
825.927	23931
826.067	23878
826.206	23992
826.346	23946
826.485	23984
826.625	23878
826.765	23908
826.904	24053
827.044	23722
827.183	23668
827.323	23573
827.462	23703
827.601	23551
827.741	23642
827.88	23646
828.02	23516
828.159	23634
828.298	23813
828.437	23714
828.577	23558
828.716	23771
828.855	23630
828.994	23273
829.134	23429
829.273	23459
829.412	23334
829.551	23250
829.69	23417
829.829	23280
829.968	23505
830.107	23516
830.246	23395
830.385	23318
830.524	23227
830.663	23269
830.802	23159
830.941	22984
831.08	22930
831.219	23159
831.357	23083
831.496	23296
831.635	22976
831.774	22889
831.913	22824
832.051	22744
832.19	22782
832.329	22679
832.467	22615
832.606	22630
832.744	22584
832.883	22713
833.022	22733
833.16	22592
833.299	22584
833.437	22717
833.576	22713
833.714	22641
833.852	22774
833.991	22793
834.129	22828
834.267	22710
834.406	22706
834.544	22786
834.682	22721
834.821	22653
834.959	22793
835.097	22721
835.235	22717
835.373	22755
835.511	22847
835.65	22721
835.788	22603
835.926	22402
836.064	22329
836.202	22386
836.34	22565
836.478	22641
836.615	22573
836.753	22489
836.891	22637
837.029	22634
837.167	22546
837.305	22402
837.443	22546
837.58	22516
837.718	22371
837.856	22497
837.993	22356
838.131	22481
838.269	22386
838.406	22303
838.544	22386
838.681	22101
838.819	22044
838.956	21953
839.094	21899
839.231	21827
839.369	22150
839.506	22314
839.643	22276
839.781	21823
839.918	21876
840.055	21884
840.193	21823
840.33	21854
840.467	21907
840.604	21998
840.742	22173
840.879	21705
841.016	21827
841.153	21781
841.29	21941
841.427	21827
841.564	21945
841.701	21838
841.838	21823
841.975	21728
842.112	21808
842.249	21667
842.385	21717
842.522	21854
842.659	21728
842.796	21545
842.933	21675
843.069	21682
843.206	21583
843.343	21648
843.479	21572
843.616	21724
843.752	21386
843.889	21359
844.025	21564
844.162	21382
844.298	21420
844.435	21344
844.571	21249
844.708	21447
844.844	21420
844.98	21622
845.117	21534
845.253	21370
845.389	21226
845.525	21351
845.661	21264
845.798	21180
845.934	21203
846.07	21085
846.206	21188
846.342	21249
846.478	21074
846.614	20861
846.75	20792
846.886	20823
847.022	20975
847.158	20838
847.294	20811
847.429	20845
847.565	20838
847.701	21135
847.837	20617
847.972	20556
848.108	20495
848.244	20777
848.379	20507
848.515	20461
848.65	20431
848.786	20419
848.921	20537
849.057	20545
849.192	20473
849.328	20541
849.463	20374
849.598	20431
849.734	20328
849.869	20278
850.004	20218
850.14	20278
850.275	20153
850.41	20153
850.545	20237
850.68	20180
850.815	20275
850.95	20324
851.085	20191
851.22	20400
851.355	20263
851.49	20195
851.625	20267
851.76	20248
851.895	20142
852.03	20092
852.165	20214
852.299	20161
852.434	20324
852.569	20229
852.703	20164
852.838	20206
852.973	20320
853.107	20427
853.242	20134
853.376	20046
853.511	19989
853.645	20084
853.78	20081
853.914	20084
854.048	20111
854.183	20122
854.317	20065
854.451	20176
854.585	20092
854.72	20084
854.854	20149
854.988	19925
855.122	19993
855.256	19879
855.39	20130
855.524	20100
855.658	20008
855.792	20062
855.926	20081
856.06	20088
856.194	20115
856.327	20005
856.461	20008
856.595	20001
856.729	20054
856.862	20111
856.996	20092
857.13	20142
857.263	20183
857.397	20138
857.53	19986
857.664	19936
857.797	20206
857.931	20218
858.064	20073
858.197	20111
858.331	20024
858.464	20046
858.597	19936
858.731	20103
858.864	20054
858.997	19959
859.13	20016
859.263	20005
859.396	20202
859.529	19993
859.662	19982
859.795	20035
859.928	20054
860.061	20218
860.194	20164
860.327	20092
860.46	20107
860.592	20153
860.725	20187
860.858	20153
860.99	20088
861.123	20024
861.256	20069
861.388	20024
861.521	20579
861.653	19906
861.786	19875
861.918	19795
862.05	19947
862.183	20012
862.315	19887
862.447	20172
862.58	19917
862.712	19765
862.844	19647
862.976	19909
863.108	19860
863.24	20103
863.372	19715
863.504	19868
863.636	19784
863.768	19799
863.9	19845
864.032	19700
864.164	19750
864.296	19795
864.428	19890
864.559	19795
864.691	19925
864.823	19860
864.954	19750
865.086	19723
865.217	19727
865.349	19575
865.48	19685
865.612	19708
865.743	19799
865.875	19890
866.006	19548
866.137	19639
866.269	19723
866.4	19693
866.531	19521
866.662	19613
866.793	19571
866.924	19620
867.055	19674
867.186	19620
867.317	19658
867.448	19464
867.579	19655
867.71	19582
867.841	19586
867.972	19696
868.103	19658
868.233	19693
868.364	19666
868.495	19734
868.625	19887
868.756	20130
868.886	19826
869.017	19845
869.147	19852
869.278	19974
869.408	19883
869.539	19944
869.669	19894
869.799	20050
869.929	20126
870.06	19925
870.19	20240
870.32	20122
870.45	20263
870.58	20313
870.71	20332
870.84	20317
870.97	20313
871.1	20366
871.23	20499
871.36	20457
871.489	20248
871.619	20457
871.749	20465
871.879	20587
872.008	20609
872.138	20484
872.267	20590
872.397	20457
872.526	20339
872.656	20355
872.785	20301
872.915	20442
873.044	20644
873.173	20568
873.303	20541
873.432	20594
873.561	20674
873.69	20400
873.819	20484
873.948	20530
874.077	20492
874.206	20396
874.335	20503
874.464	20609
874.593	20621
874.722	20651
874.851	20640
874.979	20804
875.108	20819
875.237	20705
875.365	20807
875.494	20792
875.623	20830
875.751	20708
875.88	20758
876.008	20956
876.136	20883
876.265	21226
876.393	21310
876.521	21256
876.65	21249
876.778	21176
876.906	21043
877.034	21093
877.162	21005
877.29	21058
877.418	21199
877.546	21123
877.674	21135
877.802	21024
877.93	21116
878.058	21085
878.185	21047
878.313	21020
878.441	21135
878.568	20868
878.696	20971
878.824	21188
878.951	21268
879.079	21199
879.206	21367
879.333	21218
879.461	21230
879.588	21214
879.715	21397
879.842	21416
879.97	21135
880.097	20952
880.224	20990
880.351	20918
880.478	21005
880.605	20826
880.732	20815
880.859	21051
880.986	20925
881.112	20857
881.239	20765
881.366	20674
881.493	20613
881.619	20507
881.746	20552
881.872	20541
881.999	20484
882.125	20396
882.252	20598
882.378	20568
882.505	20522
882.631	20309
882.757	20218
882.883	20218
883.01	20202
883.136	20225
883.262	20199
883.388	20024
883.514	20355
883.64	20355
883.766	20210
883.892	20084
884.018	19989
884.143	20199
884.269	20164
884.395	20088
884.52	19788
884.646	19944
884.772	19860
884.897	19807
885.023	19887
885.148	19902
885.274	20062
885.399	19928
885.524	19868
885.65	19780
885.775	20027
885.9	19894
886.025	19967
886.15	19944
886.275	19803
886.4	19742
886.525	19727
886.65	19852
886.775	19761
886.9	19967
887.025	20180
887.149	19826
887.274	19655
887.399	19620
887.523	19586
887.648	19594
887.773	19635
887.897	19772
888.021	19609
888.146	19575
888.27	19715
888.395	19784
888.519	19670
888.643	19662
888.767	19704
888.891	19571
889.015	19559
889.139	19506
889.263	19552
889.387	19597
889.511	19696
889.635	19666
889.759	19407
889.883	19480
890.006	19533
890.13	19525
890.254	19384
890.377	19457
890.501	19301
890.624	19293
890.748	19217
890.871	19099
890.995	19065
891.118	18966
891.241	19209
891.364	19023
891.488	19107
891.611	19122
891.734	19099
891.857	19133
891.98	19065
892.103	18985
892.226	19137
892.349	18875
892.471	18951
892.594	18958
892.717	19031
892.839	19042
892.962	19034
893.085	19137
893.207	18981
893.33	18859
893.452	18966
893.575	18947
893.697	18970
893.819	19183
893.941	19206
894.064	19076
894.186	18951
894.308	18916
894.43	19076
894.552	19133
894.674	19126
894.796	18954
894.918	19008
895.04	19031
895.161	18966
895.283	19034
895.405	18985
895.526	18981
895.648	18977
895.769	19042
895.891	19065
896.012	19038
896.134	19050
896.255	19065
896.376	18943
896.498	19012
896.619	19103
896.74	19019
896.861	19008
896.982	19388
897.103	19438
897.224	19247
897.345	19289
897.466	19190
897.587	19217
897.708	19308
897.828	19365
897.949	19221
898.07	19141
898.19	19168
898.311	19327
898.431	19160
898.552	19255
898.672	19415
898.792	19400
898.913	19346
899.033	19072
899.153	19072
899.273	18878
899.393	18970
899.513	19152
899.633	19012
899.753	18916
899.873	19038
899.993	19008
900.113	18962
900.232	18962
900.352	18863
900.472	18886
900.591	18738
900.711	18749
900.83	18798
900.95	18890
901.069	18973
901.189	18677
901.308	18456
901.427	18391
901.546	18399
901.665	18490
901.784	18448
901.904	18220
902.023	18194
902.141	18117
902.26	17999
902.379	18034
902.498	17977
902.617	17973
902.735	17939
902.854	17927
902.973	17866
903.091	17718
903.21	17657
903.328	17619
903.446	17585
903.565	17509
903.683	17440
903.801	17242
903.919	17322
904.038	17463
904.156	17315
904.274	17425
904.392	17223
904.51	17265
904.627	17231
904.745	17296
904.863	17330
904.981	17094
905.098	17014
905.216	16889
905.334	17006
905.451	16942
905.569	16881
905.686	16968
905.803	16995
905.921	16725
906.038	16809
906.155	16809
906.272	16565
906.389	16611
906.506	16470
906.623	16470
906.74	16561
906.857	16421
906.974	16462
907.091	16596
907.208	16577
907.324	16474
907.441	16398
907.557	16249
907.674	16226
907.79	16067
907.907	16116
908.023	16314
908.139	16196
908.256	16177
908.372	16143
908.488	16017
908.604	16002
908.72	15884
908.836	15994
908.952	15934
909.068	15949
909.184	15991
909.3	15876
909.415	16059
909.531	15979
909.647	15698
909.762	15663
909.878	15538
909.993	15606
910.108	15584
910.224	15614
910.339	15542
910.454	15568
910.57	15462
910.685	15454
910.8	15774
910.915	15595
911.03	15386
911.145	15306
911.259	15233
911.374	15321
911.489	15157
911.604	15028
911.718	14906
911.833	15020
911.947	14910
912.062	14925
912.176	15150
912.291	14979
912.405	15142
912.519	15310
912.633	15195
912.748	15017
912.862	14906
912.976	14895
913.09	14708
913.204	14857
913.318	14804
913.431	14963
913.545	14804
913.659	14849
913.772	14731
913.886	14644
914	14613
914.113	14754
914.226	14769
914.34	14663
914.453	14636
914.566	14659
914.68	14503
914.793	14583
914.906	14275
915.019	14282
915.132	14267
915.245	14252
915.358	14237
915.47	14206
915.583	14210
915.696	14408
915.809	14362
915.921	14343
916.034	14252
916.146	14206
916.259	14149
916.371	14221
916.483	14248
916.595	14145
916.708	14145
916.82	14161
916.932	14077
917.044	14123
917.156	14103
917.268	14024
917.38	14054
917.491	14043
917.603	13928
917.715	14081
917.826	14084
917.938	13875
918.049	13875
918.161	13826
918.272	14096
918.384	14035
918.495	13833
918.606	13742
918.717	13746
918.828	13803
918.939	13814
919.05	13700
919.161	13708
919.272	13510
919.383	13556
919.494	13818
919.604	14054
919.715	13822
919.826	13605
919.936	13620
920.047	13757
920.157	13727
920.267	13845
920.378	13704
920.488	13731
920.598	13868
920.708	13974
920.818	13928
920.928	13845
921.038	13959
921.148	13986
921.258	13590
921.368	13578
921.477	13445
921.587	13476
921.697	13346
921.806	13518
921.916	13304
922.025	13232
922.134	13095
922.244	13091
922.353	13164
922.462	13004
922.571	12966
922.68	12932
922.789	12776
922.898	12852
923.007	12741
923.116	12783
923.224	12821
923.333	12749
923.442	12646
923.55	12692
923.659	12658
923.767	12635
923.876	12509
923.984	12722
924.092	12433
924.201	12585
924.309	12506
924.417	12494
924.525	12380
924.633	12441
924.741	13415
924.849	12289
924.956	12426
925.064	12357
925.172	12159
925.279	12220
925.387	12205
925.494	12289
925.602	12281
925.709	12315
925.816	12296
925.924	12186
926.031	12243
926.138	12186
926.245	12186
926.352	12053
926.459	12243
926.566	12289
926.673	12091
926.779	12064
926.886	12121
926.993	11843
927.099	11817
927.206	11741
927.312	11824
927.419	11870
927.525	11783
927.631	11885
927.737	11691
927.843	11710
927.95	11532
928.056	11729
928.162	11661
928.267	11771
928.373	12319
928.479	11710
928.585	11478
928.69	11657
928.796	11691
928.901	11558
929.007	11402
929.112	11551
929.218	11596
929.323	11406
929.428	11353
929.533	11490
929.638	11334
929.743	11376
929.848	11372
929.953	11395
930.058	11288
930.163	11075
930.267	11155
930.372	11250
930.477	11094
930.581	11307
930.685	11140
930.79	11048
930.894	10999
930.998	10995
931.103	11162
931.207	10672
931.311	10698
931.415	10611
931.519	10390
931.623	10451
