Data from test_V78500241_1876.txt Node
Date: Fri Mar 25 15:22:55 CST 2022
User: usil
Spectrometer: V785-0024
Trigger mode: 0
Integration Time (sec): 4.000000E-1
Scans to average: 1
Nonlinearity correction enabled: false
Boxcar width: 0
Storing dark spectrum: false
XAxis mode: Wavelengths
Number of Pixels in Spectrum: 1024
>>>>>Begin Spectral Data<<<<<
801.071	27994
801.214	27819
801.356	27629
801.499	27545
801.641	27488
801.783	27454
801.926	27515
802.068	27557
802.211	27469
802.353	27287
802.496	27119
802.638	27150
802.78	27074
802.923	27028
803.065	27043
803.208	26899
803.35	27135
803.492	27173
803.635	27283
803.777	27188
803.919	27245
804.061	27538
804.204	27363
804.346	27222
804.488	27233
804.63	27203
804.773	27184
804.915	27302
805.057	27329
805.199	27184
805.341	27283
805.483	27431
805.626	27329
805.768	27298
805.91	27287
806.052	27427
806.194	27344
806.336	27576
806.478	27367
806.62	27473
806.762	27507
806.904	27629
807.046	27781
807.188	27823
807.33	27914
807.472	27895
807.614	27728
807.756	27766
807.898	27728
808.04	27675
808.182	27644
808.324	27739
808.465	27709
808.607	28051
808.749	28067
808.891	28128
809.033	28185
809.174	28181
809.316	28044
809.458	27937
809.6	28074
809.741	28032
809.883	28086
810.025	28382
810.166	28352
810.308	28310
810.45	28154
810.591	28314
810.733	28116
810.875	28017
811.016	27895
811.158	27945
811.299	28154
811.441	28219
811.582	28162
811.724	28147
811.865	27998
812.007	27979
812.148	28063
812.29	28101
812.431	28249
812.573	28367
812.714	28386
812.855	28531
812.997	28637
813.138	28873
813.279	28755
813.421	28569
813.562	28554
813.703	28371
813.845	28310
813.986	28063
814.127	27873
814.268	27846
814.41	27846
814.551	27724
814.692	27804
814.833	27686
814.974	27732
815.115	27701
815.256	27789
815.397	27637
815.539	27633
815.68	27481
815.821	27469
815.962	27568
816.103	27629
816.244	27424
816.385	27211
816.526	27192
816.666	27085
816.807	26960
816.948	27146
817.089	27123
817.23	26994
817.371	26883
817.512	26998
817.653	27104
817.793	26948
817.934	27001
818.075	27089
818.216	27123
818.356	27077
818.497	26880
818.638	26781
818.778	26651
818.919	26800
819.06	26891
819.2	26899
819.341	27142
819.481	27051
819.622	27131
819.762	27416
819.903	27264
820.043	27264
820.184	27020
820.324	27077
820.465	27207
820.605	27112
820.746	27024
820.886	26956
821.026	27108
821.167	27028
821.307	27081
821.447	27089
821.588	26971
821.728	26819
821.868	26727
822.008	26541
822.149	26518
822.289	26457
822.429	26225
822.569	26126
822.709	26263
822.849	26103
822.99	26035
823.13	25986
823.27	25932
823.41	25932
823.55	25700
823.69	25879
823.83	25845
823.97	25742
824.11	25548
824.25	25548
824.389	25658
824.529	25765
824.669	25601
824.809	25852
824.949	25712
825.089	25696
825.228	25731
825.368	25533
825.508	25533
825.648	25491
825.787	25586
825.927	25529
826.067	25388
826.206	25381
826.346	25712
826.485	25529
826.625	25499
826.765	25476
826.904	25533
827.044	25384
827.183	25270
827.323	25236
827.462	25217
827.601	25297
827.741	25301
827.88	25377
828.02	25099
828.159	25031
828.298	25255
828.437	25289
828.577	25206
828.716	25316
828.855	25114
828.994	24973
829.134	25072
829.273	24935
829.412	24981
829.551	24935
829.69	24951
829.829	24935
829.968	24924
830.107	24947
830.246	25000
830.385	24897
830.524	24928
830.663	24802
830.802	24795
830.941	24616
831.08	24578
831.219	24646
831.357	24547
831.496	24817
831.635	24593
831.774	24334
831.913	24540
832.051	24399
832.19	24410
832.329	24281
832.467	24251
832.606	24190
832.744	24194
832.883	24262
833.022	24224
833.16	24281
833.299	24277
833.437	24235
833.576	24342
833.714	24205
833.852	24395
833.991	24266
834.129	24388
834.267	24357
834.406	24342
834.544	24266
834.682	24285
834.821	24342
834.959	24486
835.097	24292
835.235	24319
835.373	24410
835.511	24247
835.65	24273
835.788	24243
835.926	24053
836.064	23908
836.202	23984
836.34	24129
836.478	24209
836.615	24117
836.753	24091
836.891	24030
837.029	24213
837.167	24038
837.305	23920
837.443	24041
837.58	23996
837.718	23961
837.856	23996
837.993	24011
838.131	23897
838.269	23897
838.406	23961
838.544	23699
838.681	23649
838.819	23707
838.956	23528
839.094	23414
839.231	23562
839.369	23729
839.506	23889
839.643	23695
839.781	23391
839.918	23379
840.055	23608
840.193	23570
840.33	23474
840.467	23303
840.604	23486
840.742	23741
840.879	23258
841.016	23398
841.153	23299
841.29	23505
841.427	23372
841.564	23406
841.701	23345
841.838	23299
841.975	23330
842.112	23315
842.249	23334
842.385	23094
842.522	23455
842.659	23124
842.796	23018
842.933	23265
843.069	23140
843.206	23056
843.343	23239
843.479	23151
843.616	23128
843.752	22896
843.889	22927
844.025	22968
844.162	22946
844.298	23048
844.435	22946
844.571	22771
844.708	23006
844.844	23094
844.98	23022
845.117	23029
845.253	22850
845.389	22691
845.525	22862
845.661	22812
845.798	22584
845.934	22626
846.07	22656
846.206	22786
846.342	22679
846.478	22531
846.614	22379
846.75	22382
846.886	22413
847.022	22405
847.158	22310
847.294	22421
847.429	22337
847.565	22344
847.701	22653
847.837	22097
847.972	22067
848.108	22204
848.244	22177
848.379	22017
848.515	21964
848.65	22044
848.786	21975
848.921	21953
849.057	22017
849.192	22032
849.328	22082
849.463	21888
849.598	21869
849.734	21934
849.869	21861
850.004	21747
850.14	21766
850.275	21755
850.41	21583
850.545	21736
850.68	21686
850.815	21797
850.95	21614
851.085	21907
851.22	21892
851.355	21778
851.49	21614
851.625	21667
851.76	21724
851.895	21747
852.03	21561
852.165	21675
852.299	21781
852.434	21766
852.569	21846
852.703	21679
852.838	21720
852.973	21808
853.107	21876
853.242	21679
853.376	21469
853.511	21485
853.645	21462
853.78	21660
853.914	21599
854.048	21473
854.183	21534
854.317	21610
854.451	21797
854.585	21576
854.72	21485
854.854	21660
854.988	21564
855.122	21583
855.256	21477
855.39	21439
855.524	21603
855.658	21595
855.792	21485
855.926	21618
856.06	21580
856.194	21580
856.327	21435
856.461	21625
856.595	21534
856.729	21557
856.862	21606
856.996	21530
857.13	21515
857.263	21610
857.397	21599
857.53	21530
857.664	21595
857.797	21530
857.931	21724
858.064	21519
858.197	21713
858.331	21462
858.464	21420
858.597	21500
858.731	21534
858.864	21454
858.997	21580
859.13	21492
859.263	21637
859.396	21663
859.529	21511
859.662	21507
859.795	21530
859.928	21500
860.061	21755
860.194	21835
860.327	21679
860.46	21633
860.592	21675
860.725	21694
860.858	21587
860.99	21481
861.123	21488
861.256	21408
861.388	21519
861.521	22211
861.653	21386
861.786	21317
861.918	21332
862.05	21447
862.183	21477
862.315	21504
862.447	21549
862.58	21485
862.712	21298
862.844	21195
862.976	21279
863.108	21264
863.24	21591
863.372	21138
863.504	21184
863.636	21104
863.768	21336
863.9	21272
864.032	21340
864.164	21184
864.296	21237
864.428	21447
864.559	21325
864.691	21241
864.823	21287
864.954	21184
865.086	21207
865.217	21165
865.349	21089
865.48	21051
865.612	21154
865.743	21306
865.875	21260
866.006	21032
866.137	21180
866.269	21192
866.4	21039
866.531	21043
866.662	21058
866.793	20994
866.924	21043
867.055	21005
867.186	21074
867.317	21028
867.448	21032
867.579	21070
867.71	20937
867.841	21001
867.972	21108
868.103	21001
868.233	21081
868.364	20994
868.495	21135
868.625	21283
868.756	21245
868.886	21321
869.017	21272
869.147	21507
869.278	21405
869.408	21252
869.539	21252
869.669	21359
869.799	21439
869.929	21382
870.06	21405
870.19	21625
870.32	21686
870.45	21705
870.58	21724
870.71	21880
870.84	21739
870.97	21720
871.1	21713
871.23	21789
871.36	21869
871.489	21785
871.619	21869
871.749	22070
871.879	22032
872.008	21922
872.138	21880
872.267	21869
872.397	21720
872.526	21709
872.656	21823
872.785	21789
872.915	22006
873.044	22036
873.173	21934
873.303	22086
873.432	21934
873.561	21983
873.69	22010
873.819	22093
873.948	21884
874.077	21808
874.206	21846
874.335	21850
874.464	22048
874.593	22044
874.722	22025
874.851	22150
874.979	22185
875.108	22093
875.237	22021
875.365	22044
875.494	22211
875.623	22162
875.751	22131
875.88	22192
876.008	22257
876.136	22363
876.265	22542
876.393	22675
876.521	22622
876.65	22512
876.778	22634
876.906	22443
877.034	22466
877.162	22455
877.29	22432
877.418	22421
877.546	22538
877.674	22485
877.802	22538
877.93	22417
878.058	22390
878.185	22440
878.313	22538
878.441	22634
878.568	22440
878.696	22485
878.824	22363
878.951	22569
879.079	22660
879.206	22755
879.333	22584
879.461	22462
879.588	22634
879.715	22645
879.842	22809
879.97	22519
880.097	22413
880.224	22215
880.351	22325
880.478	22421
880.605	22360
880.732	22348
880.859	22550
880.986	22249
881.112	22333
881.239	22147
881.366	22101
881.493	21930
881.619	21850
881.746	21888
881.872	21922
881.999	21895
882.125	21854
882.252	21812
882.378	21922
882.505	21975
882.631	21911
882.757	21625
882.883	21682
883.01	21599
883.136	21431
883.262	21469
883.388	21424
883.514	21507
883.64	21587
883.766	21397
883.892	21291
884.018	21355
884.143	21515
884.269	21641
884.395	21230
884.52	21211
884.646	21283
884.772	21252
884.897	21176
885.023	21165
885.148	21329
885.274	21329
885.399	21264
885.524	21161
885.65	21336
885.775	21180
885.9	21074
886.025	21321
886.15	21173
886.275	21081
886.4	21203
886.525	21138
886.65	21043
886.775	21142
886.9	21378
887.025	21351
887.149	21203
887.274	21093
887.399	20990
887.523	20849
887.648	20914
887.773	20937
887.897	21009
888.021	21047
888.146	20960
888.27	21131
888.395	20975
888.519	21020
888.643	21024
888.767	21058
888.891	20899
889.015	20754
889.139	20910
889.263	20674
889.387	20811
889.511	20834
889.635	20899
889.759	20796
889.883	20746
890.006	20777
890.13	20876
890.254	20697
890.377	20621
890.501	20549
890.624	20438
890.748	20575
890.871	20473
890.995	20412
891.118	20263
891.241	20313
891.364	20423
891.488	20511
891.611	20438
891.734	20450
891.857	20332
891.98	20427
892.103	20438
892.226	20240
892.349	20259
892.471	20111
892.594	20320
892.717	20252
892.839	20130
892.962	20248
893.085	20320
893.207	20309
893.33	20138
893.452	20180
893.575	20358
893.697	20210
893.819	20396
893.941	20427
894.064	20347
894.186	20164
894.308	20084
894.43	20286
894.552	20492
894.674	20385
894.796	20176
894.918	20259
895.04	20149
895.161	20313
895.283	20214
895.405	20214
895.526	20180
895.648	20248
895.769	20301
895.891	20298
896.012	20332
896.134	20294
896.255	20309
896.376	20290
896.498	20271
896.619	20248
896.74	20320
896.861	20298
896.982	20507
897.103	20659
897.224	20381
897.345	20590
897.466	20434
897.587	20454
897.708	20492
897.828	20431
897.949	20427
898.07	20294
898.19	20503
898.311	20442
898.431	20408
898.552	20434
898.672	20423
898.792	20476
898.913	20484
899.033	20301
899.153	20275
899.273	20088
899.393	20199
899.513	20214
899.633	20214
899.753	20210
899.873	20100
899.993	20164
900.113	20065
900.232	20202
900.352	20100
900.472	20024
900.591	19856
900.711	19852
900.83	19947
900.95	20050
901.069	19944
901.189	19868
901.308	19635
901.427	19582
901.546	19662
901.665	19586
901.784	19495
901.904	19377
902.023	19270
902.141	19164
902.26	19213
902.379	19141
902.498	18993
902.617	19088
902.735	19008
902.854	19050
902.973	19061
903.091	18722
903.21	18749
903.328	18715
903.446	18563
903.565	18597
903.683	18601
903.801	18346
903.919	18471
904.038	18433
904.156	18342
904.274	18403
904.392	18239
904.51	18277
904.627	18304
904.745	18372
904.863	18292
904.981	18057
905.098	17958
905.216	17992
905.334	18038
905.451	18049
905.569	18022
905.686	17969
905.803	17969
905.921	17756
906.038	17832
906.155	17802
906.272	17676
906.389	17710
906.506	17516
906.623	17539
906.74	17410
906.857	17440
906.974	17429
907.091	17547
907.208	17589
907.324	17585
907.441	17360
907.557	17303
907.674	17265
907.79	17102
907.907	17189
908.023	17109
908.139	17227
908.256	17178
908.372	17166
908.488	17128
908.604	16881
908.72	16828
908.836	16999
908.952	16869
909.068	16869
909.184	16984
909.3	16972
909.415	17037
909.531	17090
909.647	16607
909.762	16580
909.878	16653
909.993	16702
910.108	16653
910.224	16546
910.339	16607
910.454	16542
910.57	16577
910.685	16436
910.8	16721
910.915	16637
911.03	16455
911.145	16253
911.259	16265
911.374	16166
911.489	16166
911.604	16112
911.718	15892
911.833	15972
911.947	15983
912.062	15816
912.176	15972
912.291	16002
912.405	15953
912.519	16173
912.633	16139
912.748	15983
912.862	15941
912.976	15888
913.09	15679
913.204	15686
913.318	15789
913.431	15983
913.545	15899
913.659	15926
913.772	15739
913.886	15656
914	15576
914.113	15660
914.226	15724
914.34	15622
914.453	15515
914.566	15572
914.68	15466
914.793	15405
914.906	15310
915.019	15294
915.132	15195
915.245	15230
915.358	15272
915.47	15237
915.583	15169
915.696	15226
915.809	15355
915.921	15397
916.034	15127
916.146	15127
916.259	15104
916.371	15272
916.483	15211
916.595	15013
916.708	15066
916.82	15051
916.932	14929
917.044	15020
917.156	15001
917.268	14906
917.38	14921
917.491	14800
917.603	14902
917.715	14941
917.826	14998
917.938	14777
918.049	14838
918.161	14720
918.272	14807
918.384	14830
918.495	14743
918.606	14617
918.717	14549
918.828	14686
918.939	14594
919.05	14568
919.161	14560
919.272	14431
919.383	14469
919.494	14617
919.604	14811
919.715	14598
919.826	14434
919.936	14488
920.047	14602
920.157	14598
920.267	14834
920.378	14571
920.488	14571
920.598	14689
920.708	14853
920.818	14636
920.928	14625
921.038	14834
921.148	14739
921.258	14446
921.368	14343
921.477	14256
921.587	14362
921.697	14233
921.806	14317
921.916	14187
922.025	13982
922.134	13913
922.244	13955
922.353	13955
922.462	13849
922.571	13788
922.68	13601
922.789	13609
922.898	13575
923.007	13476
923.116	13552
923.224	13578
923.333	13597
923.442	13358
923.55	13453
923.659	13499
923.767	13365
923.876	13381
923.984	13464
924.092	13354
924.201	13422
924.309	13247
924.417	13377
924.525	13141
924.633	13225
924.741	14126
924.849	12985
924.956	13114
925.064	13080
925.172	13004
925.279	12939
925.387	13031
925.494	12897
925.602	13107
925.709	13004
925.816	12905
925.924	12901
926.031	12909
926.138	12852
926.245	13008
926.352	12814
926.459	12916
926.566	12962
926.673	12935
926.779	12692
926.886	12684
926.993	12662
927.099	12582
927.206	12525
927.312	12471
927.419	12601
927.525	12555
927.631	12585
927.737	12407
927.843	12418
927.95	12292
928.056	12338
928.162	12399
928.267	12456
928.373	12924
928.479	12528
928.585	12194
928.69	12338
928.796	12319
928.901	12254
929.007	12083
929.112	12209
929.218	12140
929.323	12182
929.428	12186
929.533	12220
929.638	12064
929.743	12003
929.848	12102
929.953	12060
930.058	11965
930.163	11809
930.267	11824
930.372	12015
930.477	11767
930.581	11939
930.685	11874
930.79	11649
930.894	11653
930.998	11680
931.103	11798
931.207	11448
931.311	11315
931.415	11231
931.519	11102
931.623	11014
