Data from test_V78500241_2058.txt Node
Date: Fri Mar 25 15:24:11 CST 2022
User: usil
Spectrometer: V785-0024
Trigger mode: 0
Integration Time (sec): 4.000000E-1
Scans to average: 1
Nonlinearity correction enabled: false
Boxcar width: 0
Storing dark spectrum: false
XAxis mode: Wavelengths
Number of Pixels in Spectrum: 1024
>>>>>Begin Spectral Data<<<<<
801.071	27766
801.214	27713
801.356	27526
801.499	27507
801.641	27298
801.783	27264
801.926	27211
802.068	27218
802.211	27256
802.353	27203
802.496	26925
802.638	26918
802.78	26644
802.923	26769
803.065	26617
803.208	26739
803.35	26834
803.492	26933
803.635	27036
803.777	26921
803.919	27032
804.061	27272
804.204	27036
804.346	27066
804.488	26899
804.63	27135
804.773	26895
804.915	27074
805.057	27291
805.199	27112
805.341	27138
805.483	27146
805.626	27313
805.768	27058
805.91	27195
806.052	27176
806.194	27081
806.336	27241
806.478	27146
806.62	27157
806.762	27207
806.904	27485
807.046	27637
807.188	27542
807.33	27507
807.472	27660
807.614	27530
807.756	27591
807.898	27504
808.04	27405
808.182	27469
808.324	27386
808.465	27549
808.607	27717
808.749	27751
808.891	27949
809.033	27991
809.174	27914
809.316	27812
809.458	27781
809.6	27705
809.741	27884
809.883	27873
810.025	27975
810.166	28074
810.308	28150
810.45	28025
810.591	28101
810.733	27755
810.875	27778
811.016	27720
811.158	27606
811.299	27819
811.441	27701
811.582	27918
811.724	27827
811.865	27781
812.007	27739
812.148	27766
812.29	27819
812.431	27956
812.573	28128
812.714	28181
812.855	28314
812.997	28394
813.138	28489
813.279	28455
813.421	28329
813.562	28234
813.703	28109
813.845	28086
813.986	27511
814.127	27534
814.268	27454
814.41	27591
814.551	27443
814.692	27572
814.833	27344
814.974	27500
815.115	27462
815.256	27321
815.397	27313
815.539	27504
815.68	27192
815.821	27074
815.962	27298
816.103	27264
816.244	27214
816.385	27051
816.526	26963
816.666	26872
816.807	26655
816.948	26834
817.089	26762
817.23	26781
817.371	26758
817.512	26708
817.653	26724
817.793	26598
817.934	26659
818.075	26731
818.216	26804
818.356	26788
818.497	26571
818.638	26385
818.778	26552
818.919	26457
819.06	26701
819.2	26632
819.341	26697
819.481	26693
819.622	26716
819.762	27024
819.903	26895
820.043	26933
820.184	26963
820.324	26735
820.465	26937
820.605	26857
820.746	26682
820.886	26743
821.026	26838
821.167	26880
821.307	26845
821.447	26883
821.588	26697
821.728	26560
821.868	26332
822.008	26332
822.149	26161
822.289	26278
822.429	25852
822.569	25936
822.709	26001
822.849	25715
822.99	25708
823.13	25685
823.27	25643
823.41	25491
823.55	25354
823.69	25590
823.83	25510
823.97	25415
824.11	25384
824.25	25331
824.389	25320
824.529	25320
824.669	25228
824.809	25316
824.949	25365
825.089	25350
825.228	25422
825.368	25126
825.508	25240
825.648	25187
825.787	25236
825.927	25183
826.067	25213
826.206	25114
826.346	25274
826.485	25285
826.625	25183
826.765	25411
826.904	25327
827.044	25065
827.183	24962
827.323	24875
827.462	24939
827.601	24928
827.741	24817
827.88	24947
828.02	24707
828.159	24817
828.298	25099
828.437	24996
828.577	24837
828.716	24939
828.855	24738
828.994	24597
829.134	24650
829.273	24604
829.412	24639
829.551	24551
829.69	24684
829.829	24597
829.968	24650
830.107	24741
830.246	24582
830.385	24559
830.524	24471
830.663	24502
830.802	24353
830.941	24235
831.08	24144
831.219	24273
831.357	24296
831.496	24365
831.635	24300
831.774	24251
831.913	24213
832.051	24003
832.19	23999
832.329	24106
832.467	23954
832.606	23908
832.744	23813
832.883	23980
833.022	23863
833.16	23912
833.299	23969
833.437	23954
833.576	23965
833.714	23988
833.852	23901
833.991	24011
834.129	24072
834.267	23954
834.406	24011
834.544	24041
834.682	23977
834.821	23882
834.959	24060
835.097	23901
835.235	24060
835.373	24041
835.511	23992
835.65	23802
835.788	23878
835.926	23665
836.064	23684
836.202	23539
836.34	23878
836.478	23851
836.615	23748
836.753	23840
836.891	23916
837.029	23722
837.167	23710
837.305	23615
837.443	23615
837.58	23570
837.718	23657
837.856	23756
837.993	23657
838.131	23509
838.269	23452
838.406	23497
838.544	23433
838.681	23235
838.819	23265
838.956	23109
839.094	23128
839.231	23098
839.369	23284
839.506	23463
839.643	23311
839.781	23159
839.918	23151
840.055	23143
840.193	23052
840.33	22991
840.467	23105
840.604	23022
840.742	23299
840.879	22908
841.016	22908
841.153	22843
841.29	23151
841.427	23098
841.564	23064
841.701	22934
841.838	23006
841.975	22946
842.112	22801
842.249	22850
842.385	22824
842.522	23041
842.659	22782
842.796	22801
842.933	22824
843.069	22626
843.206	22668
843.343	22771
843.479	22710
843.616	22733
843.752	22512
843.889	22664
844.025	22725
844.162	22542
844.298	22607
844.435	22672
844.571	22489
844.708	22637
844.844	22733
844.98	22630
845.117	22675
845.253	22580
845.389	22421
845.525	22421
845.661	22314
845.798	22207
845.934	22356
846.07	22390
846.206	22291
846.342	22207
846.478	22421
846.614	22181
846.75	21949
846.886	22017
847.022	22059
847.158	22051
847.294	22048
847.429	22044
847.565	21994
847.701	22249
847.837	21698
847.972	21827
848.108	21842
848.244	21884
848.379	21701
848.515	21504
848.65	21622
848.786	21652
848.921	21667
849.057	21823
849.192	21583
849.328	21660
849.463	21610
849.598	21511
849.734	21507
849.869	21447
850.004	21386
850.14	21412
850.275	21428
850.41	21382
850.545	21355
850.68	21283
850.815	21344
850.95	21340
851.085	21610
851.22	21572
851.355	21408
851.49	21386
851.625	21291
851.76	21317
851.895	21260
852.03	21192
852.165	21218
852.299	21359
852.434	21545
852.569	21302
852.703	21374
852.838	21462
852.973	21538
853.107	21496
853.242	21431
853.376	21188
853.511	21077
853.645	21127
853.78	21275
853.914	21184
854.048	21192
854.183	21226
854.317	21157
854.451	21431
854.585	21062
854.72	21085
854.854	21241
854.988	20971
855.122	21127
855.256	21104
855.39	21188
855.524	21169
855.658	21214
855.792	21268
855.926	21188
856.06	21222
856.194	21272
856.327	21123
856.461	21104
856.595	21093
856.729	21214
856.862	21195
856.996	21264
857.13	21226
857.263	21188
857.397	21294
857.53	21237
857.664	21230
857.797	21264
857.931	21332
858.064	21249
858.197	21382
858.331	21268
858.464	21096
858.597	20994
858.731	21096
858.864	21173
858.997	21207
859.13	21192
859.263	21104
859.396	21264
859.529	21077
859.662	21135
859.795	21138
859.928	21173
860.061	21325
860.194	21275
860.327	21336
860.46	21119
860.592	21291
860.725	21233
860.858	21317
860.99	21176
861.123	21081
861.256	21077
861.388	21245
861.521	21812
861.653	21100
861.786	20864
861.918	20956
862.05	21119
862.183	21123
862.315	21074
862.447	21135
862.58	21218
862.712	20941
862.844	20887
862.976	21009
863.108	20982
863.24	21348
863.372	20849
863.504	20918
863.636	20925
863.768	20895
863.9	20906
864.032	20800
864.164	20887
864.296	20864
864.428	20998
864.559	21039
864.691	21017
864.823	20800
864.954	20899
865.086	20883
865.217	20868
865.349	20625
865.48	20857
865.612	20861
865.743	20899
865.875	20815
866.006	20693
866.137	20918
866.269	20708
866.4	20796
866.531	20625
866.662	20667
866.793	20777
866.924	20811
867.055	20754
867.186	20693
867.317	20701
867.448	20609
867.579	20750
867.71	20682
867.841	20716
867.972	20800
868.103	20727
868.233	20785
868.364	20750
868.495	20899
868.625	20963
868.756	21020
868.886	20842
869.017	20998
869.147	21001
869.278	21116
869.408	20979
869.539	20948
869.669	20998
869.799	21043
869.929	21146
870.06	21028
870.19	21260
870.32	21340
870.45	21268
870.58	21431
870.71	21481
870.84	21378
870.97	21370
871.1	21370
871.23	21458
871.36	21576
871.489	21443
871.619	21534
871.749	21542
871.879	21591
872.008	21713
872.138	21614
872.267	21530
872.397	21481
872.526	21367
872.656	21420
872.785	21317
872.915	21648
873.044	21629
873.173	21595
873.303	21564
873.432	21595
873.561	21694
873.69	21637
873.819	21591
873.948	21705
874.077	21580
874.206	21526
874.335	21663
874.464	21701
874.593	21838
874.722	21694
874.851	21808
874.979	21781
875.108	21793
875.237	21861
875.365	21720
875.494	21816
875.623	21945
875.751	21709
875.88	21781
876.008	21998
876.136	22010
876.265	22188
876.393	22352
876.521	22356
876.65	22280
876.778	22010
876.906	22226
877.034	22196
877.162	22169
877.29	22128
877.418	22143
877.546	22143
877.674	22154
877.802	22200
877.93	22097
878.058	22230
878.185	22067
878.313	22029
878.441	22181
878.568	22044
878.696	22032
878.824	22196
878.951	22268
879.079	22215
879.206	22455
879.333	22352
879.461	22226
879.588	22261
879.715	22276
879.842	22382
879.97	22207
880.097	22048
880.224	21964
880.351	22067
880.478	22044
880.605	22025
880.732	21964
880.859	22147
880.986	21998
881.112	22017
881.239	21968
881.366	21591
881.493	21618
881.619	21656
881.746	21656
881.872	21603
881.999	21405
882.125	21561
882.252	21557
882.378	21530
882.505	21648
882.631	21408
882.757	21237
882.883	21332
883.01	21279
883.136	21306
883.262	21058
883.388	21005
883.514	21211
883.64	21241
883.766	21188
883.892	21085
884.018	20937
884.143	21154
884.269	21302
884.395	21001
884.52	20948
884.646	21005
884.772	20933
884.897	20807
885.023	20845
885.148	20944
885.274	21032
885.399	20990
885.524	20941
885.65	20921
885.775	20967
885.9	20849
886.025	21001
886.15	20941
886.275	20845
886.4	20861
886.525	20891
886.65	20781
886.775	20773
886.9	20979
887.025	21138
887.149	20823
887.274	20629
887.399	20579
887.523	20804
887.648	20640
887.773	20613
887.897	20708
888.021	20636
888.146	20625
888.27	20697
888.395	20701
888.519	20754
888.643	20655
888.767	20682
888.891	20629
889.015	20492
889.139	20625
889.263	20393
889.387	20564
889.511	20583
889.635	20644
889.759	20507
889.883	20484
890.006	20469
890.13	20575
890.254	20332
890.377	20362
890.501	20218
890.624	20153
890.748	20237
890.871	20237
890.995	19989
891.118	19925
891.241	20039
891.364	20020
891.488	20202
891.611	20081
891.734	20157
891.857	20027
891.98	20020
892.103	19982
892.226	20138
892.349	20134
892.471	19757
892.594	20062
892.717	20012
892.839	19967
892.962	19944
893.085	20039
893.207	19951
893.33	19818
893.452	19890
893.575	19993
893.697	20035
893.819	20119
893.941	20100
894.064	20065
894.186	19833
894.308	19917
894.43	20046
894.552	20172
894.674	19906
894.796	19803
894.918	19932
895.04	19974
895.161	19940
895.283	20046
895.405	19868
895.526	20001
895.648	19951
895.769	19974
895.891	20122
896.012	20001
896.134	20092
896.255	19932
896.376	19936
896.498	19951
896.619	20092
896.74	19906
896.861	19928
896.982	20309
897.103	20282
897.224	20210
897.345	20130
897.466	20111
897.587	20176
897.708	20301
897.828	20210
897.949	20046
898.07	19982
898.19	20126
898.311	20210
898.431	20157
898.552	20138
898.672	20267
898.792	20427
898.913	20142
899.033	20073
899.153	20069
899.273	19925
899.393	19940
899.513	19955
899.633	19883
899.753	19989
899.873	19940
899.993	19898
900.113	19906
900.232	19940
900.352	19757
900.472	19799
900.591	19734
900.711	19708
900.83	19624
900.95	19761
901.069	19769
901.189	19647
901.308	19392
901.427	19236
901.546	19187
901.665	19362
901.784	19369
901.904	19148
902.023	19034
902.141	18844
902.26	18829
902.379	18954
902.498	18776
902.617	18783
902.735	18882
902.854	18817
902.973	18707
903.091	18532
903.21	18471
903.328	18490
903.446	18490
903.565	18251
903.683	18239
903.801	18129
903.919	18190
904.038	18182
904.156	18019
904.274	18079
904.392	17908
904.51	18045
904.627	17923
904.745	18098
904.863	18087
904.981	17802
905.098	17687
905.216	17752
905.334	17798
905.451	17729
905.569	17817
905.686	17817
905.803	17783
905.921	17505
906.038	17638
906.155	17543
906.272	17463
906.389	17512
906.506	17288
906.623	17345
906.74	17235
906.857	17124
906.974	17200
907.091	17296
907.208	17436
907.324	17239
907.441	17204
907.557	17014
907.674	16930
907.79	16915
907.907	16892
908.023	16946
908.139	17018
908.256	16885
908.372	16847
908.488	16889
908.604	16713
908.72	16679
908.836	16812
908.952	16672
909.068	16752
909.184	16790
909.3	16645
909.415	16687
909.531	16694
909.647	16474
909.762	16413
909.878	16348
909.993	16390
910.108	16325
910.224	16504
910.339	16421
910.454	16211
910.57	16306
910.685	16078
910.8	16390
910.915	16344
911.03	16226
911.145	15968
911.259	16029
911.374	15998
911.489	15937
911.604	15854
911.718	15789
911.833	15671
911.947	15724
912.062	15549
912.176	15770
912.291	15671
912.405	15698
912.519	15846
912.633	15991
912.748	15656
912.862	15774
912.976	15610
913.09	15572
913.204	15488
913.318	15542
913.431	15622
913.545	15545
913.659	15625
913.772	15443
913.886	15416
914	15450
914.113	15355
914.226	15507
914.34	15447
914.453	15226
914.566	15313
914.68	15416
914.793	15256
914.906	15043
915.019	14994
915.132	14944
915.245	15017
915.358	14982
915.47	15005
915.583	15047
915.696	14979
915.809	15131
915.921	15058
916.034	14921
916.146	14906
916.259	14800
916.371	14956
916.483	14891
916.595	14731
916.708	14750
916.82	14826
916.932	14800
917.044	14842
917.156	14807
917.268	14617
917.38	14663
917.491	14575
917.603	14701
917.715	14754
917.826	14670
917.938	14621
918.049	14552
918.161	14621
918.272	14629
918.384	14727
918.495	14571
918.606	14427
918.717	14427
918.828	14457
918.939	14400
919.05	14336
919.161	14286
919.272	14138
919.383	14256
919.494	14450
919.604	14651
919.715	14393
919.826	14244
919.936	14370
920.047	14457
920.157	14336
920.267	14552
920.378	14389
920.488	14377
920.598	14556
920.708	14590
920.818	14480
920.928	14461
921.038	14610
921.148	14769
921.258	14259
921.368	14119
921.477	14145
921.587	14107
921.697	13978
921.806	14111
921.916	13898
922.025	13674
922.134	13769
922.244	13731
922.353	13902
922.462	13590
922.571	13639
922.68	13438
922.789	13381
922.898	13430
923.007	13354
923.116	13453
923.224	13377
923.333	13282
923.442	13293
923.55	13304
923.659	13198
923.767	13388
923.876	13213
923.984	13232
924.092	13095
924.201	13152
924.309	13118
924.417	13149
924.525	13103
924.633	13042
924.741	13875
924.849	12757
924.956	13057
925.064	12825
925.172	12760
925.279	12798
925.387	12772
925.494	12730
925.602	12973
925.709	12787
925.816	12688
925.924	12798
926.031	12783
926.138	12715
926.245	12863
926.352	12601
926.459	12802
926.566	12795
926.673	12726
926.779	12540
926.886	12631
926.993	12517
927.099	12460
927.206	12410
927.312	12407
927.419	12330
927.525	12315
927.631	12418
927.737	12251
927.843	12205
927.95	12095
928.056	12205
928.162	12155
928.267	12114
928.373	12844
928.479	12304
928.585	11996
928.69	12068
928.796	12190
928.901	12034
929.007	11889
929.112	12079
929.218	12072
929.323	11920
929.428	11912
929.533	12083
929.638	11828
929.743	11923
929.848	11939
929.953	11920
930.058	11745
930.163	11688
930.267	11608
930.372	11737
930.477	11619
930.581	11821
930.685	11688
930.79	11520
930.894	11562
930.998	11452
931.103	11703
931.207	11246
931.311	11189
931.415	11071
931.519	10873
931.623	10835
