Data from test_V78500241_1933.txt Node
Date: Fri Mar 25 15:23:19 CST 2022
User: usil
Spectrometer: V785-0024
Trigger mode: 0
Integration Time (sec): 4.000000E-1
Scans to average: 1
Nonlinearity correction enabled: false
Boxcar width: 0
Storing dark spectrum: false
XAxis mode: Wavelengths
Number of Pixels in Spectrum: 1024
>>>>>Begin Spectral Data<<<<<
801.071	27667
801.214	27633
801.356	27291
801.499	27405
801.641	27233
801.783	27123
801.926	27207
802.068	27104
802.211	27123
802.353	27146
802.496	27058
802.638	27024
802.78	26765
802.923	26765
803.065	26743
803.208	26925
803.35	26956
803.492	26975
803.635	27032
803.777	26967
803.919	27116
804.061	27447
804.204	27192
804.346	27013
804.488	27043
804.63	26895
804.773	26937
804.915	27017
805.057	27081
805.199	26944
805.341	27245
805.483	27256
805.626	27192
805.768	27017
805.91	27226
806.052	27226
806.194	27161
806.336	27332
806.478	27363
806.62	27161
806.762	27363
806.904	27500
807.046	27690
807.188	27564
807.33	27553
807.472	27618
807.614	27507
807.756	27637
807.898	27523
808.04	27637
808.182	27412
808.324	27431
808.465	27481
808.607	27819
808.749	27914
808.891	27823
809.033	27930
809.174	27949
809.316	27778
809.458	27785
809.6	27774
809.741	27987
809.883	27941
810.025	28067
810.166	28120
810.308	28150
810.45	28006
810.591	27945
810.733	27694
810.875	27884
811.016	27694
811.158	27736
811.299	27747
811.441	28006
811.582	27800
811.724	27865
811.865	27842
812.007	27751
812.148	27827
812.29	27857
812.431	28021
812.573	28139
812.714	28169
812.855	28333
812.997	28352
813.138	28367
813.279	28432
813.421	28394
813.562	28409
813.703	28063
813.845	28051
813.986	27660
814.127	27656
814.268	27462
814.41	27454
814.551	27488
814.692	27321
814.833	27500
814.974	27401
815.115	27648
815.256	27405
815.397	27344
815.539	27405
815.68	27264
815.821	27336
815.962	27378
816.103	27378
816.244	27214
816.385	26914
816.526	27039
816.666	26963
816.807	26804
816.948	26781
817.089	26823
817.23	26845
817.371	26769
817.512	26781
817.653	26785
817.793	26743
817.934	26701
818.075	26750
818.216	26849
818.356	26720
818.497	26708
818.638	26549
818.778	26442
818.919	26625
819.06	26689
819.2	26686
819.341	26921
819.481	26937
819.622	26880
819.762	27188
819.903	27020
820.043	26902
820.184	26902
820.324	26838
820.465	26952
820.605	26857
820.746	26857
820.886	26724
821.026	26960
821.167	26861
821.307	26864
821.447	26830
821.588	26727
821.728	26777
821.868	26423
822.008	26286
822.149	26271
822.289	26134
822.429	26043
822.569	26012
822.709	25940
822.849	25864
822.99	25757
823.13	25746
823.27	25635
823.41	25651
823.55	25544
823.69	25590
823.83	25677
823.97	25445
824.11	25476
824.25	25324
824.389	25381
824.529	25320
824.669	25373
824.809	25479
824.949	25540
825.089	25510
825.228	25453
825.368	25358
825.508	25263
825.648	25403
825.787	25502
825.927	25388
826.067	25194
826.206	25324
826.346	25362
826.485	25445
826.625	25251
826.765	25365
826.904	25365
827.044	24954
827.183	25107
827.323	25103
827.462	25004
827.601	24947
827.741	24977
827.88	25099
828.02	24844
828.159	24981
828.298	25012
828.437	25031
828.577	25057
828.716	25110
828.855	25061
828.994	24779
829.134	24677
829.273	24734
829.412	24719
829.551	24646
829.69	24734
829.829	24692
829.968	24814
830.107	24688
830.246	24623
830.385	24650
830.524	24646
830.663	24483
830.802	24437
830.941	24319
831.08	24300
831.219	24502
831.357	24437
831.496	24597
831.635	24319
831.774	24403
831.913	24216
832.051	24163
832.19	24102
832.329	24072
832.467	24083
832.606	23874
832.744	24026
832.883	23965
833.022	24038
833.16	24011
833.299	24095
833.437	23977
833.576	24072
833.714	24098
833.852	24072
833.991	24060
834.129	24159
834.267	24152
834.406	23958
834.544	24171
834.682	24144
834.821	24079
834.959	24235
835.097	23961
835.235	24083
835.373	23958
835.511	24072
835.65	23996
835.788	23897
835.926	23718
836.064	23691
836.202	23802
836.34	23821
836.478	24011
836.615	23840
836.753	23904
836.891	23969
837.029	23988
837.167	23855
837.305	23946
837.443	23874
837.58	23817
837.718	23790
837.856	23752
837.993	23661
838.131	23589
838.269	23497
838.406	23699
838.544	23668
838.681	23376
838.819	23368
838.956	23296
839.094	23170
839.231	23193
839.369	23391
839.506	23581
839.643	23402
839.781	23239
839.918	23105
840.055	23147
840.193	23193
840.33	23056
840.467	23025
840.604	23136
840.742	23459
840.879	23022
841.016	23071
841.153	22934
841.29	23193
841.427	23212
841.564	23109
841.701	23105
841.838	23056
841.975	23018
842.112	23117
842.249	22953
842.385	22900
842.522	23151
842.659	22915
842.796	22904
842.933	22927
843.069	22763
843.206	22942
843.343	23010
843.479	22915
843.616	22919
843.752	22634
843.889	22626
844.025	22911
844.162	22664
844.298	22713
844.435	22694
844.571	22729
844.708	22641
844.844	22919
844.98	22801
845.117	22755
845.253	22664
845.389	22592
845.525	22588
845.661	22500
845.798	22535
845.934	22500
846.07	22402
846.206	22405
846.342	22596
846.478	22200
846.614	22139
846.75	22101
846.886	22272
847.022	22249
847.158	22162
847.294	22166
847.429	22158
847.565	21979
847.701	22318
847.837	21941
847.972	21823
848.108	21941
848.244	21915
848.379	21732
848.515	21622
848.65	21682
848.786	21644
848.921	21732
849.057	21861
849.192	21747
849.328	21717
849.463	21694
849.598	21583
849.734	21625
849.869	21519
850.004	21424
850.14	21526
850.275	21492
850.41	21393
850.545	21488
850.68	21466
850.815	21515
850.95	21443
851.085	21679
851.22	21690
851.355	21610
851.49	21485
851.625	21492
851.76	21473
851.895	21488
852.03	21431
852.165	21466
852.299	21359
852.434	21481
852.569	21481
852.703	21488
852.838	21496
852.973	21637
853.107	21656
853.242	21348
853.376	21302
853.511	21207
853.645	21279
853.78	21428
853.914	21336
854.048	21192
854.183	21340
854.317	21332
854.451	21435
854.585	21424
854.72	21355
854.854	21344
854.988	21165
855.122	21344
855.256	21252
855.39	21359
855.524	21393
855.658	21382
855.792	21370
855.926	21340
856.06	21340
856.194	21416
856.327	21260
856.461	21222
856.595	21329
856.729	21287
856.862	21363
856.996	21367
857.13	21336
857.263	21545
857.397	21405
857.53	21252
857.664	21294
857.797	21374
857.931	21397
858.064	21359
858.197	21405
858.331	21256
858.464	21245
858.597	21188
858.731	21348
858.864	21207
858.997	21218
859.13	21332
859.263	21332
859.396	21439
859.529	21222
859.662	21146
859.795	21344
859.928	21344
860.061	21526
860.194	21473
860.327	21416
860.46	21313
860.592	21336
860.725	21477
860.858	21488
860.99	21412
861.123	21264
861.256	21184
861.388	21363
861.521	21987
861.653	21192
861.786	21077
861.918	21085
862.05	21241
862.183	21230
862.315	21291
862.447	21264
862.58	21226
862.712	21062
862.844	20948
862.976	21104
863.108	21077
863.24	21477
863.372	20887
863.504	21081
863.636	20975
863.768	21020
863.9	20998
864.032	20994
864.164	20982
864.296	21108
864.428	21241
864.559	21074
864.691	21146
864.823	20975
864.954	20979
865.086	21024
865.217	20918
865.349	20891
865.48	20914
865.612	20891
865.743	21051
865.875	21017
866.006	20819
866.137	20952
866.269	20921
866.4	20891
866.531	20845
866.662	20864
866.793	20838
866.924	20861
867.055	20891
867.186	20902
867.317	20899
867.448	20788
867.579	20762
867.71	20796
867.841	20762
867.972	20815
868.103	20864
868.233	20834
868.364	20781
868.495	21017
868.625	21020
868.756	21119
868.886	21047
869.017	21001
869.147	21150
869.278	21085
869.408	21131
869.539	21104
869.669	21165
869.799	21123
869.929	21165
870.06	21157
870.19	21393
870.32	21317
870.45	21408
870.58	21485
870.71	21534
870.84	21553
870.97	21545
871.1	21408
871.23	21629
871.36	21610
871.489	21504
871.619	21656
871.749	21622
871.879	21663
872.008	21618
872.138	21644
872.267	21610
872.397	21538
872.526	21443
872.656	21496
872.785	21564
872.915	21644
873.044	21812
873.173	21739
873.303	21759
873.432	21610
873.561	21819
873.69	21831
873.819	21713
873.948	21713
874.077	21671
874.206	21663
874.335	21660
874.464	21800
874.593	21892
874.722	21789
874.851	21926
874.979	21975
875.108	21907
875.237	21857
875.365	21694
875.494	21880
875.623	22040
875.751	21865
875.88	22025
876.008	22040
876.136	22177
876.265	22287
876.393	22500
876.521	22303
876.65	22390
876.778	22325
876.906	22299
877.034	22299
877.162	22367
877.29	22192
877.418	22314
877.546	22314
877.674	22280
877.802	22211
877.93	22219
878.058	22265
878.185	22166
878.313	22295
878.441	22333
878.568	22006
878.696	22246
878.824	22356
878.951	22344
879.079	22508
879.206	22470
879.333	22504
879.461	22375
879.588	22352
879.715	22535
879.842	22565
879.97	22417
880.097	22036
880.224	21930
880.351	22150
880.478	22124
880.605	22093
880.732	22082
880.859	22325
880.986	22143
881.112	22097
881.239	21983
881.366	21823
881.493	21778
881.619	21682
881.746	21542
881.872	21679
881.999	21675
882.125	21698
882.252	21694
882.378	21606
882.505	21827
882.631	21447
882.757	21378
882.883	21504
883.01	21458
883.136	21306
883.262	21176
883.388	21218
883.514	21340
883.64	21382
883.766	21260
883.892	21047
884.018	21184
884.143	21317
884.269	21382
884.395	20967
884.52	20963
884.646	21043
884.772	20960
884.897	20914
885.023	20960
885.148	21085
885.274	21154
885.399	21176
885.524	20956
885.65	21009
885.775	21020
885.9	20952
886.025	21001
886.15	21112
886.275	20937
886.4	20960
886.525	20929
886.65	20872
886.775	20891
886.9	20979
887.025	21264
887.149	21062
887.274	20796
887.399	20758
887.523	20689
887.648	20750
887.773	20754
887.897	20804
888.021	20743
888.146	20533
888.27	20925
888.395	20868
888.519	20762
888.643	20705
888.767	20758
888.891	20739
889.015	20568
889.139	20640
889.263	20655
889.387	20663
889.511	20876
889.635	20659
889.759	20488
889.883	20511
890.006	20533
890.13	20670
890.254	20473
890.377	20442
890.501	20377
890.624	20229
890.748	20427
890.871	20267
890.995	20084
891.118	20164
891.241	20130
891.364	20069
891.488	20214
891.611	20065
891.734	20069
891.857	20195
891.98	20145
892.103	20134
892.226	20149
892.349	20073
892.471	19947
892.594	20062
892.717	20191
892.839	20012
892.962	20062
893.085	20119
893.207	20100
893.33	19940
893.452	19925
893.575	20176
893.697	20016
893.819	20176
893.941	20267
894.064	20191
894.186	20024
894.308	19860
894.43	20149
894.552	20157
894.674	20157
894.796	19898
894.918	20077
895.04	20046
895.161	20115
895.283	20096
895.405	20046
895.526	20031
895.648	19974
895.769	20016
895.891	20096
896.012	20115
896.134	20096
896.255	19970
896.376	20058
896.498	19993
896.619	20084
896.74	20115
896.861	20187
896.982	20370
897.103	20503
897.224	20324
897.345	20240
897.466	20115
897.587	20183
897.708	20450
897.828	20195
897.949	20183
898.07	20142
898.19	20267
898.311	20374
898.431	20210
898.552	20221
898.672	20389
898.792	20370
898.913	20259
899.033	20164
899.153	20077
899.273	19890
899.393	20016
899.513	20065
899.633	19993
899.753	20020
899.873	19852
899.993	19963
900.113	20092
900.232	19997
900.352	19978
900.472	19807
900.591	19643
900.711	19791
900.83	19700
900.95	19852
901.069	19902
901.189	19651
901.308	19403
901.427	19411
901.546	19438
901.665	19392
901.784	19343
901.904	19152
902.023	19107
902.141	18951
902.26	18928
902.379	19072
902.498	18711
902.617	18878
902.735	18981
902.854	18837
902.973	18791
903.091	18661
903.21	18528
903.328	18563
903.446	18517
903.565	18319
903.683	18414
903.801	18327
903.919	18251
904.038	18277
904.156	18163
904.274	18216
904.392	18148
904.51	18083
904.627	18133
904.745	18068
904.863	18262
904.981	17939
905.098	17767
905.216	17764
905.334	17916
905.451	17805
905.569	17889
905.686	17916
905.803	17752
905.921	17566
906.038	17691
906.155	17581
906.272	17486
906.389	17581
906.506	17379
906.623	17330
906.74	17258
906.857	17242
906.974	17250
907.091	17391
907.208	17425
907.324	17391
907.441	17250
907.557	17117
907.674	17105
907.79	16976
907.907	17025
908.023	17014
908.139	17033
908.256	16957
908.372	16938
908.488	16908
908.604	16900
908.72	16740
908.836	16858
908.952	16778
909.068	16835
909.184	16869
909.3	16797
909.415	16835
909.531	16740
909.647	16565
909.762	16402
909.878	16436
909.993	16558
910.108	16417
910.224	16394
910.339	16466
910.454	16360
910.57	16295
910.685	16223
910.8	16519
910.915	16432
911.03	16150
911.145	16078
911.259	16093
911.374	16177
911.489	16093
911.604	15907
911.718	15800
911.833	15888
911.947	15675
912.062	15606
912.176	15755
912.291	15831
912.405	15778
912.519	16036
912.633	16032
912.748	15823
912.862	15835
912.976	15622
913.09	15584
913.204	15671
913.318	15561
913.431	15762
913.545	15743
913.659	15785
913.772	15644
913.886	15504
914	15401
914.113	15561
914.226	15542
914.34	15443
914.453	15306
914.566	15458
914.68	15272
914.793	15336
914.906	15123
915.019	15043
915.132	14914
915.245	15093
915.358	14986
915.47	15013
915.583	15097
915.696	15100
915.809	15123
915.921	15127
916.034	15005
916.146	14861
916.259	14902
916.371	15001
916.483	14948
916.595	14952
916.708	14910
916.82	14921
916.932	14815
917.044	14754
917.156	14800
917.268	14731
917.38	14720
917.491	14648
917.603	14644
917.715	14765
917.826	14750
917.938	14606
918.049	14503
918.161	14636
918.272	14769
918.384	14792
918.495	14632
918.606	14518
918.717	14431
918.828	14514
918.939	14549
919.05	14347
919.161	14438
919.272	14168
919.383	14362
919.494	14545
919.604	14606
919.715	14476
919.826	14290
919.936	14362
920.047	14507
920.157	14533
920.267	14587
920.378	14564
920.488	14400
920.598	14606
920.708	14781
920.818	14590
920.928	14564
921.038	14701
921.148	14621
921.258	14393
921.368	14278
921.477	14191
921.587	14191
921.697	14073
921.806	14202
921.916	14035
922.025	13772
922.134	13830
922.244	13674
922.353	13921
922.462	13597
922.571	13704
922.68	13495
922.789	13499
922.898	13476
923.007	13453
923.116	13464
923.224	13377
923.333	13339
923.442	13327
923.55	13285
923.659	13343
923.767	13324
923.876	13194
923.984	13422
924.092	13194
924.201	13247
924.309	13187
924.417	13213
924.525	13065
924.633	13084
924.741	14115
924.849	12802
924.956	13095
925.064	13027
925.172	12882
925.279	12951
925.387	12943
925.494	12890
925.602	13080
925.709	13012
925.816	12840
925.924	12837
926.031	12939
926.138	12875
926.245	12844
926.352	12757
926.459	12814
926.566	12901
926.673	12764
926.779	12662
926.886	12601
926.993	12464
927.099	12479
927.206	12369
927.312	12407
927.419	12521
927.525	12467
927.631	12502
927.737	12323
927.843	12350
927.95	12220
928.056	12308
928.162	12334
928.267	12304
928.373	12738
928.479	12296
928.585	12064
928.69	12251
928.796	12239
928.901	12148
929.007	12030
929.112	12079
929.218	12098
929.323	11965
929.428	12038
929.533	12091
929.638	11885
929.743	12003
929.848	11984
929.953	11916
930.058	11878
930.163	11623
930.267	11718
930.372	11855
930.477	11589
930.581	11878
930.685	11737
930.79	11543
930.894	11630
930.998	11577
931.103	11775
931.207	11311
931.311	11197
931.415	11151
931.519	10995
931.623	11010
