Data from test_V78500241_3015.txt Node
Date: Fri Mar 25 15:30:51 CST 2022
User: usil
Spectrometer: V785-0024
Trigger mode: 0
Integration Time (sec): 4.000000E-1
Scans to average: 1
Nonlinearity correction enabled: false
Boxcar width: 0
Storing dark spectrum: false
XAxis mode: Wavelengths
Number of Pixels in Spectrum: 1024
>>>>>Begin Spectral Data<<<<<
801.071	27226
801.214	27180
801.356	27024
801.499	26971
801.641	26826
801.783	26815
801.926	26895
802.068	26807
802.211	26701
802.353	26777
802.496	26404
802.638	26617
802.78	26541
802.923	26282
803.065	26339
803.208	26290
803.35	26438
803.492	26552
803.635	26556
803.777	26446
803.919	26571
804.061	26899
804.204	26613
804.346	26461
804.488	26412
804.63	26446
804.773	26552
804.915	26727
805.057	26746
805.199	26606
805.341	26716
805.483	26872
805.626	26617
805.768	26659
805.91	26556
806.052	26811
806.194	26571
806.336	26982
806.478	26686
806.62	26670
806.762	26918
806.904	26918
807.046	27142
807.188	27013
807.33	27180
807.472	27005
807.614	27123
807.756	27062
807.898	26887
808.04	27051
808.182	26895
808.324	27074
808.465	27043
808.607	27264
808.749	27329
808.891	27359
809.033	27348
809.174	27355
809.316	27351
809.458	27336
809.6	27287
809.741	27416
809.883	27542
810.025	27595
810.166	27610
810.308	27622
810.45	27500
810.591	27599
810.733	27397
810.875	27363
811.016	27192
811.158	27283
811.299	27283
811.441	27466
811.582	27511
811.724	27313
811.865	27237
812.007	27256
812.148	27294
812.29	27443
812.431	27359
812.573	27705
812.714	27648
812.855	27850
812.997	27884
813.138	28090
813.279	27816
813.421	27816
813.562	27641
813.703	27694
813.845	27481
813.986	27283
814.127	27116
814.268	27108
814.41	26986
814.551	26872
814.692	27043
814.833	26895
814.974	27013
815.115	27028
815.256	26815
815.397	26796
815.539	26948
815.68	26731
815.821	26712
815.962	26769
816.103	26560
816.244	26606
816.385	26526
816.526	26579
816.666	26366
816.807	26126
816.948	26347
817.089	26358
817.23	26259
817.371	26176
817.512	26252
817.653	26107
817.793	26130
817.934	26145
818.075	26286
818.216	26313
818.356	26320
818.497	26176
818.638	25894
818.778	25928
818.919	26046
819.06	26187
819.2	26142
819.341	26263
819.481	26218
819.622	26415
819.762	26556
819.903	26594
820.043	26427
820.184	26358
820.324	26282
820.465	26408
820.605	26339
820.746	26244
820.886	26286
821.026	26358
821.167	26237
821.307	26271
821.447	26248
821.588	26142
821.728	26024
821.868	25909
822.008	25712
822.149	25567
822.289	25715
822.429	25460
822.569	25426
822.709	25312
822.849	25183
822.99	25156
823.13	25110
823.27	25137
823.41	25034
823.55	24901
823.69	25050
823.83	24939
823.97	25027
824.11	24760
824.25	24722
824.389	24661
824.529	24825
824.669	24741
824.809	24943
824.949	24962
825.089	25057
825.228	24916
825.368	24722
825.508	24757
825.648	24783
825.787	24760
825.927	24639
826.067	24604
826.206	24639
826.346	24635
826.485	24642
826.625	24669
826.765	24856
826.904	24707
827.044	24426
827.183	24551
827.323	24319
827.462	24521
827.601	24418
827.741	24334
827.88	24395
828.02	24308
828.159	24334
828.298	24353
828.437	24456
828.577	24365
828.716	24467
828.855	24285
828.994	24136
829.134	24167
829.273	24171
829.412	24041
829.551	24049
829.69	24041
829.829	24159
829.968	24289
830.107	24163
830.246	24068
830.385	24083
830.524	23969
830.663	23992
830.802	23851
830.941	23714
831.08	23779
831.219	23752
831.357	23756
831.496	24011
831.635	23783
831.774	23638
831.913	23558
832.051	23398
832.19	23436
832.329	23535
832.467	23497
832.606	23376
832.744	23455
832.883	23356
833.022	23303
833.16	23341
833.299	23417
833.437	23360
833.576	23345
833.714	23440
833.852	23516
833.991	23387
834.129	23581
834.267	23589
834.406	23452
834.544	23414
834.682	23433
834.821	23433
834.959	23585
835.097	23353
835.235	23490
835.373	23448
835.511	23501
835.65	23277
835.788	23277
835.926	23261
836.064	23086
836.202	23170
836.34	23387
836.478	23406
836.615	23235
836.753	23273
836.891	23284
837.029	23341
837.167	23349
837.305	23330
837.443	23090
837.58	23079
837.718	23094
837.856	23166
837.993	23143
838.131	23117
838.269	22881
838.406	22968
838.544	22904
838.681	22816
838.819	22778
838.956	22645
839.094	22637
839.231	22733
839.369	22816
839.506	22896
839.643	22896
839.781	22573
839.918	22485
840.055	22557
840.193	22485
840.33	22459
840.467	22599
840.604	22592
840.742	22698
840.879	22352
841.016	22398
841.153	22375
841.29	22478
841.427	22588
841.564	22546
841.701	22432
841.838	22440
841.975	22409
842.112	22421
842.249	22223
842.385	22322
842.522	22474
842.659	22352
842.796	22261
842.933	22344
843.069	22352
843.206	22242
843.343	22318
843.479	22219
843.616	22215
843.752	22025
843.889	22006
844.025	22181
844.162	22002
844.298	22185
844.435	22162
844.571	22036
844.708	22036
844.844	22219
844.98	22230
845.117	22181
845.253	21987
845.389	21854
845.525	21972
845.661	21903
845.798	21884
845.934	21732
846.07	21846
846.206	21842
846.342	21903
846.478	21739
846.614	21542
846.75	21542
846.886	21572
847.022	21530
847.158	21526
847.294	21526
847.429	21496
847.565	21431
847.701	21637
847.837	21298
847.972	21237
848.108	21298
848.244	21256
848.379	21226
848.515	21245
848.65	21005
848.786	21317
848.921	21085
849.057	21283
849.192	21211
849.328	21119
849.463	21123
849.598	20902
849.734	21039
849.869	21066
850.004	20937
850.14	20872
850.275	20914
850.41	20830
850.545	20853
850.68	20823
850.815	20906
850.95	20868
851.085	21039
851.22	21013
851.355	20994
851.49	20880
851.625	20883
851.76	20773
851.895	20853
852.03	20811
852.165	20918
852.299	20952
852.434	20929
852.569	20921
852.703	20899
852.838	20887
852.973	20952
853.107	21051
853.242	20785
853.376	20781
853.511	20488
853.645	20701
853.78	20800
853.914	20727
854.048	20667
854.183	20682
854.317	20735
854.451	20952
854.585	20667
854.72	20777
854.854	20792
854.988	20648
855.122	20632
855.256	20438
855.39	20640
855.524	20788
855.658	20750
855.792	20845
855.926	20579
856.06	20644
856.194	20807
856.327	20697
856.461	20503
856.595	20651
856.729	20693
856.862	20777
856.996	20762
857.13	20826
857.263	20785
857.397	20788
857.53	20663
857.664	20758
857.797	20796
857.931	20872
858.064	20716
858.197	20845
858.331	20697
858.464	20693
858.597	20549
858.731	20625
858.864	20648
858.997	20598
859.13	20792
859.263	20735
859.396	20785
859.529	20762
859.662	20625
859.795	20636
859.928	20746
860.061	20807
860.194	20944
860.327	20693
860.46	20609
860.592	20811
860.725	20758
860.858	20857
860.99	20682
861.123	20651
861.256	20686
861.388	20674
861.521	21249
861.653	20587
861.786	20412
861.918	20511
862.05	20503
862.183	20629
862.315	20568
862.447	20705
862.58	20606
862.712	20396
862.844	20473
862.976	20537
863.108	20571
863.24	20982
863.372	20446
863.504	20396
863.636	20427
863.768	20469
863.9	20370
864.032	20336
864.164	20267
864.296	20545
864.428	20545
864.559	20514
864.691	20400
864.823	20423
864.954	20385
865.086	20499
865.217	20415
865.349	20240
865.48	20252
865.612	20381
865.743	20438
865.875	20336
866.006	20218
866.137	20343
866.269	20309
866.4	20328
866.531	20229
866.662	20278
866.793	20233
866.924	20324
867.055	20301
867.186	20168
867.317	20294
867.448	20126
867.579	20107
867.71	20206
867.841	20187
867.972	20305
868.103	20336
868.233	20244
868.364	20301
868.495	20358
868.625	20533
868.756	20549
868.886	20423
869.017	20507
869.147	20617
869.278	20644
869.408	20579
869.539	20511
869.669	20530
869.799	20526
869.929	20697
870.06	20568
870.19	20864
870.32	20697
870.45	20899
870.58	20823
870.71	21074
870.84	20979
870.97	20883
871.1	20944
871.23	21032
871.36	21009
871.489	21085
871.619	20967
871.749	21123
871.879	21226
872.008	21222
872.138	21154
872.267	21180
872.397	20849
872.526	20994
872.656	20868
872.785	20963
872.915	21119
873.044	21184
873.173	21055
873.303	21176
873.432	21150
873.561	21313
873.69	21169
873.819	21192
873.948	21218
874.077	21150
874.206	21043
874.335	21199
874.464	21062
874.593	21363
874.722	21310
874.851	21405
874.979	21469
875.108	21431
875.237	21348
875.365	21275
875.494	21252
875.623	21420
875.751	21329
875.88	21367
876.008	21416
876.136	21504
876.265	21800
876.393	21838
876.521	21762
876.65	21766
876.778	21819
876.906	21622
877.034	21705
877.162	21747
877.29	21755
877.418	21770
877.546	21846
877.674	21759
877.802	21762
877.93	21713
878.058	21667
878.185	21606
878.313	21732
878.441	21629
878.568	21572
878.696	21747
878.824	21739
878.951	21827
879.079	21873
879.206	22017
879.333	21861
879.461	21720
879.588	21823
879.715	21846
879.842	21953
879.97	21831
880.097	21507
880.224	21496
880.351	21633
880.478	21629
880.605	21587
880.732	21523
880.859	21759
880.986	21568
881.112	21572
881.239	21420
881.366	21180
881.493	21222
881.619	21093
881.746	21233
881.872	21055
881.999	21116
882.125	21146
882.252	21157
882.378	21081
882.505	21188
882.631	21081
882.757	20815
882.883	20853
883.01	20842
883.136	20815
883.262	20712
883.388	20636
883.514	20872
883.64	20906
883.766	20693
883.892	20636
884.018	20701
884.143	20830
884.269	20773
884.395	20450
884.52	20526
884.646	20503
884.772	20526
884.897	20423
885.023	20579
885.148	20617
885.274	20514
885.399	20552
885.524	20526
885.65	20465
885.775	20522
885.9	20419
886.025	20587
886.15	20419
886.275	20461
886.4	20381
886.525	20431
886.65	20457
886.775	20412
886.9	20594
887.025	20693
887.149	20374
887.274	20419
887.399	20355
887.523	20130
887.648	20218
887.773	20107
887.897	20438
888.021	20320
888.146	20180
888.27	20263
888.395	20336
888.519	20309
888.643	20248
888.767	20396
888.891	20214
889.015	20008
889.139	20142
889.263	20138
889.387	20221
889.511	20286
889.635	20142
889.759	19986
889.883	19955
890.006	20115
890.13	20187
890.254	20046
890.377	20024
890.501	19849
890.624	19803
890.748	19902
890.871	19693
890.995	19563
891.118	19582
891.241	19563
891.364	19685
891.488	19894
891.611	19708
891.734	19734
891.857	19624
891.98	19639
892.103	19597
892.226	19632
892.349	19624
892.471	19476
892.594	19495
892.717	19586
892.839	19609
892.962	19613
893.085	19491
893.207	19609
893.33	19457
893.452	19506
893.575	19586
893.697	19476
893.819	19700
893.941	19689
894.064	19544
894.186	19438
894.308	19464
894.43	19647
894.552	19704
894.674	19628
894.796	19480
894.918	19502
895.04	19422
895.161	19601
895.283	19571
895.405	19552
895.526	19594
895.648	19525
895.769	19597
895.891	19563
896.012	19685
896.134	19578
896.255	19559
896.376	19506
896.498	19635
896.619	19620
896.74	19544
896.861	19590
896.982	19826
897.103	19928
897.224	19807
897.345	19776
897.466	19715
897.587	19750
897.708	19974
897.828	19807
897.949	19761
898.07	19757
898.19	19734
898.311	19906
898.431	19753
898.552	19837
898.672	19932
898.792	19788
898.913	19780
899.033	19639
899.153	19632
899.273	19483
899.393	19472
899.513	19601
899.633	19521
899.753	19609
899.873	19449
899.993	19571
900.113	19556
900.232	19441
900.352	19483
900.472	19228
900.591	19320
900.711	19381
900.83	19244
900.95	19449
901.069	19472
901.189	19213
901.308	18989
901.427	18878
901.546	18840
901.665	19012
901.784	18844
901.904	18882
902.023	18749
902.141	18486
902.26	18506
902.379	18536
902.498	18391
902.617	18414
902.735	18513
902.854	18452
902.973	18437
903.091	18083
903.21	18079
903.328	18167
903.446	18068
903.565	17908
903.683	17977
903.801	17809
903.919	17916
904.038	17908
904.156	17710
904.274	17695
904.392	17745
904.51	17627
904.627	17729
904.745	17794
904.863	17714
904.981	17520
905.098	17330
905.216	17334
905.334	17471
905.451	17360
905.569	17406
905.686	17429
905.803	17315
905.921	17113
906.038	17242
906.155	17231
906.272	17025
906.389	17113
906.506	16999
906.623	16930
906.74	16923
906.857	16786
906.974	16809
907.091	17010
907.208	17003
907.324	16953
907.441	16801
907.557	16687
907.674	16679
907.79	16516
907.907	16771
908.023	16645
908.139	16660
908.256	16649
908.372	16645
908.488	16630
908.604	16443
908.72	16386
908.836	16402
908.952	16390
909.068	16428
909.184	16554
909.3	16428
909.415	16436
909.531	16409
909.647	16135
909.762	16162
909.878	16021
909.993	16150
910.108	16158
910.224	16090
910.339	16063
910.454	16090
910.57	15953
910.685	15850
910.8	16188
910.915	16105
911.03	15861
911.145	15785
911.259	15705
911.374	15751
911.489	15568
911.604	15587
911.718	15507
911.833	15542
911.947	15416
912.062	15412
912.176	15485
912.291	15447
912.405	15591
912.519	15736
912.633	15671
912.748	15488
912.862	15473
912.976	15329
913.09	15241
913.204	15214
913.318	15302
913.431	15420
913.545	15313
913.659	15359
913.772	15218
913.886	15146
914	15051
914.113	15150
914.226	15195
914.34	15188
914.453	15013
914.566	14990
914.68	14963
914.793	14948
914.906	14838
915.019	14697
915.132	14720
915.245	14693
915.358	14689
915.47	14708
915.583	14708
915.696	14743
915.809	14754
915.921	14868
916.034	14678
916.146	14682
916.259	14617
916.371	14689
916.483	14674
916.595	14545
916.708	14514
916.82	14594
916.932	14522
917.044	14560
917.156	14442
917.268	14328
917.38	14408
917.491	14324
917.603	14427
917.715	14450
917.826	14431
917.938	14317
918.049	14214
918.161	14393
918.272	14465
918.384	14389
918.495	14351
918.606	14233
918.717	14157
918.828	14126
918.939	14153
919.05	14020
919.161	14092
919.272	13864
919.383	13978
919.494	14210
919.604	14400
919.715	14058
919.826	14123
919.936	14130
920.047	14218
920.157	14172
920.267	14317
920.378	14199
920.488	14081
920.598	14214
920.708	14408
920.818	14263
920.928	14298
921.038	14457
921.148	14317
921.258	14065
921.368	13921
921.477	13894
921.587	13864
921.697	13681
921.806	13826
921.916	13723
922.025	13548
922.134	13620
922.244	13487
922.353	13552
922.462	13388
922.571	13350
922.68	13133
922.789	13183
922.898	13232
923.007	13065
923.116	13194
923.224	13183
923.333	13080
923.442	13084
923.55	12996
923.659	13034
923.767	13012
923.876	13000
923.984	13110
924.092	12882
924.201	12829
924.309	12924
924.417	12920
924.525	12734
924.633	12825
924.741	13685
924.849	12597
924.956	12760
925.064	12688
925.172	12532
925.279	12635
925.387	12597
925.494	12544
925.602	12715
925.709	12681
925.816	12452
925.924	12509
926.031	12582
926.138	12646
926.245	12635
926.352	12441
926.459	12490
926.566	12677
926.673	12475
926.779	12441
926.886	12323
926.993	12182
927.099	12277
927.206	12194
927.312	12133
927.419	12213
927.525	12209
927.631	12251
927.737	11958
927.843	12041
927.95	11927
928.056	11984
928.162	12057
928.267	12015
928.373	12700
928.479	12087
928.585	11786
928.69	12053
928.796	12064
928.901	11904
929.007	11764
929.112	11790
929.218	11847
929.323	11767
929.428	11699
929.533	11939
929.638	11695
929.743	11764
929.848	11718
929.953	11699
930.058	11592
930.163	11509
930.267	11402
930.372	11577
930.477	11421
930.581	11661
930.685	11554
930.79	11280
930.894	11406
930.998	11307
931.103	11501
931.207	11090
931.311	10946
931.415	10995
931.519	10725
931.623	10740
