Data from test_V78500241_1046.txt Node
Date: Fri Mar 25 15:17:08 CST 2022
User: usil
Spectrometer: V785-0024
Trigger mode: 0
Integration Time (sec): 4.000000E-1
Scans to average: 1
Nonlinearity correction enabled: false
Boxcar width: 0
Storing dark spectrum: false
XAxis mode: Wavelengths
Number of Pixels in Spectrum: 1024
>>>>>Begin Spectral Data<<<<<
801.071	28261
801.214	28276
801.356	28059
801.499	28051
801.641	27968
801.783	27861
801.926	28002
802.068	27873
802.211	27865
802.353	27778
802.496	27686
802.638	27549
802.78	27553
802.923	27637
803.065	27378
803.208	27466
803.35	27481
803.492	27606
803.635	27789
803.777	27701
803.919	27759
804.061	28032
804.204	27873
804.346	27698
804.488	27538
804.63	27819
804.773	27755
804.915	27842
805.057	27854
805.199	27755
805.341	27903
805.483	28082
805.626	27983
805.768	27899
805.91	27949
806.052	28017
806.194	27778
806.336	28147
806.478	27972
806.62	27945
806.762	28131
806.904	28322
807.046	28337
807.188	28489
807.33	28440
807.472	28447
807.614	28268
807.756	28394
807.898	28188
808.04	28265
808.182	28166
808.324	28185
808.465	28367
808.607	28455
808.749	28611
808.891	28736
809.033	28740
809.174	28637
809.316	28615
809.458	28752
809.6	28573
809.741	28767
809.883	28637
810.025	28888
810.166	28991
810.308	29006
810.45	28839
810.591	28847
810.733	28839
810.875	28565
811.016	28554
811.158	28516
811.299	28675
811.441	28717
811.582	28653
811.724	28694
811.865	28592
812.007	28733
812.148	28599
812.29	28592
812.431	28771
812.573	28946
812.714	29155
812.855	29239
812.997	29159
813.138	29360
813.279	29303
813.421	29109
813.562	29117
813.703	29033
813.845	28854
813.986	28584
814.127	28436
814.268	28284
814.41	28314
814.551	28287
814.692	28375
814.833	28280
814.974	28276
815.115	28337
815.256	28177
815.397	28181
815.539	28207
815.68	28013
815.821	28097
815.962	28131
816.103	28166
816.244	28021
816.385	28124
816.526	27968
816.666	27599
816.807	27690
816.948	27884
817.089	27720
817.23	27663
817.371	27633
817.512	27739
817.653	27587
817.793	27610
817.934	27618
818.075	27671
818.216	27644
818.356	27644
818.497	27545
818.638	27313
818.778	27321
818.919	27408
819.06	27416
819.2	27595
819.341	27633
819.481	27705
819.622	27675
819.762	28086
819.903	27960
820.043	27956
820.184	27854
820.324	27800
820.465	27766
820.605	27770
820.746	27804
820.886	27587
821.026	27667
821.167	27785
821.307	27728
821.447	27663
821.588	27580
821.728	27576
821.868	27123
822.008	27074
822.149	27108
822.289	27028
822.429	26902
822.569	26735
822.709	26781
822.849	26796
822.99	26663
823.13	26568
823.27	26514
823.41	26434
823.55	26290
823.69	26362
823.83	26545
823.97	26457
824.11	26191
824.25	26168
824.389	26328
824.529	26465
824.669	26362
824.809	26381
824.949	26533
825.089	26385
825.228	26347
825.368	26138
825.508	26168
825.648	26157
825.787	26282
825.927	26168
826.067	26062
826.206	26046
826.346	26259
826.485	26225
826.625	26149
826.765	26202
826.904	26164
827.044	25917
827.183	26058
827.323	25902
827.462	25955
827.601	25875
827.741	25849
827.88	25989
828.02	25879
828.159	25955
828.298	26073
828.437	25947
828.577	25898
828.716	26103
828.855	25898
828.994	25548
829.134	25689
829.273	25632
829.412	25502
829.551	25499
829.69	25681
829.829	25632
829.968	25594
830.107	25723
830.246	25693
830.385	25681
830.524	25499
830.663	25479
830.802	25346
830.941	25206
831.08	25187
831.219	25346
831.357	25282
831.496	25567
831.635	25362
831.774	25133
831.913	25034
832.051	24882
832.19	25031
832.329	25088
832.467	24992
832.606	24791
832.744	24897
832.883	24837
833.022	24795
833.16	24996
833.299	25019
833.437	25088
833.576	24920
833.714	24920
833.852	24932
833.991	25148
834.129	25156
834.267	25072
834.406	24932
834.544	24943
834.682	25065
834.821	24947
834.959	25213
835.097	24859
835.235	25065
835.373	25088
835.511	24966
835.65	24833
835.788	24833
835.926	24787
836.064	24578
836.202	24616
836.34	24764
836.478	24992
836.615	24825
836.753	24837
836.891	24890
837.029	24821
837.167	24700
837.305	24821
837.443	24768
837.58	24734
837.718	24734
837.856	24677
837.993	24639
838.131	24684
838.269	24448
838.406	24635
838.544	24483
838.681	24315
838.819	24289
838.956	24148
839.094	24213
839.231	24254
839.369	24338
839.506	24471
839.643	24277
839.781	24205
839.918	24148
840.055	24186
840.193	24144
840.33	24057
840.467	24057
840.604	24114
840.742	24232
840.879	23851
841.016	23897
841.153	24038
841.29	24163
841.427	23999
841.564	24159
841.701	24034
841.838	23958
841.975	23950
842.112	23843
842.249	23790
842.385	23794
842.522	24003
842.659	23920
842.796	23783
842.933	23885
843.069	23722
843.206	23775
843.343	23764
843.479	23870
843.616	23748
843.752	23505
843.889	23471
844.025	23726
844.162	23638
844.298	23638
844.435	23558
844.571	23497
844.708	23596
844.844	23665
844.98	23676
845.117	23623
845.253	23551
845.389	23471
845.525	23448
845.661	23531
845.798	23246
845.934	23395
846.07	23337
846.206	23227
846.342	23341
846.478	23315
846.614	23086
846.75	22957
846.886	23117
847.022	23064
847.158	23044
847.294	23083
847.429	23060
847.565	22892
847.701	23216
847.837	22782
847.972	22702
848.108	22889
848.244	22816
848.379	22565
848.515	22577
848.65	22611
848.786	22622
848.921	22622
849.057	22733
849.192	22618
849.328	22641
849.463	22630
849.598	22618
849.734	22478
849.869	22478
850.004	22485
850.14	22310
850.275	22375
850.41	22299
850.545	22268
850.68	22348
850.815	22360
850.95	22379
851.085	22550
851.22	22481
851.355	22280
851.49	22413
851.625	22242
851.76	22310
851.895	22481
852.03	22295
852.165	22310
852.299	22402
852.434	22436
852.569	22428
852.703	22394
852.838	22459
852.973	22596
853.107	22379
853.242	22348
853.376	22128
853.511	22021
853.645	22135
853.78	22226
853.914	22207
854.048	22200
854.183	22207
854.317	22215
854.451	22474
854.585	22185
854.72	22150
854.854	22162
854.988	22063
855.122	22310
855.256	22158
855.39	22196
855.524	22325
855.658	22188
855.792	22268
855.926	22192
856.06	22242
856.194	22474
856.327	22090
856.461	22051
856.595	22101
856.729	22185
856.862	22295
856.996	22242
857.13	22242
857.263	22272
857.397	22344
857.53	22169
857.664	22207
857.797	22303
857.931	22375
858.064	22215
858.197	22303
858.331	22143
858.464	22101
858.597	22109
858.731	22131
858.864	22169
858.997	22181
859.13	22169
859.263	22101
859.396	22257
859.529	22249
859.662	22086
859.795	22185
859.928	22196
860.061	22386
860.194	22436
860.327	22200
860.46	22185
860.592	22272
860.725	22226
860.858	22280
860.99	22246
861.123	22063
861.256	22215
861.388	22143
861.521	22858
861.653	22177
861.786	21907
861.918	22109
862.05	22093
862.183	22078
862.315	22185
862.447	22215
862.58	22032
862.712	21998
862.844	21819
862.976	21983
863.108	21994
863.24	22409
863.372	21854
863.504	21884
863.636	21846
863.768	21899
863.9	21911
864.032	21915
864.164	21941
864.296	21975
864.428	21922
864.559	21964
864.691	21934
864.823	21804
864.954	21827
865.086	21888
865.217	21941
865.349	21671
865.48	21751
865.612	21766
865.743	21789
865.875	21770
866.006	21720
866.137	21743
866.269	21831
866.4	21766
866.531	21667
866.662	21717
866.793	21603
866.924	21690
867.055	21633
867.186	21739
867.317	21656
867.448	21629
867.579	21732
867.71	21648
867.841	21652
867.972	21728
868.103	21736
868.233	21732
868.364	21701
868.495	21854
868.625	21873
868.756	22010
868.886	21755
869.017	21930
869.147	21960
869.278	21987
869.408	21972
869.539	21964
869.669	22044
869.799	21987
869.929	22070
870.06	22006
870.19	22215
870.32	22188
870.45	22299
870.58	22234
870.71	22428
870.84	22443
870.97	22333
871.1	22325
871.23	22565
871.36	22550
871.489	22443
871.619	22405
871.749	22554
871.879	22546
872.008	22767
872.138	22573
872.267	22538
872.397	22402
872.526	22421
872.656	22299
872.785	22371
872.915	22565
873.044	22698
873.173	22569
873.303	22656
873.432	22592
873.561	22740
873.69	22550
873.819	22592
873.948	22622
874.077	22508
874.206	22424
874.335	22649
874.464	22778
874.593	22873
874.722	22725
874.851	22824
874.979	22858
875.108	22774
875.237	22691
875.365	22603
875.494	22679
875.623	22782
875.751	22790
875.88	22839
876.008	22740
876.136	22904
876.265	22984
876.393	23273
876.521	23181
876.65	23292
876.778	23227
876.906	23102
877.034	23178
877.162	23075
877.29	23094
877.418	23083
877.546	23143
877.674	23147
877.802	23140
877.93	23151
878.058	23006
878.185	22987
878.313	22999
878.441	23136
878.568	22923
878.696	23098
878.824	23151
878.951	23022
879.079	23265
879.206	23360
879.333	23223
879.461	23151
879.588	23372
879.715	23197
879.842	23311
879.97	23155
880.097	22946
880.224	22873
880.351	22934
880.478	22896
880.605	22850
880.732	22752
880.859	23064
880.986	23014
881.112	22877
881.239	22729
881.366	22630
881.493	22618
881.619	22516
881.746	22557
881.872	22462
881.999	22535
882.125	22379
882.252	22603
882.378	22519
882.505	22649
882.631	22310
882.757	22246
882.883	22181
883.01	22181
883.136	22196
883.262	22029
883.388	21964
883.514	22124
883.64	22226
883.766	22135
883.892	22002
884.018	21884
884.143	22105
884.269	22097
884.395	21960
884.52	21736
884.646	21774
884.772	21724
884.897	21770
885.023	21762
885.148	21800
885.274	21972
885.399	21903
885.524	21762
885.65	21888
885.775	21701
885.9	21797
886.025	21861
886.15	21819
886.275	21747
886.4	21770
886.525	21789
886.65	21732
886.775	21770
886.9	21884
887.025	22021
887.149	21747
887.274	21542
887.399	21618
887.523	21644
887.648	21523
887.773	21507
887.897	21671
888.021	21671
888.146	21538
888.27	21713
888.395	21629
888.519	21538
888.643	21610
888.767	21534
888.891	21447
889.015	21317
889.139	21450
889.263	21340
889.387	21363
889.511	21549
889.635	21466
889.759	21287
889.883	21245
890.006	21317
890.13	21416
890.254	21203
890.377	21291
890.501	21142
890.624	20963
890.748	21108
890.871	20998
890.995	20948
891.118	20891
891.241	20941
891.364	21005
891.488	20963
891.611	20982
891.734	20857
891.857	21024
891.98	20982
892.103	21001
892.226	20918
892.349	20769
892.471	20663
892.594	20849
892.717	20918
892.839	20815
892.962	20887
893.085	20872
893.207	20918
893.33	20674
893.452	20792
893.575	20918
893.697	20758
893.819	20937
893.941	20872
894.064	20921
894.186	20769
894.308	20670
894.43	20910
894.552	20933
894.674	20857
894.796	20590
894.918	20750
895.04	20754
895.161	20834
895.283	20910
895.405	20754
895.526	20712
895.648	20765
895.769	20826
895.891	20933
896.012	20708
896.134	20792
896.255	20914
896.376	20754
896.498	20967
896.619	20872
896.74	20727
896.861	20773
896.982	21108
897.103	21272
897.224	20975
897.345	21093
897.466	20933
897.587	21058
897.708	21135
897.828	20933
897.949	20914
898.07	20910
898.19	20921
898.311	20956
898.431	20887
898.552	21009
898.672	20975
898.792	21093
898.913	20982
899.033	20842
899.153	20815
899.273	20701
899.393	20708
899.513	20689
899.633	20625
899.753	20720
899.873	20674
899.993	20758
900.113	20617
900.232	20830
900.352	20705
900.472	20476
900.591	20450
900.711	20556
900.83	20469
900.95	20541
901.069	20579
901.189	20324
901.308	20096
901.427	19928
901.546	20115
901.665	20142
901.784	20012
901.904	19917
902.023	19883
902.141	19670
902.26	19578
902.379	19590
902.498	19518
902.617	19430
902.735	19639
902.854	19510
902.973	19540
903.091	19213
903.21	19251
903.328	19164
903.446	19065
903.565	19050
903.683	18981
903.801	19000
903.919	18939
904.038	18920
904.156	18943
904.274	18810
904.392	18814
904.51	18791
904.627	18795
904.745	18772
904.863	18829
904.981	18547
905.098	18441
905.216	18528
905.334	18357
905.451	18433
905.569	18433
905.686	18445
905.803	18498
905.921	18178
906.038	18289
906.155	18262
906.272	18148
906.389	18129
906.506	17950
906.623	18045
906.74	18114
906.857	17828
906.974	17950
907.091	17958
907.208	18155
907.324	17992
907.441	17958
907.557	17707
907.674	17623
907.79	17482
907.907	17687
908.023	17615
908.139	17699
908.256	17551
908.372	17600
908.488	17615
908.604	17463
908.72	17299
908.836	17410
908.952	17440
909.068	17356
909.184	17509
909.3	17364
909.415	17387
909.531	17398
909.647	17235
909.762	17159
909.878	17136
909.993	17147
910.108	17124
910.224	17048
910.339	17086
910.454	16995
910.57	16965
910.685	16839
910.8	17113
910.915	17045
911.03	16965
911.145	16801
911.259	16596
911.374	16733
911.489	16626
911.604	16535
911.718	16500
911.833	16542
911.947	16280
912.062	16177
912.176	16329
912.291	16333
912.405	16348
912.519	16466
912.633	16535
912.748	16462
912.862	16421
912.976	16360
913.09	16219
913.204	16196
913.318	16322
913.431	16325
913.545	16310
913.659	16303
913.772	16223
913.886	16013
914	16074
914.113	16223
914.226	16230
914.34	16063
914.453	16013
914.566	16063
914.68	15934
914.793	15991
914.906	15755
915.019	15686
915.132	15629
915.245	15686
915.358	15671
915.47	15705
915.583	15641
915.696	15690
915.809	15679
915.921	15728
916.034	15488
916.146	15561
916.259	15439
916.371	15580
916.483	15690
916.595	15450
916.708	15523
916.82	15492
916.932	15401
917.044	15431
917.156	15351
917.268	15245
917.38	15268
917.491	15287
917.603	15176
917.715	15302
917.826	15355
917.938	15211
918.049	15173
918.161	15165
918.272	15272
918.384	15268
918.495	15214
918.606	15055
918.717	14948
918.828	15085
918.939	14975
919.05	14937
919.161	15009
919.272	14872
919.383	14857
919.494	15032
919.604	15233
919.715	15043
919.826	14849
919.936	14941
920.047	15005
920.157	15074
920.267	15131
920.378	15005
920.488	14948
920.598	15135
920.708	15279
920.818	15188
920.928	15017
921.038	15214
921.148	15203
921.258	14902
921.368	14864
921.477	14682
921.587	14670
921.697	14564
921.806	14632
921.916	14594
922.025	14412
922.134	14370
922.244	14199
922.353	14305
922.462	14210
922.571	14081
922.68	13986
922.789	13959
922.898	13947
923.007	13993
923.116	13978
923.224	13913
923.333	13860
923.442	13906
923.55	13811
923.659	13883
923.767	13913
923.876	13803
923.984	13799
924.092	13655
924.201	13757
924.309	13681
924.417	13655
924.525	13624
924.633	13662
924.741	14530
924.849	13537
924.956	13457
925.064	13381
925.172	13285
925.279	13362
925.387	13422
925.494	13381
925.602	13468
925.709	13392
925.816	13213
925.924	13362
926.031	13327
926.138	13278
926.245	13350
926.352	13221
926.459	13396
926.566	13476
926.673	13255
926.779	13004
926.886	13141
926.993	13031
927.099	12947
927.206	12871
927.312	12833
927.419	12966
927.525	12867
927.631	12962
927.737	12779
927.843	12707
927.95	12604
928.056	12772
928.162	12707
928.267	12852
928.373	13327
928.479	12768
928.585	12540
928.69	12703
928.796	12745
928.901	12620
929.007	12395
929.112	12563
929.218	12627
929.323	12513
929.428	12365
929.533	12506
929.638	12391
929.743	12365
929.848	12460
929.953	12338
930.058	12319
930.163	12114
930.267	12102
930.372	12254
930.477	12117
930.581	12292
930.685	12167
930.79	12007
930.894	12019
930.998	11908
931.103	12095
931.207	11752
931.311	11684
931.415	11505
931.519	11398
931.623	11398
