Data from test_V78500241_1324.txt Node
Date: Fri Mar 25 15:19:04 CST 2022
User: usil
Spectrometer: V785-0024
Trigger mode: 0
Integration Time (sec): 4.000000E-1
Scans to average: 1
Nonlinearity correction enabled: false
Boxcar width: 0
Storing dark spectrum: false
XAxis mode: Wavelengths
Number of Pixels in Spectrum: 1024
>>>>>Begin Spectral Data<<<<<
801.071	28101
801.214	28013
801.356	27732
801.499	27652
801.641	27534
801.783	27568
801.926	27648
802.068	27610
802.211	27397
802.353	27412
802.496	27260
802.638	27169
802.78	27283
802.923	27116
803.065	27119
803.208	27184
803.35	27146
803.492	27264
803.635	27344
803.777	27283
803.919	27439
804.061	27808
804.204	27454
804.346	27374
804.488	27264
804.63	27420
804.773	27393
804.915	27336
805.057	27568
805.199	27363
805.341	27561
805.483	27549
805.626	27447
805.768	27378
805.91	27526
806.052	27572
806.194	27599
806.336	27797
806.478	27625
806.62	27603
806.762	27614
806.904	27831
807.046	27941
807.188	27861
807.33	27895
807.472	28158
807.614	27736
807.756	27949
807.898	27865
808.04	27705
808.182	27831
808.324	27819
808.465	27800
808.607	27987
808.749	28158
808.891	28337
809.033	28337
809.174	28272
809.316	28097
809.458	28147
809.6	28158
809.741	28234
809.883	28356
810.025	28440
810.166	28436
810.308	28470
810.45	28424
810.591	28352
810.733	28207
810.875	28177
811.016	28230
811.158	28207
811.299	28226
811.441	28299
811.582	28253
811.724	28291
811.865	28257
812.007	28032
812.148	28162
812.29	28299
812.431	28516
812.573	28611
812.714	28706
812.855	28691
812.997	28740
813.138	28869
813.279	28683
813.421	28820
813.562	28729
813.703	28573
813.845	28337
813.986	28158
814.127	28063
814.268	27850
814.41	27934
814.551	27819
814.692	28040
814.833	27762
814.974	27987
815.115	27972
815.256	27778
815.397	27743
815.539	27774
815.68	27694
815.821	27572
815.962	27686
816.103	27610
816.244	27625
816.385	27511
816.526	27401
816.666	27233
816.807	26994
816.948	27184
817.089	27374
817.23	27199
817.371	27180
817.512	27108
817.653	27104
817.793	27100
817.934	27287
818.075	27249
818.216	27218
818.356	27169
818.497	27028
818.638	26944
818.778	26868
818.919	26887
819.06	26910
819.2	27112
819.341	27279
819.481	27176
819.622	27431
819.762	27473
819.903	27431
820.043	27340
820.184	27100
820.324	27443
820.465	27348
820.605	27401
820.746	27207
820.886	27169
821.026	27336
821.167	27211
821.307	27321
821.447	27211
821.588	27108
821.728	26982
821.868	26788
822.008	26705
822.149	26606
822.289	26632
822.429	26320
822.569	26263
822.709	26446
822.849	26252
822.99	26191
823.13	26153
823.27	26130
823.41	26062
823.55	25978
823.69	25982
823.83	25845
823.97	25753
824.11	25803
824.25	25750
824.389	25776
824.529	25982
824.669	25791
824.809	25940
824.949	25906
825.089	25902
825.228	25833
825.368	25677
825.508	25674
825.648	25571
825.787	25662
825.927	25734
826.067	25693
826.206	25685
826.346	25727
826.485	25662
826.625	25609
826.765	25849
826.904	25704
827.044	25460
827.183	25518
827.323	25449
827.462	25350
827.601	25495
827.741	25438
827.88	25293
828.02	25190
828.159	25438
828.298	25320
828.437	25411
828.577	25312
828.716	25487
828.855	25232
828.994	25137
829.134	25065
829.273	25221
829.412	25145
829.551	25225
829.69	25088
829.829	25160
829.968	25095
830.107	25168
830.246	25091
830.385	25012
830.524	24939
830.663	24764
830.802	24711
830.941	24639
831.08	24585
831.219	24681
831.357	24741
831.496	24916
831.635	24601
831.774	24635
831.913	24658
832.051	24452
832.19	24441
832.329	24547
832.467	24372
832.606	24418
832.744	24372
832.883	24456
833.022	24414
833.16	24414
833.299	24467
833.437	24426
833.576	24494
833.714	24437
833.852	24467
833.991	24532
834.129	24509
834.267	24486
834.406	24365
834.544	24494
834.682	24525
834.821	24384
834.959	24540
835.097	24403
835.235	24399
835.373	24441
835.511	24281
835.65	24308
835.788	24388
835.926	24098
836.064	24095
836.202	24022
836.34	24243
836.478	24448
836.615	24197
836.753	24243
836.891	24273
837.029	24414
837.167	24235
837.305	24228
837.443	24209
837.58	24140
837.718	24205
837.856	24174
837.993	24072
838.131	24068
838.269	23958
838.406	24125
838.544	23920
838.681	23672
838.819	23771
838.956	23600
839.094	23596
839.231	23562
839.369	23760
839.506	23939
839.643	23813
839.781	23634
839.918	23478
840.055	23558
840.193	23535
840.33	23448
840.467	23474
840.604	23577
840.742	23710
840.879	23372
841.016	23337
841.153	23303
841.29	23619
841.427	23436
841.564	23547
841.701	23353
841.838	23505
841.975	23436
842.112	23353
842.249	23467
842.385	23296
842.522	23414
842.659	23391
842.796	23239
842.933	23227
843.069	23258
843.206	23170
843.343	23296
843.479	23254
843.616	23128
843.752	23056
843.889	23102
844.025	23193
844.162	23117
844.298	23105
844.435	23048
844.571	23132
844.708	23006
844.844	23044
844.98	23246
845.117	23174
845.253	22984
845.389	22881
845.525	22900
845.661	22877
845.798	22805
845.934	22889
846.07	22729
846.206	22759
846.342	22786
846.478	22805
846.614	22683
846.75	22489
846.886	22557
847.022	22413
847.158	22341
847.294	22561
847.429	22455
847.565	22398
847.701	22618
847.837	22204
847.972	22246
848.108	22310
848.244	22306
848.379	22154
848.515	22105
848.65	22139
848.786	22036
848.921	22131
849.057	22128
849.192	22067
849.328	22204
849.463	22158
849.598	22051
849.734	21975
849.869	21736
850.004	21800
850.14	21922
850.275	21804
850.41	21823
850.545	21953
850.68	21865
850.815	21793
850.95	21766
851.085	22044
851.22	21869
851.355	21857
851.49	21797
851.625	21770
851.76	21686
851.895	21812
852.03	21842
852.165	21907
852.299	21861
852.434	21884
852.569	21930
852.703	21842
852.838	21797
852.973	21850
853.107	22017
853.242	21804
853.376	21762
853.511	21412
853.645	21698
853.78	21819
853.914	21747
854.048	21648
854.183	21614
854.317	21774
854.451	21873
854.585	21667
854.72	21675
854.854	21591
854.988	21580
855.122	21709
855.256	21576
855.39	21717
855.524	21686
855.658	21701
855.792	21656
855.926	21709
856.06	21625
856.194	21694
856.327	21641
856.461	21629
856.595	21614
856.729	21603
856.862	21701
856.996	21671
857.13	21694
857.263	21732
857.397	21876
857.53	21564
857.664	21599
857.797	21736
857.931	21770
858.064	21694
858.197	21781
858.331	21709
858.464	21553
858.597	21542
858.731	21663
858.864	21629
858.997	21618
859.13	21701
859.263	21694
859.396	21705
859.529	21637
859.662	21614
859.795	21504
859.928	21625
860.061	21838
860.194	21827
860.327	21739
860.46	21705
860.592	21724
860.725	21785
860.858	21816
860.99	21663
861.123	21545
861.256	21530
861.388	21701
861.521	22257
861.653	21519
861.786	21439
861.918	21477
862.05	21564
862.183	21629
862.315	21614
862.447	21682
862.58	21622
862.712	21458
862.844	21336
862.976	21572
863.108	21355
863.24	21656
863.372	21245
863.504	21329
863.636	21245
863.768	21401
863.9	21359
864.032	21359
864.164	21355
864.296	21408
864.428	21344
864.559	21507
864.691	21534
864.823	21378
864.954	21348
865.086	21469
865.217	21249
865.349	21192
865.48	21272
865.612	21272
865.743	21367
865.875	21310
866.006	21279
866.137	21249
866.269	21264
866.4	21146
866.531	21218
866.662	21192
866.793	21218
866.924	21161
867.055	21249
867.186	21123
867.317	21104
867.448	21116
867.579	21119
867.71	21074
867.841	21085
867.972	21241
868.103	21222
868.233	21199
868.364	21047
868.495	21264
868.625	21481
868.756	21519
868.886	21199
869.017	21401
869.147	21515
869.278	21587
869.408	21401
869.539	21485
869.669	21477
869.799	21443
869.929	21534
870.06	21386
870.19	21705
870.32	21660
870.45	21793
870.58	21709
870.71	21964
870.84	22055
870.97	21759
871.1	21831
871.23	21907
871.36	22002
871.489	21941
871.619	21907
871.749	22013
871.879	21895
872.008	22116
872.138	22029
872.267	21930
872.397	21895
872.526	21781
872.656	21861
872.785	21808
872.915	22074
873.044	22036
873.173	22013
873.303	22074
873.432	22112
873.561	22078
873.69	22082
873.819	22021
873.948	22074
874.077	22082
874.206	22029
874.335	22074
874.464	22207
874.593	22192
874.722	22173
874.851	22360
874.979	22333
875.108	22379
875.237	22143
875.365	22112
875.494	22230
875.623	22226
875.751	22185
875.88	22253
876.008	22356
876.136	22424
876.265	22759
876.393	22767
876.521	22721
876.65	22736
876.778	22656
876.906	22618
877.034	22565
877.162	22538
877.29	22554
877.418	22531
877.546	22611
877.674	22615
877.802	22721
877.93	22573
878.058	22531
878.185	22344
878.313	22489
878.441	22512
878.568	22569
878.696	22485
878.824	22554
878.951	22717
879.079	22733
879.206	22847
879.333	22843
879.461	22588
879.588	22733
879.715	22660
879.842	22923
879.97	22755
880.097	22428
880.224	22402
880.351	22561
880.478	22424
880.605	22379
880.732	22318
880.859	22622
880.986	22375
881.112	22417
881.239	22204
881.366	22192
881.493	22067
881.619	22078
881.746	21979
881.872	22109
881.999	21918
882.125	21926
882.252	22051
882.378	21930
882.505	22112
882.631	21934
882.757	21720
882.883	21705
883.01	21728
883.136	21603
883.262	21424
883.388	21519
883.514	21675
883.64	21713
883.766	21542
883.892	21370
884.018	21481
884.143	21606
884.269	21747
884.395	21363
884.52	21325
884.646	21374
884.772	21310
884.897	21195
885.023	21313
885.148	21447
885.274	21378
885.399	21431
885.524	21264
885.65	21355
885.775	21317
885.9	21302
886.025	21469
886.15	21306
886.275	21264
886.4	21332
886.525	21165
886.65	21165
886.775	21233
886.9	21336
887.025	21416
887.149	21294
887.274	21161
887.399	21047
887.523	20944
887.648	21001
887.773	20899
887.897	21085
888.021	21066
888.146	21032
888.27	21135
888.395	21184
888.519	21119
888.643	21233
888.767	21157
888.891	20956
889.015	20830
889.139	20941
889.263	20971
889.387	21055
889.511	21154
889.635	20948
889.759	20868
889.883	20845
890.006	20910
890.13	20914
890.254	20708
890.377	20834
890.501	20708
890.624	20568
890.748	20609
890.871	20533
890.995	20377
891.118	20347
891.241	20465
891.364	20454
891.488	20469
891.611	20412
891.734	20461
891.857	20514
891.98	20598
892.103	20511
892.226	20419
892.349	20358
892.471	20130
892.594	20461
892.717	20370
892.839	20282
892.962	20389
893.085	20305
893.207	20408
893.33	20305
893.452	20332
893.575	20393
893.697	20244
893.819	20503
893.941	20461
894.064	20454
894.186	20237
894.308	20263
894.43	20396
894.552	20339
894.674	20393
894.796	20180
894.918	20225
895.04	20320
895.161	20480
895.283	20366
895.405	20275
895.526	20396
895.648	20301
895.769	20259
895.891	20240
896.012	20492
896.134	20396
896.255	20290
896.376	20225
896.498	20324
896.619	20309
896.74	20309
896.861	20358
896.982	20651
897.103	20777
897.224	20571
897.345	20602
897.466	20469
897.587	20492
897.708	20640
897.828	20541
897.949	20457
898.07	20339
898.19	20317
898.311	20594
898.431	20461
898.552	20568
898.672	20560
898.792	20575
898.913	20537
899.033	20503
899.153	20324
899.273	20271
899.393	20240
899.513	20385
899.633	20237
899.753	20233
899.873	20358
899.993	20301
900.113	20138
900.232	20256
900.352	20149
900.472	20244
900.591	19959
900.711	20077
900.83	19940
900.95	20107
901.069	20263
901.189	20008
901.308	19719
901.427	19620
901.546	19685
901.665	19753
901.784	19712
901.904	19521
902.023	19381
902.141	19202
902.26	19179
902.379	19274
902.498	19164
902.617	19225
902.735	19061
902.854	19107
902.973	18966
903.091	18920
903.21	18840
903.328	18753
903.446	18753
903.565	18673
903.683	18734
903.801	18578
903.919	18479
904.038	18544
904.156	18429
904.274	18441
904.392	18486
904.51	18369
904.627	18369
904.745	18441
904.863	18361
904.981	18243
905.098	18121
905.216	18136
905.334	18034
905.451	18079
905.569	18030
905.686	18144
905.803	18159
905.921	18060
906.038	17908
906.155	17923
906.272	17901
906.389	17813
906.506	17661
906.623	17657
906.74	17661
906.857	17509
906.974	17710
907.091	17737
907.208	17775
907.324	17691
907.441	17490
907.557	17376
907.674	17299
907.79	17231
907.907	17269
908.023	17364
908.139	17330
908.256	17330
908.372	17288
908.488	17189
908.604	17128
908.72	17064
908.836	17025
908.952	17052
909.068	17060
909.184	17235
909.3	16995
909.415	17018
909.531	17162
909.647	16774
909.762	16733
909.878	16748
909.993	16748
910.108	16793
910.224	16733
910.339	16672
910.454	16542
910.57	16710
910.685	16462
910.8	16755
910.915	16634
911.03	16580
911.145	16352
911.259	16382
911.374	16398
911.489	16367
911.604	16215
911.718	16093
911.833	16074
911.947	16006
912.062	16048
912.176	16063
912.291	16082
912.405	16109
912.519	16242
912.633	16192
912.748	16101
912.862	16158
912.976	15937
913.09	15827
913.204	15793
913.318	15964
913.431	15994
913.545	15895
913.659	15926
913.772	15823
913.886	15713
914	15633
914.113	15728
914.226	15797
914.34	15808
914.453	15614
914.566	15679
914.68	15534
914.793	15511
914.906	15412
915.019	15256
915.132	15195
915.245	15325
915.358	15272
915.47	15466
915.583	15310
915.696	15332
915.809	15519
915.921	15485
916.034	15199
916.146	15283
916.259	15203
916.371	15363
916.483	15256
916.595	15135
916.708	15176
916.82	15157
916.932	15051
917.044	14979
917.156	15127
917.268	14956
917.38	14967
917.491	14979
917.603	14921
917.715	14941
917.826	15024
917.938	14891
918.049	14887
918.161	14891
918.272	15032
918.384	14975
918.495	14842
918.606	14800
918.717	14746
918.828	14731
918.939	14731
919.05	14655
919.161	14765
919.272	14530
919.383	14640
919.494	14754
919.604	14921
919.715	14788
919.826	14648
919.936	14602
920.047	14674
920.157	14629
920.267	14868
920.378	14629
920.488	14533
920.598	14853
920.708	14849
920.818	14800
920.928	14739
921.038	14937
921.148	14849
921.258	14667
921.368	14465
921.477	14412
921.587	14343
921.697	14240
921.806	14377
921.916	14275
922.025	13986
922.134	14081
922.244	14005
922.353	14016
922.462	13909
922.571	13830
922.68	13693
922.789	13708
922.898	13651
923.007	13674
923.116	13746
923.224	13666
923.333	13639
923.442	13636
923.55	13460
923.659	13403
923.767	13616
923.876	13384
923.984	13495
924.092	13468
924.201	13457
924.309	13419
924.417	13434
924.525	13381
924.633	13327
924.741	14252
924.849	13221
924.956	13297
925.064	13168
925.172	13069
925.279	13091
925.387	13152
925.494	13099
925.602	13187
925.709	13110
925.816	13061
925.924	12989
926.031	13171
926.138	12996
926.245	13080
926.352	12924
926.459	13110
926.566	13046
926.673	13008
926.779	12962
926.886	12791
926.993	12650
927.099	12688
927.206	12658
927.312	12612
927.419	12673
927.525	12684
927.631	12654
927.737	12582
927.843	12456
927.95	12456
928.056	12483
928.162	12471
928.267	12570
928.373	13122
928.479	12490
928.585	12372
928.69	12372
928.796	12509
928.901	12422
929.007	12228
929.112	12369
929.218	12357
929.323	12155
929.428	12243
929.533	12311
929.638	12171
929.743	12163
929.848	12209
929.953	12136
930.058	12060
930.163	11904
930.267	11897
930.372	12003
930.477	11878
930.581	12102
930.685	11939
930.79	11733
930.894	11843
930.998	11798
931.103	11817
931.207	11463
931.311	11440
931.415	11345
931.519	11185
931.623	11105
