Data from test_V78500241_2988.txt Node
Date: Fri Mar 25 15:30:39 CST 2022
User: usil
Spectrometer: V785-0024
Trigger mode: 0
Integration Time (sec): 4.000000E-1
Scans to average: 1
Nonlinearity correction enabled: false
Boxcar width: 0
Storing dark spectrum: false
XAxis mode: Wavelengths
Number of Pixels in Spectrum: 1024
>>>>>Begin Spectral Data<<<<<
801.071	27195
801.214	27165
801.356	26967
801.499	26823
801.641	26785
801.783	26670
801.926	26804
802.068	26731
802.211	26754
802.353	26651
802.496	26499
802.638	26526
802.78	26294
802.923	26423
803.065	26214
803.208	26237
803.35	26495
803.492	26511
803.635	26606
803.777	26377
803.919	26636
804.061	26876
804.204	26682
804.346	26476
804.488	26370
804.63	26659
804.773	26412
804.915	26549
805.057	26644
805.199	26495
805.341	26606
805.483	26636
805.626	26796
805.768	26667
805.91	26590
806.052	26682
806.194	26613
806.336	26925
806.478	26754
806.62	26735
806.762	26743
806.904	26899
807.046	27222
807.188	27108
807.33	27116
807.472	27165
807.614	27081
807.756	26963
807.898	26864
808.04	26804
808.182	26842
808.324	26895
808.465	26895
808.607	27051
808.749	27287
808.891	27367
809.033	27431
809.174	27332
809.316	27287
809.458	27214
809.6	27188
809.741	27393
809.883	27332
810.025	27580
810.166	27450
810.308	27526
810.45	27405
810.591	27329
810.733	27275
810.875	27199
811.016	26975
811.158	27138
811.299	27412
811.441	27507
811.582	27408
811.724	27382
811.865	27313
812.007	27279
812.148	27287
812.29	27222
812.431	27427
812.573	27576
812.714	27587
812.855	27800
812.997	27911
813.138	27964
813.279	27827
813.421	27682
813.562	27663
813.703	27542
813.845	27389
813.986	27142
814.127	26960
814.268	26918
814.41	27005
814.551	26785
814.692	27032
814.833	26891
814.974	26815
815.115	26868
815.256	26750
815.397	26910
815.539	26758
815.68	26629
815.821	26644
815.962	26762
816.103	26625
816.244	26507
816.385	26385
816.526	26446
816.666	26450
816.807	26081
816.948	26244
817.089	26180
817.23	26210
817.371	26305
817.512	26157
817.653	26180
817.793	26035
817.934	26168
818.075	26164
818.216	26267
818.356	26107
818.497	26005
818.638	25879
818.778	26062
818.919	25951
819.06	26035
819.2	26065
819.341	26202
819.481	26206
819.622	26320
819.762	26480
819.903	26377
820.043	26286
820.184	26256
820.324	26176
820.465	26362
820.605	26324
820.746	26278
820.886	26206
821.026	26126
821.167	26050
821.307	26423
821.447	26115
821.588	25997
821.728	25959
821.868	25795
822.008	25609
822.149	25624
822.289	25582
822.429	25384
822.569	25373
822.709	25202
822.849	25110
822.99	25114
823.13	25088
823.27	25175
823.41	24833
823.55	24894
823.69	25038
823.83	24954
823.97	24897
824.11	24806
824.25	24791
824.389	24768
824.529	24798
824.669	24840
824.809	24878
824.949	24757
825.089	24768
825.228	24749
825.368	24623
825.508	24570
825.648	24635
825.787	24768
825.927	24635
826.067	24646
826.206	24532
826.346	24677
826.485	24555
826.625	24669
826.765	24696
826.904	24601
827.044	24456
827.183	24376
827.323	24300
827.462	24384
827.601	24194
827.741	24414
827.88	24334
828.02	24296
828.159	24285
828.298	24254
828.437	24323
828.577	24182
828.716	24418
828.855	24091
828.994	24098
829.134	24060
829.273	23992
829.412	23950
829.551	23984
829.69	24076
829.829	24022
829.968	24102
830.107	24091
830.246	24011
830.385	23939
830.524	23904
830.663	23889
830.802	23786
830.941	23767
831.08	23680
831.219	23737
831.357	23722
831.496	23798
831.635	23615
831.774	23615
831.913	23444
832.051	23429
832.19	23311
832.329	23318
832.467	23261
832.606	23250
832.744	23326
832.883	23265
833.022	23242
833.16	23383
833.299	23337
833.437	23307
833.576	23299
833.714	23280
833.852	23379
833.991	23402
834.129	23512
834.267	23368
834.406	23455
834.544	23433
834.682	23334
834.821	23280
834.959	23482
835.097	23395
835.235	23334
835.373	23356
835.511	23254
835.65	23140
835.788	23239
835.926	23067
836.064	22987
836.202	22961
836.34	23273
836.478	23212
836.615	23189
836.753	23185
836.891	23189
837.029	23197
837.167	23124
837.305	23029
837.443	23067
837.58	22946
837.718	23345
837.856	23083
837.993	22923
838.131	22927
838.269	22828
838.406	22900
838.544	22961
838.681	22599
838.819	22596
838.956	22645
839.094	22565
839.231	22641
839.369	22706
839.506	23006
839.643	22820
839.781	22497
839.918	22443
840.055	22500
840.193	22459
840.33	22421
840.467	22360
840.604	22459
840.742	22824
840.879	22295
841.016	22363
841.153	22276
841.29	22535
841.427	22417
841.564	22455
841.701	22432
841.838	22413
841.975	22310
842.112	22428
842.249	22371
842.385	22242
842.522	22432
842.659	22276
842.796	22150
842.933	22280
843.069	22268
843.206	22006
843.343	22219
843.479	22325
843.616	22257
843.752	22086
843.889	22013
844.025	21975
844.162	21930
844.298	22090
844.435	21994
844.571	21975
844.708	22013
844.844	22207
844.98	22055
845.117	22093
845.253	21934
845.389	21736
845.525	21850
845.661	21880
845.798	21766
845.934	21819
846.07	21675
846.206	21785
846.342	21880
846.478	21660
846.614	21580
846.75	21420
846.886	21405
847.022	21511
847.158	21458
847.294	21408
847.429	21496
847.565	21462
847.701	21610
847.837	21268
847.972	21154
848.108	21241
848.244	21291
848.379	20982
848.515	21024
848.65	20948
848.786	21020
848.921	21112
849.057	21093
849.192	21009
849.328	21123
849.463	20998
849.598	20967
849.734	20948
849.869	20975
850.004	20910
850.14	20925
850.275	20845
850.41	20769
850.545	20720
850.68	20800
850.815	20826
850.95	20853
851.085	20899
851.22	20918
851.355	20823
851.49	20872
851.625	20823
851.76	20777
851.895	20819
852.03	20807
852.165	20838
852.299	20811
852.434	20956
852.569	20868
852.703	20830
852.838	20796
852.973	20910
853.107	20868
853.242	20781
853.376	20693
853.511	20594
853.645	20705
853.78	20785
853.914	20594
854.048	20590
854.183	20686
854.317	20701
854.451	20773
854.585	20644
854.72	20663
854.854	20720
854.988	20590
855.122	20674
855.256	20621
855.39	20590
855.524	20686
855.658	20769
855.792	20667
855.926	20754
856.06	20659
856.194	20705
856.327	20705
856.461	20533
856.595	20568
856.729	20689
856.862	20682
856.996	20689
857.13	20598
857.263	20830
857.397	20807
857.53	20678
857.664	20568
857.797	20697
857.931	20689
858.064	20708
858.197	20746
858.331	20613
858.464	20514
858.597	20514
858.731	20621
858.864	20617
858.997	20579
859.13	20552
859.263	20678
859.396	20724
859.529	20450
859.662	20526
859.795	20594
859.928	20648
860.061	20758
860.194	20701
860.327	20682
860.46	20636
860.592	20819
860.725	20724
860.858	20769
860.99	20594
861.123	20670
861.256	20609
861.388	20640
861.521	21108
861.653	20507
861.786	20381
861.918	20480
862.05	20583
862.183	20549
862.315	20629
862.447	20621
862.58	20644
862.712	20237
862.844	20393
862.976	20317
863.108	20442
863.24	20819
863.372	20263
863.504	20328
863.636	20389
863.768	20275
863.9	20400
864.032	20176
864.164	20248
864.296	20324
864.428	20503
864.559	20366
864.691	20533
864.823	20362
864.954	20313
865.086	20328
865.217	20191
865.349	20145
865.48	20229
865.612	20317
865.743	20476
865.875	20199
866.006	20081
866.137	20263
866.269	20347
866.4	20180
866.531	20225
866.662	20240
866.793	20138
866.924	20263
867.055	20168
867.186	20290
867.317	20180
867.448	20119
867.579	20103
867.71	20157
867.841	20195
867.972	20282
868.103	20187
868.233	20218
868.364	20176
868.495	20313
868.625	20438
868.756	20568
868.886	20484
869.017	20408
869.147	20674
869.278	20526
869.408	20549
869.539	20537
869.669	20609
869.799	20507
869.929	20606
870.06	20602
870.19	20758
870.32	20811
870.45	20731
870.58	20975
870.71	20967
870.84	20982
870.97	20929
871.1	20819
871.23	20979
871.36	21142
871.489	20960
871.619	20986
871.749	21058
871.879	21142
872.008	21180
872.138	20998
872.267	21058
872.397	20956
872.526	20902
872.656	21020
872.785	20891
872.915	21001
873.044	21150
873.173	21058
873.303	21222
873.432	21138
873.561	21157
873.69	21074
873.819	21017
873.948	21237
874.077	21116
874.206	21005
874.335	21116
874.464	21241
874.593	21469
874.722	21256
874.851	21462
874.979	21363
875.108	21462
875.237	21317
875.365	21256
875.494	21332
875.623	21340
875.751	21306
875.88	21389
876.008	21538
876.136	21542
876.265	21660
876.393	21842
876.521	21766
876.65	21827
876.778	21804
876.906	21743
877.034	21705
877.162	21759
877.29	21526
877.418	21759
877.546	21720
877.674	21724
877.802	21644
877.93	21720
878.058	21698
878.185	21538
878.313	21679
878.441	21580
878.568	21523
878.696	21633
878.824	21679
878.951	21842
879.079	21915
879.206	21842
879.333	21751
879.461	21682
879.588	21831
879.715	21888
879.842	21903
879.97	21831
880.097	21644
880.224	21511
880.351	21576
880.478	21564
880.605	21511
880.732	21530
880.859	21774
880.986	21561
881.112	21595
881.239	21336
881.366	21176
881.493	21230
881.619	21165
881.746	21237
881.872	21131
881.999	21104
882.125	20967
882.252	21127
882.378	21001
882.505	21211
882.631	20979
882.757	20773
882.883	20861
883.01	20899
883.136	20739
883.262	20667
883.388	20613
883.514	20762
883.64	20902
883.766	20716
883.892	20503
884.018	20609
884.143	20716
884.269	20910
884.395	20533
884.52	20469
884.646	20602
884.772	20408
884.897	20419
885.023	20522
885.148	20492
885.274	20530
885.399	20579
885.524	20446
885.65	20438
885.775	20560
885.9	20457
886.025	20533
886.15	20370
886.275	20339
886.4	20320
886.525	20404
886.65	20301
886.775	20362
886.9	20613
887.025	20750
887.149	20412
887.274	20252
887.399	20278
887.523	20237
887.648	20122
887.773	20157
887.897	20256
888.021	20271
888.146	20176
888.27	20301
888.395	20317
888.519	20244
888.643	20199
888.767	20142
888.891	20100
889.015	19997
889.139	20050
889.263	20016
889.387	20164
889.511	20225
889.635	20199
889.759	20084
889.883	20077
890.006	20077
890.13	20168
890.254	20043
890.377	19974
890.501	19852
890.624	19727
890.748	19871
890.871	19670
890.995	19559
891.118	19502
891.241	19647
891.364	19533
891.488	19696
891.611	19632
891.734	19540
891.857	19582
891.98	19616
892.103	19693
892.226	19628
892.349	19548
892.471	19400
892.594	19491
892.717	19533
892.839	19567
892.962	19430
893.085	19559
893.207	19487
893.33	19396
893.452	19487
893.575	19575
893.697	19403
893.819	19734
893.941	19807
894.064	19689
894.186	19358
894.308	19453
894.43	19635
894.552	19628
894.674	19639
894.796	19487
894.918	19502
895.04	19548
895.161	19571
895.283	19575
895.405	19468
895.526	19647
895.648	19487
895.769	19559
895.891	19533
896.012	19582
896.134	19480
896.255	19586
896.376	19441
896.498	19495
896.619	19533
896.74	19563
896.861	19556
896.982	19731
897.103	20092
897.224	19845
897.345	19765
897.466	19715
897.587	19719
897.708	19909
897.828	19753
897.949	19784
898.07	19689
898.19	19712
898.311	19898
898.431	19670
898.552	19890
898.672	19791
898.792	19769
898.913	19849
899.033	19632
899.153	19597
899.273	19491
899.393	19567
899.513	19609
899.633	19563
899.753	19594
899.873	19419
899.993	19590
900.113	19430
900.232	19518
900.352	19346
900.472	19346
900.591	19282
900.711	19346
900.83	19285
900.95	19419
901.069	19445
901.189	19259
901.308	18924
901.427	18878
901.546	18962
901.665	18977
901.784	18916
901.904	18745
902.023	18661
902.141	18483
902.26	18460
902.379	18464
902.498	18445
902.617	18338
902.735	18464
902.854	18456
902.973	18452
903.091	18106
903.21	18136
903.328	18159
903.446	18060
903.565	17935
903.683	17923
903.801	17843
903.919	17958
904.038	17893
904.156	17741
904.274	17828
904.392	17672
904.51	17547
904.627	17615
904.745	17589
904.863	17802
904.981	17551
905.098	17414
905.216	17398
905.334	17433
905.451	17364
905.569	17345
905.686	17402
905.803	17311
905.921	17223
906.038	17261
906.155	17208
906.272	17052
906.389	17143
906.506	16934
906.623	16835
906.74	16869
906.857	16725
906.974	16862
907.091	16908
907.208	16968
907.324	16911
907.441	16774
907.557	16664
907.674	16630
907.79	16523
907.907	16672
908.023	16615
908.139	16634
908.256	16485
908.372	16542
908.488	16535
908.604	16440
908.72	16268
908.836	16367
908.952	16394
909.068	16272
909.184	16462
909.3	16303
909.415	16478
909.531	16386
909.647	16013
909.762	16013
909.878	16074
909.993	16029
910.108	15994
910.224	15937
910.339	16078
910.454	15972
910.57	15876
910.685	15854
910.8	16101
910.915	15934
911.03	15884
911.145	15781
911.259	15690
911.374	15667
911.489	15568
911.604	15584
911.718	15496
911.833	15431
911.947	15412
912.062	15382
912.176	15454
912.291	15454
912.405	15348
912.519	15622
912.633	15595
912.748	15424
912.862	15397
912.976	15260
913.09	15161
913.204	15154
913.318	15192
913.431	15294
913.545	15325
913.659	15272
913.772	15199
913.886	15043
914	15055
914.113	15047
914.226	15108
914.34	15020
914.453	14902
914.566	15066
914.68	14933
914.793	14941
914.906	14735
915.019	14590
915.132	14621
915.245	14689
915.358	14640
915.47	14571
915.583	14579
915.696	14674
915.809	14716
915.921	14731
916.034	14621
916.146	14564
916.259	14571
916.371	14670
916.483	14575
916.595	14522
916.708	14598
916.82	14438
916.932	14457
917.044	14408
917.156	14461
917.268	14396
917.38	14309
917.491	14275
917.603	14313
917.715	14339
917.826	14362
917.938	14252
918.049	14305
918.161	14240
918.272	14431
918.384	14419
918.495	14195
918.606	14092
918.717	14088
918.828	14161
918.939	14107
919.05	14024
919.161	14008
919.272	13864
919.383	13974
919.494	14005
919.604	14317
919.715	14119
919.826	14027
919.936	14024
920.047	14138
920.157	14138
920.267	14221
920.378	13986
920.488	13963
920.598	14176
920.708	14221
920.818	14191
920.928	14111
921.038	14377
921.148	14286
921.258	14016
921.368	13875
921.477	13807
921.587	13837
921.697	13704
921.806	13826
921.916	13746
922.025	13590
922.134	13453
922.244	13426
922.353	13548
922.462	13384
922.571	13320
922.68	13149
922.789	13141
922.898	13156
923.007	13046
923.116	13164
923.224	13050
923.333	13091
923.442	12928
923.55	12985
923.659	12989
923.767	12996
923.876	12916
923.984	13000
924.092	12863
924.201	12840
924.309	12875
924.417	12856
924.525	12833
924.633	12806
924.741	13575
924.849	12601
924.956	12741
925.064	12585
925.172	12513
925.279	12593
925.387	12612
925.494	12471
925.602	12734
925.709	12551
925.816	12574
925.924	12494
926.031	12616
926.138	12479
926.245	12547
926.352	12414
926.459	12582
926.566	12559
926.673	12410
926.779	12270
926.886	12369
926.993	12167
927.099	12026
927.206	12091
927.312	12079
927.419	12167
927.525	12140
927.631	12140
927.737	12019
927.843	12026
927.95	11863
928.056	11965
928.162	11961
928.267	11992
928.373	12616
928.479	12076
928.585	11828
928.69	11946
928.796	11920
928.901	11855
929.007	11729
929.112	11824
929.218	11764
929.323	11767
929.428	11653
929.533	11901
929.638	11608
929.743	11619
929.848	11684
929.953	11630
930.058	11604
930.163	11356
930.267	11406
930.372	11474
930.477	11341
930.581	11558
930.685	11444
930.79	11296
930.894	11296
930.998	11231
931.103	11406
931.207	11022
931.311	10942
931.415	10896
931.519	10675
931.623	10653
