Data from test_V78500241_2005.txt Node
Date: Fri Mar 25 15:23:49 CST 2022
User: usil
Spectrometer: V785-0024
Trigger mode: 0
Integration Time (sec): 4.000000E-1
Scans to average: 1
Nonlinearity correction enabled: false
Boxcar width: 0
Storing dark spectrum: false
XAxis mode: Wavelengths
Number of Pixels in Spectrum: 1024
>>>>>Begin Spectral Data<<<<<
801.071	27694
801.214	27625
801.356	27435
801.499	27351
801.641	27260
801.783	27321
801.926	27184
802.068	27127
802.211	27135
802.353	27020
802.496	26883
802.638	26872
802.78	26826
802.923	26686
803.065	26655
803.208	26826
803.35	26929
803.492	27013
803.635	27116
803.777	26842
803.919	27104
804.061	27378
804.204	27135
804.346	27017
804.488	27043
804.63	26971
804.773	26956
804.915	27233
805.057	27138
805.199	27001
805.341	27058
805.483	27207
805.626	27154
805.768	26982
805.91	27180
806.052	27245
806.194	27047
806.336	27386
806.478	27154
806.62	27199
806.762	27211
806.904	27504
807.046	27675
807.188	27576
807.33	27637
807.472	27625
807.614	27477
807.756	27507
807.898	27496
808.04	27336
808.182	27340
808.324	27469
808.465	27485
808.607	27648
808.749	27747
808.891	27895
809.033	28017
809.174	27846
809.316	27785
809.458	27682
809.6	27766
809.741	27793
809.883	27979
810.025	28036
810.166	28044
810.308	28078
810.45	27960
810.591	27987
810.733	27846
810.875	27785
811.016	27759
811.158	27743
811.299	27895
811.441	27991
811.582	27987
811.724	27850
811.865	27743
812.007	27850
812.148	27808
812.29	27857
812.431	27934
812.573	28143
812.714	28280
812.855	28322
812.997	28413
813.138	28527
813.279	28447
813.421	28188
813.562	28356
813.703	28150
813.845	27895
813.986	27656
814.127	27458
814.268	27450
814.41	27591
814.551	27466
814.692	27481
814.833	27473
814.974	27405
815.115	27477
815.256	27439
815.397	27427
815.539	27427
815.68	27203
815.821	27279
815.962	27256
816.103	27252
816.244	27161
816.385	27047
816.526	26899
816.666	26998
816.807	26743
816.948	26678
817.089	26819
817.23	26880
817.371	26765
817.512	26758
817.653	26773
817.793	26663
817.934	26899
818.075	26659
818.216	26773
818.356	26708
818.497	26758
818.638	26575
818.778	26522
818.919	26640
819.06	26530
819.2	26708
819.341	26765
819.481	26727
819.622	26899
819.762	26986
819.903	26876
820.043	26940
820.184	26952
820.324	26777
820.465	26838
820.605	26864
820.746	26712
820.886	26636
821.026	26769
821.167	26819
821.307	26838
821.447	26712
821.588	26609
821.728	26659
821.868	26465
822.008	26214
822.149	26195
822.289	26172
822.429	25947
822.569	25879
822.709	25932
822.849	25738
822.99	25727
823.13	25704
823.27	25655
823.41	25468
823.55	25381
823.69	25571
823.83	25521
823.97	25521
824.11	25403
824.25	25179
824.389	25476
824.529	25354
824.669	25365
824.809	25571
824.949	25487
825.089	25457
825.228	25377
825.368	25369
825.508	25301
825.648	25190
825.787	25320
825.927	25251
826.067	25297
826.206	25190
826.346	25346
826.485	25365
826.625	25164
826.765	25373
826.904	25362
827.044	24943
827.183	24954
827.323	24939
827.462	25133
827.601	25072
827.741	25034
827.88	25057
828.02	24848
828.159	24905
828.298	24806
828.437	25065
828.577	24928
828.716	25019
828.855	24646
828.994	24711
829.134	24715
829.273	24707
829.412	24703
829.551	24585
829.69	24654
829.829	24570
829.968	24772
830.107	24604
830.246	24582
830.385	24684
830.524	24677
830.663	24384
830.802	24334
830.941	24281
831.08	24346
831.219	24319
831.357	24330
831.496	24448
831.635	24426
831.774	24243
831.913	24209
832.051	24076
832.19	24072
832.329	24057
832.467	24003
832.606	23859
832.744	23813
832.883	24034
833.022	24011
833.16	23916
833.299	23809
833.437	23866
833.576	24072
833.714	23935
833.852	24034
833.991	23984
834.129	24194
834.267	24068
834.406	23954
834.544	23927
834.682	24148
834.821	24045
834.959	24129
835.097	24038
835.235	24106
835.373	23920
835.511	24026
835.65	23878
835.788	23939
835.926	23710
836.064	23551
836.202	23630
836.34	23805
836.478	23779
836.615	23897
836.753	23752
836.891	23954
837.029	23912
837.167	23798
837.305	23840
837.443	23767
837.58	23634
837.718	23729
837.856	23710
837.993	23604
838.131	23710
838.269	23627
838.406	23528
838.544	23661
838.681	23497
838.819	23326
838.956	23246
839.094	23132
839.231	23311
839.369	23288
839.506	23547
839.643	23459
839.781	23239
839.918	23174
840.055	23140
840.193	23166
840.33	23022
840.467	23181
840.604	23090
840.742	23410
840.879	23029
841.016	22927
841.153	22885
841.29	23181
841.427	23105
841.564	23090
841.701	23105
841.838	22976
841.975	23056
842.112	22984
842.249	22961
842.385	22793
842.522	23006
842.659	22892
842.796	22797
842.933	22824
843.069	22740
843.206	22869
843.343	22900
843.479	22873
843.616	22831
843.752	22748
843.889	22630
844.025	22797
844.162	22679
844.298	22786
844.435	22580
844.571	22573
844.708	22713
844.844	22755
844.98	22725
845.117	22713
845.253	22493
845.389	22497
845.525	22573
845.661	22459
845.798	22329
845.934	22424
846.07	22299
846.206	22367
846.342	22466
846.478	22230
846.614	22204
846.75	21922
846.886	22097
847.022	22223
847.158	21987
847.294	22124
847.429	22093
847.565	22150
847.701	22386
847.837	21888
847.972	21880
848.108	21876
848.244	21846
848.379	21743
848.515	21583
848.65	21614
848.786	21690
848.921	21656
849.057	21823
849.192	21755
849.328	21644
849.463	21614
849.598	21614
849.734	21561
849.869	21526
850.004	21458
850.14	21424
850.275	21542
850.41	21466
850.545	21447
850.68	21477
850.815	21466
850.95	21348
851.085	21526
851.22	21504
851.355	21439
851.49	21386
851.625	21420
851.76	21408
851.895	21325
852.03	21332
852.165	21363
852.299	21420
852.434	21538
852.569	21538
852.703	21424
852.838	21477
852.973	21557
853.107	21603
853.242	21245
853.376	21287
853.511	21108
853.645	21127
853.78	21363
853.914	21279
854.048	21370
854.183	21275
854.317	21306
854.451	21477
854.585	21298
854.72	21336
854.854	21389
854.988	21317
855.122	21203
855.256	21180
855.39	21275
855.524	21401
855.658	21344
855.792	21154
855.926	21351
856.06	21325
856.194	21340
856.327	21233
856.461	21123
856.595	21321
856.729	21264
856.862	21431
856.996	21336
857.13	21294
857.263	21526
857.397	21359
857.53	21355
857.664	21329
857.797	21264
857.931	21306
858.064	21344
858.197	21420
858.331	21260
858.464	21100
858.597	21176
858.731	21294
858.864	21275
858.997	21123
859.13	21306
859.263	21306
859.396	21416
859.529	21241
859.662	21211
859.795	21237
859.928	21439
860.061	21481
860.194	21561
860.327	21386
860.46	21264
860.592	21416
860.725	21450
860.858	21386
860.99	21218
861.123	21260
861.256	21195
861.388	21382
861.521	22010
861.653	21199
861.786	21074
861.918	21108
862.05	21165
862.183	21119
862.315	21233
862.447	21218
862.58	21066
862.712	20990
862.844	20914
862.976	21096
863.108	21066
863.24	21420
863.372	20918
863.504	21020
863.636	21024
863.768	21032
863.9	21081
864.032	20902
864.164	21009
864.296	20880
864.428	21062
864.559	21085
864.691	21039
864.823	21058
864.954	20948
865.086	20975
865.217	20937
865.349	20864
865.48	20872
865.612	20830
865.743	20933
865.875	20918
866.006	21009
866.137	20765
866.269	20876
866.4	20933
866.531	20880
866.662	20781
866.793	20663
866.924	20895
867.055	20914
867.186	20849
867.317	20834
867.448	20758
867.579	20826
867.71	20773
867.841	20758
867.972	20796
868.103	20693
868.233	20845
868.364	20826
868.495	20948
868.625	21032
868.756	21169
868.886	20895
869.017	21047
869.147	21199
869.278	21112
869.408	21055
869.539	21108
869.669	21043
869.799	21070
869.929	21211
870.06	21138
870.19	21393
870.32	21389
870.45	21336
870.58	21492
870.71	21652
870.84	21538
870.97	21450
871.1	21344
871.23	21606
871.36	21595
871.489	21561
871.619	21625
871.749	21705
871.879	21739
872.008	21831
872.138	21717
872.267	21739
872.397	21595
872.526	21568
872.656	21435
872.785	21450
872.915	21648
873.044	21682
873.173	21660
873.303	21698
873.432	21713
873.561	21808
873.69	21663
873.819	21732
873.948	21675
874.077	21728
874.206	21644
874.335	21694
874.464	21736
874.593	21907
874.722	21781
874.851	22040
874.979	21846
875.108	22017
875.237	21884
875.365	21724
875.494	21770
875.623	22017
875.751	21778
875.88	21941
876.008	22017
876.136	22147
876.265	22318
876.393	22375
876.521	22341
876.65	22375
876.778	22272
876.906	22276
877.034	22234
877.162	22211
877.29	22272
877.418	22173
877.546	22310
877.674	22215
877.802	22215
877.93	22162
878.058	22257
878.185	22090
878.313	22238
878.441	22207
878.568	21987
878.696	22101
878.824	22181
878.951	22348
879.079	22421
879.206	22382
879.333	22417
879.461	22272
879.588	22276
879.715	22409
879.842	22519
879.97	22276
880.097	22177
880.224	22143
880.351	22173
880.478	22150
880.605	21968
880.732	21956
880.859	22329
880.986	22185
881.112	22010
881.239	21972
881.366	21846
881.493	21671
881.619	21644
881.746	21656
881.872	21606
881.999	21618
882.125	21694
882.252	21762
882.378	21542
882.505	21717
882.631	21473
882.757	21382
882.883	21428
883.01	21291
883.136	21241
883.262	21321
883.388	21237
883.514	21241
883.64	21306
883.766	21192
883.892	21108
884.018	21165
884.143	21344
884.269	21370
884.395	21051
884.52	21039
884.646	21058
884.772	20815
884.897	20815
885.023	21028
885.148	21043
885.274	21161
885.399	21116
885.524	20975
885.65	20914
885.775	21066
885.9	20956
886.025	21188
886.15	21138
886.275	20952
886.4	21005
886.525	21116
886.65	20849
886.775	20880
886.9	21077
887.025	21203
887.149	20960
887.274	20708
887.399	20705
887.523	20834
887.648	20724
887.773	20613
887.897	20750
888.021	20785
888.146	20765
888.27	20765
888.395	20777
888.519	20800
888.643	20857
888.767	20785
888.891	20651
889.015	20511
889.139	20667
889.263	20587
889.387	20727
889.511	20785
889.635	20716
889.759	20533
889.883	20507
890.006	20583
890.13	20609
890.254	20450
890.377	20412
890.501	20313
890.624	20305
890.748	20309
890.871	20282
890.995	20161
891.118	19997
891.241	20157
891.364	20069
891.488	20282
891.611	20153
891.734	20043
891.857	20111
891.98	20126
892.103	20183
892.226	20065
892.349	20039
892.471	19894
892.594	20134
892.717	20077
892.839	19970
892.962	20077
893.085	20073
893.207	19955
893.33	19868
893.452	19963
893.575	19982
893.697	20050
893.819	20088
893.941	20218
894.064	20172
894.186	19932
894.308	19898
894.43	20050
894.552	20161
894.674	20130
894.796	19879
894.918	19898
895.04	19849
895.161	20054
895.283	20016
895.405	19925
895.526	20084
895.648	20001
895.769	20050
895.891	20024
896.012	20046
896.134	20130
896.255	20039
896.376	19982
896.498	20016
896.619	20054
896.74	20008
896.861	20001
896.982	20180
897.103	20438
897.224	20393
897.345	20191
897.466	20206
897.587	20142
897.708	20427
897.828	20290
897.949	20214
898.07	20039
898.19	20237
898.311	20366
898.431	20069
898.552	20218
898.672	20290
898.792	20393
898.913	20214
899.033	20119
899.153	20065
899.273	19849
899.393	19864
899.513	20069
899.633	20130
899.753	20035
899.873	19947
899.993	20088
900.113	19879
900.232	20016
900.352	19849
900.472	19795
900.591	19677
900.711	19765
900.83	19689
900.95	19970
901.069	19856
901.189	19674
901.308	19419
901.427	19426
901.546	19308
901.665	19415
901.784	19392
901.904	19244
902.023	19225
902.141	18894
902.26	18909
902.379	18932
902.498	18833
902.617	18738
902.735	18928
902.854	18844
902.973	18802
903.091	18612
903.21	18593
903.328	18490
903.446	18547
903.565	18369
903.683	18323
903.801	18239
903.919	18452
904.038	18281
904.156	18114
904.274	18270
904.392	18087
904.51	18060
904.627	18083
904.745	18201
904.863	18163
904.981	17912
905.098	17707
905.216	17802
905.334	17786
905.451	17775
905.569	17748
905.686	17687
905.803	17805
905.921	17581
906.038	17646
906.155	17619
906.272	17459
906.389	17433
906.506	17395
906.623	17349
906.74	17307
906.857	17265
906.974	17360
907.091	17402
907.208	17509
907.324	17254
907.441	17147
907.557	17029
907.674	17079
907.79	16946
907.907	16953
908.023	17086
908.139	17079
908.256	16961
908.372	16812
908.488	16831
908.604	16797
908.72	16645
908.836	16793
908.952	16801
909.068	16774
909.184	16892
909.3	16816
909.415	16694
909.531	16752
909.647	16592
909.762	16611
909.878	16402
909.993	16489
910.108	16360
910.224	16478
910.339	16474
910.454	16390
910.57	16162
910.685	16181
910.8	16527
910.915	16443
911.03	16204
911.145	16044
911.259	16101
911.374	16063
911.489	15934
911.604	15998
911.718	15873
911.833	15743
911.947	15804
912.062	15667
912.176	15728
912.291	15861
912.405	15861
912.519	16032
912.633	15880
912.748	15816
912.862	15793
912.976	15663
913.09	15545
913.204	15572
913.318	15732
913.431	15713
913.545	15717
913.659	15682
913.772	15530
913.886	15412
914	15424
914.113	15492
914.226	15542
914.34	15534
914.453	15214
914.566	15500
914.68	15252
914.793	15283
914.906	15127
915.019	15097
915.132	14998
915.245	15062
915.358	14925
915.47	15070
915.583	15100
915.696	15104
915.809	15195
915.921	15218
916.034	14998
916.146	14967
916.259	15028
916.371	14967
916.483	15058
916.595	14891
916.708	14807
916.82	14845
916.932	14853
917.044	14811
917.156	14746
917.268	14781
917.38	14731
917.491	14689
917.603	14731
917.715	14739
917.826	14834
917.938	14670
918.049	14541
918.161	14712
918.272	14826
918.384	14769
918.495	14686
918.606	14518
918.717	14370
918.828	14438
918.939	14495
919.05	14328
919.161	14442
919.272	14286
919.383	14263
919.494	14480
919.604	14667
919.715	14396
919.826	14339
919.936	14339
920.047	14454
920.157	14423
920.267	14667
920.378	14518
920.488	14476
920.598	14571
920.708	14648
920.818	14522
920.928	14579
921.038	14575
921.148	14689
921.258	14339
921.368	14282
921.477	14248
921.587	14161
921.697	14111
921.806	14153
921.916	14024
922.025	13871
922.134	13864
922.244	13871
922.353	13852
922.462	13674
922.571	13651
922.68	13476
922.789	13476
922.898	13396
923.007	13449
923.116	13487
923.224	13472
923.333	13392
923.442	13407
923.55	13339
923.659	13350
923.767	13377
923.876	13247
923.984	13282
924.092	13183
924.201	13194
924.309	13152
924.417	13179
924.525	13141
924.633	13046
924.741	13871
924.849	12897
924.956	13114
925.064	12916
925.172	12852
925.279	12856
925.387	12890
925.494	12886
925.602	12916
925.709	12886
925.816	12791
925.924	12829
926.031	12821
926.138	12779
926.245	12806
926.352	12749
926.459	12894
926.566	12817
926.673	12711
926.779	12654
926.886	12570
926.993	12502
927.099	12441
927.206	12357
927.312	12350
927.419	12448
927.525	12410
927.631	12460
927.737	12258
927.843	12270
927.95	12159
928.056	12262
928.162	12220
928.267	12281
928.373	12970
928.479	12361
928.585	12140
928.69	12163
928.796	12289
928.901	12140
929.007	11992
929.112	12102
929.218	12117
929.323	12034
929.428	12087
929.533	12175
929.638	11939
929.743	11977
929.848	11950
929.953	11882
930.058	11863
930.163	11661
930.267	11634
930.372	11805
930.477	11649
930.581	11878
930.685	11737
930.79	11520
930.894	11539
930.998	11543
931.103	11619
931.207	11299
931.311	11269
931.415	11098
931.519	10934
931.623	10862
