Data from test_V78500241_2793.txt Node
Date: Fri Mar 25 15:29:18 CST 2022
User: usil
Spectrometer: V785-0024
Trigger mode: 0
Integration Time (sec): 4.000000E-1
Scans to average: 1
Nonlinearity correction enabled: false
Boxcar width: 0
Storing dark spectrum: false
XAxis mode: Wavelengths
Number of Pixels in Spectrum: 1024
>>>>>Begin Spectral Data<<<<<
801.071	27180
801.214	27081
801.356	26811
801.499	26686
801.641	26697
801.783	26750
801.926	26651
802.068	26678
802.211	26625
802.353	26701
802.496	26412
802.638	26400
802.78	26389
802.923	26206
803.065	26259
803.208	26336
803.35	26385
803.492	26617
803.635	26609
803.777	26408
803.919	26484
804.061	26883
804.204	26644
804.346	26309
804.488	26366
804.63	26419
804.773	26476
804.915	26492
805.057	26632
805.199	26488
805.341	26469
805.483	26629
805.626	26617
805.768	26587
805.91	26629
806.052	26552
806.194	26396
806.336	26876
806.478	26659
806.62	26686
806.762	26682
806.904	26952
807.046	27017
807.188	27032
807.33	26979
807.472	27013
807.614	27047
807.756	26975
807.898	26762
808.04	26693
808.182	26785
808.324	26838
808.465	26979
808.607	27081
808.749	27142
808.891	27439
809.033	27355
809.174	27203
809.316	27135
809.458	27272
809.6	27233
809.741	27264
809.883	27287
810.025	27408
810.166	27530
810.308	27431
810.45	27473
810.591	27348
810.733	27272
810.875	27173
811.016	27123
811.158	27043
811.299	27351
811.441	27424
811.582	27359
811.724	27279
811.865	27055
812.007	27077
812.148	27154
812.29	27188
812.431	27355
812.573	27458
812.714	27515
812.855	27724
812.997	27857
813.138	27880
813.279	27804
813.421	27591
813.562	27553
813.703	27549
813.845	27412
813.986	27173
814.127	26944
814.268	26796
814.41	26830
814.551	26804
814.692	26823
814.833	26864
814.974	26823
815.115	26842
815.256	26724
815.397	26667
815.539	26705
815.68	26575
815.821	26583
815.962	26670
816.103	26564
816.244	26461
816.385	26461
816.526	26328
816.666	26153
816.807	26100
816.948	26161
817.089	26252
817.23	26126
817.371	26145
817.512	26111
817.653	26142
817.793	25966
817.934	26005
818.075	26191
818.216	26111
818.356	25978
818.497	26005
818.638	25807
818.778	25883
818.919	25936
819.06	25909
819.2	26058
819.341	26001
819.481	25951
819.622	26210
819.762	26366
819.903	26336
820.043	26199
820.184	26286
820.324	26240
820.465	26343
820.605	26168
820.746	26233
820.886	25963
821.026	26138
821.167	26221
821.307	26199
821.447	26088
821.588	26073
821.728	25871
821.868	25700
822.008	25518
822.149	25449
822.289	25635
822.429	25327
822.569	25240
822.709	25160
822.849	25103
822.99	25114
823.13	24962
823.27	25023
823.41	24776
823.55	24791
823.69	24791
823.83	24878
823.97	24840
824.11	24601
824.25	24540
824.389	24684
824.529	24856
824.669	24711
824.809	24833
824.949	24776
825.089	24753
825.228	24711
825.368	24559
825.508	24673
825.648	24521
825.787	24566
825.927	24700
826.067	24544
826.206	24525
826.346	24509
826.485	24623
826.625	24528
826.765	24692
826.904	24623
827.044	24285
827.183	24357
827.323	24152
827.462	24205
827.601	24277
827.741	24262
827.88	24251
828.02	24171
828.159	24346
828.298	24296
828.437	24201
828.577	24079
828.716	24395
828.855	24140
828.994	24060
829.134	23977
829.273	23988
829.412	23824
829.551	23920
829.69	23798
829.829	23977
829.968	24102
830.107	24087
830.246	24026
830.385	23908
830.524	23866
830.663	23851
830.802	23649
830.941	23528
831.08	23596
831.219	23687
831.357	23566
831.496	23832
831.635	23661
831.774	23490
831.913	23448
832.051	23299
832.19	23303
832.329	23406
832.467	23292
832.606	23208
832.744	23227
832.883	23212
833.022	23052
833.16	23273
833.299	23280
833.437	23265
833.576	23284
833.714	23402
833.852	23273
833.991	23311
834.129	23391
834.267	23391
834.406	23273
834.544	23341
834.682	23288
834.821	23307
834.959	23509
835.097	23315
835.235	23334
835.373	23341
835.511	23193
835.65	23086
835.788	23212
835.926	23048
836.064	22953
836.202	22968
836.34	23121
836.478	23140
836.615	23113
836.753	23105
836.891	23246
837.029	23159
837.167	23140
837.305	23174
837.443	22968
837.58	22946
837.718	23056
837.856	23018
837.993	22900
838.131	23018
838.269	22835
838.406	22858
838.544	22839
838.681	22546
838.819	22615
838.956	22360
839.094	22523
839.231	22508
839.369	22592
839.506	22881
839.643	22645
839.781	22451
839.918	22272
840.055	22443
840.193	22470
840.33	22344
840.467	22424
840.604	22413
840.742	22637
840.879	22325
841.016	22386
841.153	22188
841.29	22436
841.427	22402
841.564	22390
841.701	22265
841.838	22310
841.975	22310
842.112	22223
842.249	22192
842.385	22150
842.522	22390
842.659	22135
842.796	22109
842.933	22021
843.069	22131
843.206	22131
843.343	22325
843.479	22173
843.616	22131
843.752	21937
843.889	21991
844.025	22116
844.162	21895
844.298	22029
844.435	21838
844.571	21941
844.708	22040
844.844	21994
844.98	21968
845.117	22101
845.253	21945
845.389	21709
845.525	21869
845.661	21793
845.798	21675
845.934	21637
846.07	21545
846.206	21739
846.342	21778
846.478	21644
846.614	21454
846.75	21298
846.886	21370
847.022	21561
847.158	21420
847.294	21348
847.429	21393
847.565	21367
847.701	21637
847.837	21173
847.972	21100
848.108	21161
848.244	21157
848.379	20982
848.515	20986
848.65	21089
848.786	20956
848.921	21070
849.057	21096
849.192	21055
849.328	20937
849.463	20971
849.598	20883
849.734	20944
849.869	20906
850.004	20743
850.14	20872
850.275	20712
850.41	20678
850.545	20701
850.68	20697
850.815	20716
850.95	20701
851.085	20960
851.22	20887
851.355	20804
851.49	20899
851.625	20804
851.76	20689
851.895	20724
852.03	20621
852.165	20746
852.299	20781
852.434	20777
852.569	20777
852.703	20735
852.838	20769
852.973	20902
853.107	20819
853.242	20773
853.376	20579
853.511	20461
853.645	20651
853.78	20674
853.914	20568
854.048	20549
854.183	20537
854.317	20609
854.451	20792
854.585	20587
854.72	20587
854.854	20762
854.988	20621
855.122	20613
855.256	20507
855.39	20526
855.524	20556
855.658	20674
855.792	20598
855.926	20625
856.06	20689
856.194	20682
856.327	20568
856.461	20541
856.595	20476
856.729	20640
856.862	20564
856.996	20636
857.13	20564
857.263	20686
857.397	20606
857.53	20533
857.664	20629
857.797	20598
857.931	20629
858.064	20537
858.197	20640
858.331	20689
858.464	20514
858.597	20476
858.731	20686
858.864	20545
858.997	20590
859.13	20541
859.263	20659
859.396	20708
859.529	20632
859.662	20617
859.795	20537
859.928	20488
860.061	20785
860.194	20792
860.327	20686
860.46	20530
860.592	20678
860.725	20807
860.858	20754
860.99	20609
861.123	20495
861.256	20469
861.388	20571
861.521	21150
861.653	20579
861.786	20229
861.918	20446
862.05	20454
862.183	20457
862.315	20499
862.447	20575
862.58	20404
862.712	20358
862.844	20187
862.976	20396
863.108	20309
863.24	20701
863.372	20195
863.504	20259
863.636	20172
863.768	20355
863.9	20366
864.032	20313
864.164	20275
864.296	20377
864.428	20507
864.559	20412
864.691	20400
864.823	20294
864.954	20298
865.086	20358
865.217	20282
865.349	20077
865.48	20092
865.612	20111
865.743	20370
865.875	20180
866.006	20149
866.137	20229
866.269	20069
866.4	20149
866.531	20157
866.662	20168
866.793	20062
866.924	20134
867.055	20126
867.186	20069
867.317	20031
867.448	20069
867.579	20145
867.71	19997
867.841	20122
867.972	20183
868.103	20187
868.233	20157
868.364	20256
868.495	20161
868.625	20457
868.756	20476
868.886	20343
869.017	20355
869.147	20473
869.278	20457
869.408	20381
869.539	20438
869.669	20415
869.799	20400
869.929	20507
870.06	20495
870.19	20712
870.32	20826
870.45	20678
870.58	20788
870.71	20925
870.84	20853
870.97	20663
871.1	20765
871.23	21028
871.36	20963
871.489	20845
871.619	20941
871.749	20998
871.879	20902
872.008	21039
872.138	21028
872.267	20944
872.397	20838
872.526	20929
872.656	20899
872.785	20811
872.915	21032
873.044	21116
873.173	20902
873.303	21017
873.432	21001
873.561	21074
873.69	21142
873.819	21013
873.948	20986
874.077	21017
874.206	20975
874.335	21005
874.464	21142
874.593	21283
874.722	21161
874.851	21268
874.979	21340
875.108	21222
875.237	21093
875.365	21100
875.494	21260
875.623	21298
875.751	21184
875.88	21310
876.008	21260
876.136	21462
876.265	21606
876.393	21804
876.521	21622
876.65	21739
876.778	21701
876.906	21663
877.034	21587
877.162	21610
877.29	21534
877.418	21660
877.546	21637
877.674	21564
877.802	21625
877.93	21572
878.058	21568
878.185	21473
878.313	21595
878.441	21610
878.568	21428
878.696	21591
878.824	21606
878.951	21614
879.079	21709
879.206	21842
879.333	21937
879.461	21667
879.588	21671
879.715	21720
879.842	21857
879.97	21732
880.097	21329
880.224	21416
880.351	21439
880.478	21397
880.605	21386
880.732	21488
880.859	21633
880.986	21439
881.112	21492
881.239	21359
881.366	21150
881.493	21150
881.619	21028
881.746	20910
881.872	21036
881.999	20857
882.125	20861
882.252	21085
882.378	21020
882.505	21036
882.631	20853
882.757	20739
882.883	20838
883.01	20716
883.136	20712
883.262	20556
883.388	20484
883.514	20746
883.64	20781
883.766	20575
883.892	20556
884.018	20484
884.143	20689
884.269	20857
884.395	20442
884.52	20461
884.646	20370
884.772	20256
884.897	20355
885.023	20461
885.148	20332
885.274	20522
885.399	20514
885.524	20393
885.65	20385
885.775	20370
885.9	20290
886.025	20488
886.15	20518
886.275	20431
886.4	20290
886.525	20259
886.65	20244
886.775	20290
886.9	20423
887.025	20583
887.149	20362
887.274	20225
887.399	20263
887.523	20149
887.648	20111
887.773	19986
887.897	20256
888.021	20400
888.146	20122
888.27	20351
888.395	20176
888.519	20157
888.643	20309
888.767	20183
888.891	20168
889.015	19894
889.139	19917
889.263	19856
889.387	20012
889.511	20107
889.635	20046
889.759	19963
889.883	19989
890.006	19913
890.13	20020
890.254	19928
890.377	19868
890.501	19712
890.624	19731
890.748	19738
890.871	19597
890.995	19548
891.118	19521
891.241	19575
891.364	19510
891.488	19613
891.611	19597
891.734	19590
891.857	19567
891.98	19415
892.103	19674
892.226	19552
892.349	19362
892.471	19438
892.594	19510
892.717	19445
892.839	19434
892.962	19457
893.085	19567
893.207	19502
893.33	19346
893.452	19460
893.575	19609
893.697	19468
893.819	19620
893.941	19613
894.064	19594
894.186	19346
894.308	19381
894.43	19529
894.552	19662
894.674	19468
894.796	19331
894.918	19407
895.04	19373
895.161	19635
895.283	19521
895.405	19415
895.526	19476
895.648	19464
895.769	19483
895.891	19495
896.012	19499
896.134	19480
896.255	19529
896.376	19316
896.498	19354
896.619	19460
896.74	19373
896.861	19590
896.982	19860
897.103	19753
897.224	19643
897.345	19567
897.466	19552
897.587	19677
897.708	19890
897.828	19769
897.949	19605
898.07	19438
898.19	19594
898.311	19750
898.431	19647
898.552	19708
898.672	19799
898.792	19818
898.913	19799
899.033	19712
899.153	19499
899.273	19441
899.393	19556
899.513	19506
899.633	19362
899.753	19540
899.873	19346
899.993	19453
900.113	19460
900.232	19339
900.352	19441
900.472	19202
900.591	19240
900.711	19221
900.83	19152
900.95	19289
901.069	19381
901.189	19095
901.308	18996
901.427	18848
901.546	18935
901.665	18844
901.784	18776
901.904	18658
902.023	18608
902.141	18452
902.26	18410
902.379	18418
902.498	18323
902.617	18388
902.735	18441
902.854	18277
902.973	18232
903.091	18049
903.21	18102
903.328	18034
903.446	17935
903.565	17851
903.683	17805
903.801	17764
903.919	17798
904.038	17840
904.156	17680
904.274	17657
904.392	17672
904.51	17589
904.627	17577
904.745	17691
904.863	17737
904.981	17410
905.098	17254
905.216	17318
905.334	17353
905.451	17360
905.569	17322
905.686	17254
905.803	17246
905.921	17090
906.038	17124
906.155	17025
906.272	17041
906.389	17037
906.506	16782
906.623	16767
906.74	16915
906.857	16729
906.974	16786
907.091	16850
907.208	16953
907.324	16847
907.441	16778
907.557	16626
907.674	16565
907.79	16500
907.907	16538
908.023	16622
908.139	16558
908.256	16443
908.372	16379
908.488	16363
908.604	16181
908.72	16306
908.836	16306
908.952	16204
909.068	16306
909.184	16447
909.3	16265
909.415	16303
909.531	16192
909.647	15964
909.762	16036
909.878	15960
909.993	15987
910.108	15998
910.224	15869
910.339	15941
910.454	15800
910.57	15838
910.685	15838
910.8	15979
910.915	15975
911.03	15785
911.145	15709
911.259	15553
911.374	15656
911.489	15477
911.604	15485
911.718	15317
911.833	15439
911.947	15355
912.062	15218
912.176	15313
912.291	15431
912.405	15492
912.519	15538
912.633	15587
912.748	15424
912.862	15275
912.976	15298
913.09	14990
913.204	15127
913.318	15123
913.431	15173
913.545	15310
913.659	15275
913.772	15188
913.886	15058
914	15032
914.113	15077
914.226	15051
914.34	14971
914.453	14876
914.566	15005
914.68	14872
914.793	14864
914.906	14720
915.019	14617
915.132	14514
915.245	14533
915.358	14731
915.47	14610
915.583	14587
915.696	14530
915.809	14727
915.921	14659
916.034	14575
916.146	14522
916.259	14492
916.371	14587
916.483	14552
916.595	14454
916.708	14507
916.82	14431
916.932	14362
917.044	14393
917.156	14271
917.268	14233
917.38	14290
917.491	14180
917.603	14259
917.715	14358
917.826	14218
917.938	14180
918.049	14191
918.161	14282
918.272	14320
918.384	14336
918.495	14164
918.606	14084
918.717	13989
918.828	14088
918.939	14039
919.05	13940
919.161	13963
919.272	13750
919.383	13791
919.494	14046
919.604	14183
919.715	14039
919.826	13868
919.936	14054
920.047	14058
920.157	13917
920.267	14142
920.378	14039
920.488	14005
920.598	14157
920.708	14351
920.818	14096
920.928	14149
921.038	14332
921.148	14252
921.258	14054
921.368	13852
921.477	13765
921.587	13803
921.697	13556
921.806	13715
921.916	13632
922.025	13460
922.134	13415
922.244	13400
922.353	13468
922.462	13365
922.571	13213
922.68	13015
922.789	13046
922.898	13095
923.007	13008
923.116	13084
923.224	13065
923.333	13091
923.442	12886
923.55	12890
923.659	12795
923.767	12973
923.876	12859
923.984	12913
924.092	12783
924.201	12817
924.309	12829
924.417	12833
924.525	12650
924.633	12783
924.741	13487
924.849	12563
924.956	12654
925.064	12490
925.172	12490
925.279	12532
925.387	12582
925.494	12547
925.602	12627
925.709	12551
925.816	12418
925.924	12471
926.031	12483
926.138	12407
926.245	12467
926.352	12365
926.459	12460
926.566	12506
926.673	12464
926.779	12319
926.886	12171
926.993	12133
927.099	12140
927.206	12022
927.312	12079
927.419	12087
927.525	12041
927.631	12091
927.737	12019
927.843	11939
927.95	11828
928.056	11996
928.162	11954
928.267	11961
928.373	12570
928.479	11973
928.585	11775
928.69	11832
928.796	11809
928.901	11771
929.007	11630
929.112	11710
929.218	11699
929.323	11764
929.428	11638
929.533	11703
929.638	11676
929.743	11535
929.848	11623
929.953	11589
930.058	11474
930.163	11387
930.267	11345
930.372	11573
930.477	11280
930.581	11558
930.685	11379
930.79	11189
930.894	11212
930.998	11178
931.103	11467
931.207	10991
931.311	10938
931.415	10790
931.519	10577
931.623	10641
