Data from test_V78500241_2130.txt Node
Date: Fri Mar 25 15:24:41 CST 2022
User: usil
Spectrometer: V785-0024
Trigger mode: 0
Integration Time (sec): 4.000000E-1
Scans to average: 1
Nonlinearity correction enabled: false
Boxcar width: 0
Storing dark spectrum: false
XAxis mode: Wavelengths
Number of Pixels in Spectrum: 1024
>>>>>Begin Spectral Data<<<<<
801.071	27648
801.214	27382
801.356	27310
801.499	27157
801.641	26982
801.783	27222
801.926	27230
802.068	27165
802.211	27096
802.353	26876
802.496	26834
802.638	26735
802.78	26777
802.923	26655
803.065	26488
803.208	26689
803.35	26712
803.492	26880
803.635	26994
803.777	26902
803.919	26880
804.061	27195
804.204	26899
804.346	26952
804.488	26701
804.63	26971
804.773	26842
804.915	26887
805.057	27074
805.199	26823
805.341	26982
805.483	27150
805.626	26979
805.768	26861
805.91	27176
806.052	26960
806.194	26967
806.336	27207
806.478	27058
806.62	27108
806.762	27119
806.904	27389
807.046	27485
807.188	27454
807.33	27545
807.472	27523
807.614	27348
807.756	27378
807.898	27279
808.04	27272
808.182	27348
808.324	27321
808.465	27340
808.607	27583
808.749	27732
808.891	27732
809.033	27720
809.174	27705
809.316	27568
809.458	27549
809.6	27603
809.741	27835
809.883	27701
810.025	27930
810.166	28002
810.308	28006
810.45	27937
810.591	27983
810.733	27679
810.875	27694
811.016	27507
811.158	27545
811.299	27667
811.441	27724
811.582	27743
811.724	27534
811.865	27557
812.007	27580
812.148	27557
812.29	27572
812.431	27861
812.573	27987
812.714	28162
812.855	28185
812.997	28375
813.138	28356
813.279	28466
813.421	28185
813.562	28135
813.703	28093
813.845	27766
813.986	27709
814.127	27454
814.268	27382
814.41	27370
814.551	27359
814.692	27363
814.833	27154
814.974	27260
815.115	27435
815.256	27233
815.397	27192
815.539	27199
815.68	27131
815.821	27112
815.962	27138
816.103	27146
816.244	26963
816.385	26925
816.526	26849
816.666	26701
816.807	26518
816.948	26686
817.089	26746
817.23	26609
817.371	26568
817.512	26659
817.653	26697
817.793	26408
817.934	26579
818.075	26537
818.216	26609
818.356	26514
818.497	26579
818.638	26434
818.778	26362
818.919	26290
819.06	26332
819.2	26499
819.341	26663
819.481	26689
819.622	26644
819.762	26880
819.903	26853
820.043	26834
820.184	26720
820.324	26769
820.465	26743
820.605	26720
820.746	26796
820.886	26613
821.026	26712
821.167	26583
821.307	26750
821.447	26598
821.588	26442
821.728	26393
821.868	26294
822.008	26134
822.149	26115
822.289	26122
822.429	25868
822.569	25807
822.709	25715
822.849	25537
822.99	25620
823.13	25518
823.27	25479
823.41	25350
823.55	25327
823.69	25358
823.83	25339
823.97	25324
824.11	25259
824.25	25118
824.389	25179
824.529	25122
824.669	25206
824.809	25411
824.949	25373
825.089	25354
825.228	25327
825.368	25110
825.508	24932
825.648	25034
825.787	25042
825.927	25080
826.067	25034
826.206	24981
826.346	24981
826.485	25065
826.625	25080
826.765	25095
826.904	25069
827.044	24783
827.183	24745
827.323	24760
827.462	24783
827.601	24760
827.741	24764
827.88	24745
828.02	24665
828.159	24802
828.298	24875
828.437	24722
828.577	24669
828.716	24928
828.855	24570
828.994	24498
829.134	24612
829.273	24574
829.412	24338
829.551	24315
829.69	24532
829.829	24528
829.968	24532
830.107	24464
830.246	24456
830.385	24414
830.524	24426
830.663	24330
830.802	24327
830.941	24045
831.08	24076
831.219	24171
831.357	24190
831.496	24251
831.635	24095
831.774	23870
831.913	23954
832.051	23885
832.19	23927
832.329	23973
832.467	23729
832.606	23790
832.744	23726
832.883	23703
833.022	23577
833.16	23783
833.299	23729
833.437	23699
833.576	23855
833.714	23870
833.852	23798
833.991	24007
834.129	23904
834.267	23847
834.406	23718
834.544	23927
834.682	23885
834.821	23802
834.959	23760
835.097	23710
835.235	23832
835.373	23893
835.511	23775
835.65	23665
835.788	23726
835.926	23505
836.064	23414
836.202	23524
836.34	23707
836.478	23642
836.615	23687
836.753	23699
836.891	23802
837.029	23707
837.167	23505
837.305	23615
837.443	23505
837.58	23558
837.718	23585
837.856	23448
837.993	23372
838.131	23566
838.269	23429
838.406	23387
838.544	23303
838.681	23128
838.819	23193
838.956	22915
839.094	23022
839.231	23200
839.369	23178
839.506	23402
839.643	23280
839.781	23025
839.918	22927
840.055	22900
840.193	22953
840.33	22999
840.467	22949
840.604	22900
840.742	23018
840.879	22820
841.016	22889
841.153	22881
841.29	22782
841.427	23018
841.564	22965
841.701	22927
841.838	22873
841.975	22839
842.112	22771
842.249	22660
842.385	22599
842.522	22934
842.659	22679
842.796	22725
842.933	22538
843.069	22634
843.206	22542
843.343	22660
843.479	22626
843.616	22641
843.752	22341
843.889	22375
844.025	22580
844.162	22516
844.298	22436
844.435	22493
844.571	22417
844.708	22462
844.844	22668
844.98	22519
845.117	22519
845.253	22344
845.389	22318
845.525	22306
845.661	22325
845.798	22242
845.934	22234
846.07	22112
846.206	22181
846.342	22306
846.478	22185
846.614	22036
846.75	21895
846.886	21812
847.022	22029
847.158	21922
847.294	21945
847.429	21918
847.565	21857
847.701	21991
847.837	21614
847.972	21648
848.108	21606
848.244	21652
848.379	21526
848.515	21507
848.65	21431
848.786	21485
848.921	21477
849.057	21671
849.192	21462
849.328	21599
849.463	21496
849.598	21405
849.734	21359
849.869	21431
850.004	21230
850.14	21260
850.275	21245
850.41	21203
850.545	21180
850.68	21146
850.815	21184
850.95	21252
851.085	21488
851.22	21401
851.355	21233
851.49	21161
851.625	21074
851.76	21207
851.895	21066
852.03	21123
852.165	21161
852.299	21313
852.434	21214
852.569	21405
852.703	21237
852.838	21367
852.973	21302
853.107	21367
853.242	21245
853.376	21055
853.511	21013
853.645	21043
853.78	21123
853.914	21096
854.048	21047
854.183	20994
854.317	20910
854.451	21310
854.585	21131
854.72	21131
854.854	21233
854.988	21024
855.122	21051
855.256	20979
855.39	20963
855.524	21218
855.658	21203
855.792	21119
855.926	21135
856.06	21188
856.194	21138
856.327	21039
856.461	20944
856.595	21047
856.729	21051
856.862	21249
856.996	21032
857.13	21116
857.263	21169
857.397	21218
857.53	21123
857.664	21218
857.797	21173
857.931	21161
858.064	21150
858.197	21108
858.331	20990
858.464	21036
858.597	20849
858.731	21032
858.864	21009
858.997	20891
859.13	20967
859.263	21066
859.396	21165
859.529	21077
859.662	20979
859.795	21005
859.928	21009
860.061	21154
860.194	21165
860.327	21131
860.46	21119
860.592	21203
860.725	21192
860.858	21287
860.99	21108
861.123	21108
861.256	21070
861.388	20986
861.521	21739
861.653	20925
861.786	20906
861.918	20963
862.05	21024
862.183	20902
862.315	21081
862.447	21074
862.58	20975
862.712	20830
862.844	20701
862.976	20914
863.108	20834
863.24	21264
863.372	20807
863.504	20750
863.636	20807
863.768	20804
863.9	20800
864.032	20678
864.164	20701
864.296	20845
864.428	20952
864.559	20819
864.691	20845
864.823	20823
864.954	20773
865.086	20739
865.217	20659
865.349	20469
865.48	20716
865.612	20617
865.743	20750
865.875	20682
866.006	20617
866.137	20579
866.269	20678
866.4	20636
866.531	20625
866.662	20655
866.793	20590
866.924	20575
867.055	20636
867.186	20583
867.317	20541
867.448	20461
867.579	20648
867.71	20457
867.841	20476
867.972	20617
868.103	20530
868.233	20674
868.364	20571
868.495	20648
868.625	20880
868.756	20944
868.886	20853
869.017	20807
869.147	20986
869.278	21081
869.408	20861
869.539	20895
869.669	20876
869.799	20899
869.929	20967
870.06	20921
870.19	21260
870.32	21077
870.45	21089
870.58	21180
870.71	21332
870.84	21317
870.97	21203
871.1	21237
871.23	21386
871.36	21534
871.489	21359
871.619	21401
871.749	21435
871.879	21462
872.008	21637
872.138	21496
872.267	21370
872.397	21393
872.526	21279
872.656	21192
872.785	21348
872.915	21431
873.044	21443
873.173	21408
873.303	21439
873.432	21504
873.561	21603
873.69	21485
873.819	21481
873.948	21523
874.077	21447
874.206	21344
874.335	21496
874.464	21663
874.593	21812
874.722	21778
874.851	21656
874.979	21717
875.108	21759
875.237	21709
875.365	21641
875.494	21667
875.623	21751
875.751	21667
875.88	21698
876.008	21709
876.136	21987
876.265	22082
876.393	22181
876.521	22284
876.65	22124
876.778	22204
876.906	21975
877.034	22036
877.162	21975
877.29	22010
877.418	22116
877.546	21945
877.674	22101
877.802	21926
877.93	21949
878.058	22029
878.185	21953
878.313	22032
878.441	22021
878.568	21751
878.696	21888
878.824	21983
878.951	22048
879.079	22215
879.206	22238
879.333	22253
879.461	22120
879.588	22223
879.715	22188
879.842	22295
879.97	22128
880.097	21873
880.224	21876
880.351	21876
880.478	21827
880.605	21945
880.732	21800
880.859	22112
880.986	21739
881.112	21899
881.239	21698
881.366	21576
881.493	21431
881.619	21416
881.746	21504
881.872	21393
881.999	21382
882.125	21332
882.252	21504
882.378	21378
882.505	21504
882.631	21302
882.757	21272
882.883	21192
883.01	21214
883.136	21074
883.262	21009
883.388	21055
883.514	21142
883.64	21142
883.766	21165
883.892	20883
884.018	20979
884.143	21180
884.269	21252
884.395	20838
884.52	20785
884.646	20807
884.772	20735
884.897	20583
885.023	20902
885.148	20864
885.274	20842
885.399	20956
885.524	20838
885.65	20712
885.775	20750
885.9	20819
886.025	20963
886.15	20811
886.275	20689
886.4	20777
886.525	20861
886.65	20587
886.775	20644
886.9	20861
887.025	20963
887.149	20845
887.274	20670
887.399	20533
887.523	20602
887.648	20484
887.773	20530
887.897	20663
888.021	20590
888.146	20438
888.27	20587
888.395	20488
888.519	20613
888.643	20667
888.767	20564
888.891	20518
889.015	20263
889.139	20461
889.263	20366
889.387	20438
889.511	20568
889.635	20484
889.759	20370
889.883	20366
890.006	20423
890.13	20366
890.254	20294
890.377	20210
890.501	20195
890.624	20111
890.748	20153
890.871	20020
890.995	19940
891.118	19982
891.241	19894
891.364	19944
891.488	20092
891.611	19947
891.734	19928
891.857	20073
891.98	19997
892.103	20016
892.226	19963
892.349	19947
892.471	19715
892.594	19753
892.717	19841
892.839	19826
892.962	19879
893.085	19883
893.207	19772
893.33	19814
893.452	19719
893.575	19913
893.697	19932
893.819	19932
893.941	19978
894.064	19932
894.186	19776
894.308	19753
894.43	19814
894.552	19982
894.674	19883
894.796	19811
894.918	19818
895.04	19849
895.161	19849
895.283	19936
895.405	19715
895.526	19894
895.648	19871
895.769	19818
895.891	19993
896.012	19902
896.134	19959
896.255	19837
896.376	19719
896.498	19856
896.619	19879
896.74	19841
896.861	19894
896.982	20130
897.103	20252
897.224	20054
897.345	20050
897.466	19906
897.587	19997
897.708	20115
897.828	20050
897.949	20031
898.07	19837
898.19	20024
898.311	20161
898.431	20077
898.552	20058
898.672	20180
898.792	20168
898.913	20058
899.033	19993
899.153	19951
899.273	19715
899.393	19712
899.513	19788
899.633	19772
899.753	19852
899.873	19830
899.993	19818
900.113	19734
900.232	19830
900.352	19788
900.472	19852
900.591	19575
900.711	19616
900.83	19502
900.95	19750
901.069	19731
901.189	19449
901.308	19304
901.427	19266
901.546	19255
901.665	19274
901.784	19141
901.904	19053
902.023	18913
902.141	18798
902.26	18726
902.379	18764
902.498	18696
902.617	18715
902.735	18791
902.854	18707
902.973	18593
903.091	18429
903.21	18498
903.328	18399
903.446	18292
903.565	18308
903.683	18155
903.801	18121
903.919	18163
904.038	18098
904.156	18019
904.274	18053
904.392	17942
904.51	17916
904.627	17859
904.745	18019
904.863	17882
904.981	17874
905.098	17726
905.216	17608
905.334	17646
905.451	17668
905.569	17539
905.686	17676
905.803	17535
905.921	17433
906.038	17554
906.155	17490
906.272	17391
906.389	17318
906.506	17189
906.623	17296
906.74	17216
906.857	17090
906.974	17079
907.091	17235
907.208	17296
907.324	17159
907.441	17029
907.557	16953
907.674	16786
907.79	16835
907.907	16873
908.023	16877
908.139	16965
908.256	16793
908.372	16767
908.488	16801
908.604	16615
908.72	16527
908.836	16584
908.952	16466
909.068	16691
909.184	16740
909.3	16656
909.415	16599
909.531	16683
909.647	16409
909.762	16329
909.878	16223
909.993	16363
910.108	16287
910.224	16169
910.339	16238
910.454	16261
910.57	16124
910.685	16040
910.8	16242
910.915	16223
911.03	16147
911.145	15968
911.259	15960
911.374	15812
911.489	15793
911.604	15804
911.718	15694
911.833	15599
911.947	15606
912.062	15431
912.176	15614
912.291	15713
912.405	15584
912.519	15846
912.633	15915
912.748	15671
912.862	15534
912.976	15481
913.09	15329
913.204	15473
913.318	15389
913.431	15625
913.545	15477
913.659	15473
913.772	15336
913.886	15325
914	15279
914.113	15424
914.226	15374
914.34	15264
914.453	15272
914.566	15260
914.68	15157
914.793	15085
914.906	14975
915.019	14944
915.132	14811
915.245	14819
915.358	14883
915.47	14910
915.583	14990
915.696	14967
915.809	15020
915.921	15028
916.034	14777
916.146	14750
916.259	14731
916.371	14773
916.483	14750
916.595	14754
916.708	14735
916.82	14686
916.932	14708
917.044	14682
917.156	14758
917.268	14556
917.38	14655
917.491	14499
917.603	14610
917.715	14636
917.826	14606
917.938	14370
918.049	14461
918.161	14617
918.272	14575
918.384	14549
918.495	14514
918.606	14343
918.717	14317
918.828	14434
918.939	14381
919.05	14286
919.161	14145
919.272	14164
919.383	14168
919.494	14347
919.604	14492
919.715	14412
919.826	14199
919.936	14259
920.047	14408
920.157	14298
920.267	14351
920.378	14377
920.488	14229
920.598	14446
920.708	14579
920.818	14408
920.928	14427
921.038	14556
921.148	14454
921.258	14275
921.368	14199
921.477	13978
921.587	13967
921.697	13788
921.806	14001
921.916	13894
922.025	13647
922.134	13723
922.244	13636
922.353	13685
922.462	13548
922.571	13491
922.68	13293
922.789	13343
922.898	13438
923.007	13228
923.116	13335
923.224	13278
923.333	13308
923.442	13301
923.55	13168
923.659	13194
923.767	13255
923.876	13126
923.984	13183
924.092	12977
924.201	13042
924.309	13046
924.417	13107
924.525	12962
924.633	13095
924.741	13746
924.849	12833
924.956	12882
925.064	12829
925.172	12582
925.279	12741
925.387	12810
925.494	12688
925.602	12943
925.709	12722
925.816	12574
925.924	12677
926.031	12798
926.138	12700
926.245	12738
926.352	12722
926.459	12726
926.566	12741
926.673	12646
926.779	12498
926.886	12486
926.993	12437
927.099	12228
927.206	12277
927.312	12243
927.419	12372
927.525	12281
927.631	12289
927.737	12159
927.843	12175
927.95	12213
928.056	12129
928.162	12159
928.267	12091
928.373	12741
928.479	12102
928.585	11988
928.69	12060
928.796	12159
928.901	12015
929.007	11916
929.112	12095
929.218	12034
929.323	11973
929.428	11847
929.533	11954
929.638	11691
929.743	11889
929.848	11855
929.953	11885
930.058	11779
930.163	11547
930.267	11592
930.372	11745
930.477	11520
930.581	11684
930.685	11512
930.79	11402
930.894	11448
930.998	11425
931.103	11642
931.207	11178
931.311	11181
931.415	11025
931.519	10816
931.623	10858
