Data from test_V78500241_2300.txt Node
Date: Fri Mar 25 15:25:52 CST 2022
User: usil
Spectrometer: V785-0024
Trigger mode: 0
Integration Time (sec): 4.000000E-1
Scans to average: 1
Nonlinearity correction enabled: false
Boxcar width: 0
Storing dark spectrum: false
XAxis mode: Wavelengths
Number of Pixels in Spectrum: 1024
>>>>>Begin Spectral Data<<<<<
801.071	27835
801.214	27675
801.356	27504
801.499	27492
801.641	27283
801.783	27157
801.926	27325
802.068	27298
802.211	27169
802.353	27135
802.496	26971
802.638	26872
802.78	26887
802.923	26777
803.065	26746
803.208	26842
803.35	26807
803.492	27127
803.635	27218
803.777	27062
803.919	26975
804.061	27386
804.204	27192
804.346	27093
804.488	27169
804.63	27233
804.773	26994
804.915	27104
805.057	27100
805.199	27036
805.341	27184
805.483	27260
805.626	27211
805.768	27157
805.91	27279
806.052	27294
806.194	27123
806.336	27317
806.478	27222
806.62	27302
806.762	27279
806.904	27610
807.046	27835
807.188	27717
807.33	27732
807.472	27622
807.614	27564
807.756	27557
807.898	27439
808.04	27454
808.182	27603
808.324	27553
808.465	27545
808.607	27884
808.749	27888
808.891	27922
809.033	28078
809.174	27899
809.316	27717
809.458	27884
809.6	27762
809.741	28010
809.883	27979
810.025	28139
810.166	28173
810.308	28093
810.45	28116
810.591	27876
810.733	27861
810.875	27694
811.016	27637
811.158	27762
811.299	27960
811.441	27975
811.582	28010
811.724	27911
811.865	27892
812.007	27857
812.148	27736
812.29	27975
812.431	27987
812.573	28272
812.714	28318
812.855	28348
812.997	28485
813.138	28550
813.279	28382
813.421	28417
813.562	28417
813.703	28169
813.845	28013
813.986	27701
814.127	27705
814.268	27466
814.41	27648
814.551	27462
814.692	27477
814.833	27519
814.974	27374
815.115	27523
815.256	27367
815.397	27408
815.539	27515
815.68	27237
815.821	27306
815.962	27370
816.103	27397
816.244	27077
816.385	27146
816.526	27119
816.666	26948
816.807	26750
816.948	26804
817.089	26967
817.23	26826
817.371	26804
817.512	26762
817.653	26708
817.793	26682
817.934	26758
818.075	26868
818.216	26792
818.356	26632
818.497	26819
818.638	26632
818.778	26689
818.919	26609
819.06	26613
819.2	26621
819.341	26830
819.481	26815
819.622	26800
819.762	27272
819.903	27093
820.043	27062
820.184	26811
820.324	27009
820.465	26830
820.605	26849
820.746	26967
820.886	26686
821.026	26990
821.167	26967
821.307	26914
821.447	26819
821.588	26731
821.728	26617
821.868	26446
822.008	26252
822.149	26248
822.289	26317
822.429	26126
822.569	26031
822.709	26020
822.849	25860
822.99	25871
823.13	25799
823.27	25731
823.41	25609
823.55	25449
823.69	25689
823.83	25559
823.97	25537
824.11	25285
824.25	25225
824.389	25419
824.529	25415
824.669	25415
824.809	25491
824.949	25426
825.089	25434
825.228	25362
825.368	25301
825.508	25266
825.648	25209
825.787	25373
825.927	25324
826.067	25194
826.206	25175
826.346	25251
826.485	25384
826.625	25217
826.765	25320
826.904	25225
827.044	24989
827.183	25069
827.323	25000
827.462	25118
827.601	24970
827.741	24825
827.88	24932
828.02	24848
828.159	24970
828.298	24844
828.437	25027
828.577	25008
828.716	25042
828.855	24852
828.994	24840
829.134	24722
829.273	24700
829.412	24707
829.551	24627
829.69	24661
829.829	24639
829.968	24810
830.107	24722
830.246	24684
830.385	24555
830.524	24650
830.663	24509
830.802	24350
830.941	24319
831.08	24304
831.219	24410
831.357	24422
831.496	24479
831.635	24369
831.774	24133
831.913	24022
832.051	24076
832.19	24041
832.329	24095
832.467	23950
832.606	23908
832.744	23931
832.883	23851
833.022	23885
833.16	23923
833.299	23863
833.437	24083
833.576	24106
833.714	24026
833.852	24026
833.991	24034
834.129	24133
834.267	23996
834.406	24015
834.544	24038
834.682	24201
834.821	23977
834.959	24194
835.097	24030
835.235	23969
835.373	23916
835.511	23961
835.65	24026
835.788	23851
835.926	23630
836.064	23722
836.202	23668
836.34	23855
836.478	23996
836.615	23802
836.753	23855
836.891	23958
837.029	23760
837.167	23756
837.305	23813
837.443	23760
837.58	23764
837.718	23653
837.856	23680
837.993	23646
838.131	23817
838.269	23535
838.406	23676
838.544	23592
838.681	23345
838.819	23353
838.956	23273
839.094	23231
839.231	23151
839.369	23322
839.506	23623
839.643	23364
839.781	23117
839.918	23094
840.055	23132
840.193	23098
840.33	23041
840.467	23094
840.604	23151
840.742	23337
840.879	22934
841.016	22987
841.153	22930
841.29	23239
841.427	23018
841.564	22942
841.701	23132
841.838	23003
841.975	23033
842.112	23022
842.249	22892
842.385	22866
842.522	23041
842.659	22915
842.796	22790
842.933	22892
843.069	22812
843.206	22706
843.343	22889
843.479	22889
843.616	22869
843.752	22653
843.889	22603
844.025	22801
844.162	22660
844.298	22710
844.435	22592
844.571	22691
844.708	22615
844.844	22862
844.98	22763
845.117	22767
845.253	22550
845.389	22485
845.525	22542
845.661	22451
845.798	22333
845.934	22478
846.07	22306
846.206	22500
846.342	22470
846.478	22344
846.614	22154
846.75	22036
846.886	22093
847.022	22162
847.158	22067
847.294	22063
847.429	22139
847.565	22116
847.701	22291
847.837	21785
847.972	21736
848.108	21918
848.244	21842
848.379	21785
848.515	21591
848.65	21603
848.786	21644
848.921	21732
849.057	21682
849.192	21652
849.328	21774
849.463	21690
849.598	21618
849.734	21557
849.869	21485
850.004	21466
850.14	21412
850.275	21496
850.41	21431
850.545	21363
850.68	21477
850.815	21481
850.95	21428
851.085	21523
851.22	21473
851.355	21511
851.49	21481
851.625	21412
851.76	21393
851.895	21378
852.03	21294
852.165	21252
852.299	21450
852.434	21431
852.569	21416
852.703	21466
852.838	21485
852.973	21477
853.107	21610
853.242	21481
853.376	21245
853.511	21176
853.645	21275
853.78	21424
853.914	21367
854.048	21214
854.183	21332
854.317	21260
854.451	21439
854.585	21382
854.72	21291
854.854	21412
854.988	21195
855.122	21275
855.256	21203
855.39	21275
855.524	21313
855.658	21359
855.792	21157
855.926	21211
856.06	21214
856.194	21336
856.327	21363
856.461	21218
856.595	21264
856.729	21169
856.862	21291
856.996	21249
857.13	21397
857.263	21332
857.397	21428
857.53	21329
857.664	21165
857.797	21367
857.931	21374
858.064	21211
858.197	21317
858.331	21195
858.464	21245
858.597	21066
858.731	21233
858.864	21192
858.997	21291
859.13	21230
859.263	21351
859.396	21287
859.529	21329
859.662	21249
859.795	21226
859.928	21260
860.061	21469
860.194	21496
860.327	21287
860.46	21252
860.592	21367
860.725	21348
860.858	21374
860.99	21249
861.123	21230
861.256	21154
861.388	21161
861.521	21941
861.653	21058
861.786	20880
861.918	21024
862.05	21112
862.183	21222
862.315	21138
862.447	21313
862.58	21203
862.712	21055
862.844	20937
862.976	20994
863.108	21070
863.24	21420
863.372	20929
863.504	21024
863.636	21001
863.768	21077
863.9	20929
864.032	20937
864.164	20902
864.296	21039
864.428	21066
864.559	21135
864.691	21062
864.823	20902
864.954	21024
865.086	20941
865.217	20883
865.349	20853
865.48	20804
865.612	20918
865.743	20906
865.875	20883
866.006	20804
866.137	20906
866.269	21005
866.4	20788
866.531	20842
866.662	20743
866.793	20804
866.924	20845
867.055	20826
867.186	20800
867.317	20724
867.448	20777
867.579	20804
867.71	20762
867.841	20727
867.972	20861
868.103	20788
868.233	20823
868.364	20785
868.495	20876
868.625	20967
868.756	21207
868.886	20967
869.017	21096
869.147	21245
869.278	21150
869.408	20902
869.539	21013
869.669	21108
869.799	21112
869.929	21264
870.06	21112
870.19	21378
870.32	21264
870.45	21382
870.58	21389
870.71	21622
870.84	21500
870.97	21393
871.1	21458
871.23	21595
871.36	21663
871.489	21526
871.619	21603
871.749	21660
871.879	21583
872.008	21739
872.138	21610
872.267	21629
872.397	21416
872.526	21412
872.656	21553
872.785	21485
872.915	21724
873.044	21762
873.173	21656
873.303	21694
873.432	21675
873.561	21793
873.69	21675
873.819	21656
873.948	21759
874.077	21656
874.206	21466
874.335	21595
874.464	21819
874.593	21922
874.722	21934
874.851	21895
874.979	21854
875.108	21899
875.237	21892
875.365	21709
875.494	21762
875.623	22006
875.751	21899
875.88	21941
876.008	22124
876.136	22135
876.265	22329
876.393	22356
876.521	22436
876.65	22310
876.778	22185
876.906	22147
877.034	22280
877.162	22284
877.29	22276
877.418	22341
877.546	22265
877.674	22150
877.802	22150
877.93	22219
878.058	22253
878.185	22177
878.313	22048
878.441	22143
878.568	22093
878.696	22112
878.824	22207
878.951	22379
879.079	22443
879.206	22569
879.333	22432
879.461	22257
879.588	22306
879.715	22474
879.842	22561
879.97	22348
880.097	21972
880.224	22048
880.351	22154
880.478	22040
880.605	21964
880.732	21899
880.859	22291
880.986	22017
881.112	21998
881.239	21831
881.366	21762
881.493	21755
881.619	21622
881.746	21618
881.872	21545
881.999	21637
882.125	21644
882.252	21675
882.378	21717
882.505	21728
882.631	21561
882.757	21317
882.883	21401
883.01	21332
883.136	21222
883.262	21195
883.388	21188
883.514	21355
883.64	21252
883.766	21245
883.892	21100
884.018	21036
884.143	21260
884.269	21397
884.395	21074
884.52	20944
884.646	21032
884.772	20910
884.897	20864
885.023	21017
885.148	20948
885.274	21062
885.399	21218
885.524	20857
885.65	21013
885.775	21043
885.9	20883
886.025	20982
886.15	20941
886.275	20834
886.4	20872
886.525	20891
886.65	20849
886.775	20864
886.9	21036
887.025	21180
887.149	20986
887.274	20712
887.399	20743
887.523	20655
887.648	20758
887.773	20590
887.897	20868
888.021	20765
888.146	20632
888.27	20838
888.395	20804
888.519	20678
888.643	20632
888.767	20792
888.891	20720
889.015	20724
889.139	20568
889.263	20473
889.387	20636
889.511	20655
889.635	20731
889.759	20488
889.883	20423
890.006	20469
890.13	20644
890.254	20526
890.377	20480
890.501	20282
890.624	20199
890.748	20347
890.871	20164
890.995	20054
891.118	20153
891.241	20142
891.364	20115
891.488	20301
891.611	20054
891.734	20202
891.857	20221
891.98	20263
892.103	20126
892.226	20001
892.349	20050
892.471	19887
892.594	20054
892.717	20096
892.839	19970
892.962	19982
893.085	20221
893.207	19925
893.33	19879
893.452	19989
893.575	20134
893.697	19970
893.819	20180
893.941	20237
894.064	20126
894.186	19936
894.308	19868
894.43	20168
894.552	20130
894.674	20100
894.796	19947
894.918	20043
895.04	19967
895.161	20119
895.283	19959
895.405	19955
895.526	20088
895.648	19959
895.769	19978
895.891	20138
896.012	20084
896.134	20115
896.255	19944
896.376	19940
896.498	20024
896.619	20138
896.74	19883
896.861	20161
896.982	20362
897.103	20530
897.224	20290
897.345	20221
897.466	20263
897.587	20267
897.708	20454
897.828	20237
897.949	20103
898.07	20138
898.19	20199
898.311	20362
898.431	20168
898.552	20202
898.672	20214
898.792	20343
898.913	20370
899.033	20084
899.153	20119
899.273	19879
899.393	20039
899.513	19982
899.633	20012
899.753	20001
899.873	19974
899.993	20005
900.113	20001
900.232	19986
900.352	19955
900.472	19788
900.591	19826
900.711	19875
900.83	19605
900.95	19750
901.069	19913
901.189	19613
901.308	19400
901.427	19365
901.546	19533
901.665	19274
901.784	19278
901.904	19198
902.023	19247
902.141	18973
902.26	18924
902.379	18859
902.498	18817
902.617	18840
902.735	18962
902.854	18867
902.973	18863
903.091	18536
903.21	18528
903.328	18623
903.446	18563
903.565	18418
903.683	18334
903.801	18213
903.919	18323
904.038	18270
904.156	18083
904.274	18254
904.392	18106
904.51	18098
904.627	18155
904.745	18064
904.863	18247
904.981	17878
905.098	17722
905.216	17687
905.334	17756
905.451	17836
905.569	17771
905.686	17779
905.803	17756
905.921	17520
906.038	17684
906.155	17532
906.272	17417
906.389	17455
906.506	17296
906.623	17349
906.74	17307
906.857	17189
906.974	17299
907.091	17379
907.208	17383
907.324	17208
907.441	17162
907.557	17079
907.674	17060
907.79	16934
907.907	16987
908.023	17006
908.139	17060
908.256	17003
908.372	16934
908.488	16885
908.604	16881
908.72	16710
908.836	16831
908.952	16660
909.068	16812
909.184	16889
909.3	16816
909.415	16729
909.531	16713
909.647	16485
909.762	16519
909.878	16386
909.993	16455
910.108	16466
910.224	16367
910.339	16398
910.454	16295
910.57	16303
910.685	16192
910.8	16466
910.915	16417
911.03	16215
911.145	16021
911.259	16036
911.374	16055
911.489	16040
911.604	15953
911.718	15759
911.833	15800
911.947	15720
912.062	15610
912.176	15778
912.291	15724
912.405	15724
912.519	15930
912.633	15899
912.748	15876
912.862	15812
912.976	15682
913.09	15443
913.204	15557
913.318	15572
913.431	15770
913.545	15690
913.659	15629
913.772	15561
913.886	15519
914	15355
914.113	15462
914.226	15488
914.34	15450
914.453	15321
914.566	15405
914.68	15359
914.793	15310
914.906	15184
915.019	14956
915.132	14895
915.245	15047
915.358	14952
915.47	14971
915.583	15047
915.696	15119
915.809	15093
915.921	15207
916.034	14933
916.146	14906
916.259	14883
916.371	15001
916.483	14963
916.595	14910
916.708	14796
916.82	14876
916.932	14773
917.044	14769
917.156	14792
917.268	14621
917.38	14701
917.491	14632
917.603	14686
917.715	14807
917.826	14697
917.938	14629
918.049	14476
918.161	14678
918.272	14804
918.384	14716
918.495	14590
918.606	14541
918.717	14431
918.828	14526
918.939	14469
919.05	14259
919.161	14301
919.272	14267
919.383	14290
919.494	14476
919.604	14568
919.715	14362
919.826	14336
919.936	14450
920.047	14457
920.157	14434
920.267	14583
920.378	14339
920.488	14385
920.598	14530
920.708	14705
920.818	14579
920.928	14465
921.038	14693
921.148	14552
921.258	14320
921.368	14389
921.477	14103
921.587	14153
921.697	14001
921.806	14054
921.916	14065
922.025	13868
922.134	13772
922.244	13780
922.353	13632
922.462	13647
922.571	13548
922.68	13468
922.789	13453
922.898	13411
923.007	13270
923.116	13441
923.224	13426
923.333	13457
923.442	13270
923.55	13228
923.659	13217
923.767	13270
923.876	13244
923.984	13228
924.092	13175
924.201	13213
924.309	13164
924.417	13141
924.525	13194
924.633	13149
924.741	13967
924.849	12924
924.956	13038
925.064	12897
925.172	12753
925.279	12844
925.387	12882
925.494	12894
925.602	12981
925.709	12871
925.816	12764
925.924	12848
926.031	12848
926.138	12856
926.245	12810
926.352	12631
926.459	12951
926.566	12901
926.673	12783
926.779	12616
926.886	12601
926.993	12498
927.099	12448
927.206	12433
927.312	12407
927.419	12365
927.525	12494
927.631	12414
927.737	12292
927.843	12277
927.95	12216
928.056	12277
928.162	12258
928.267	12300
928.373	12856
928.479	12342
928.585	12178
928.69	12232
928.796	12182
928.901	12144
929.007	12030
929.112	12144
929.218	12049
929.323	12079
929.428	11996
929.533	12087
929.638	11931
929.743	11931
929.848	11927
929.953	11946
930.058	11828
930.163	11684
930.267	11695
930.372	11893
930.477	11634
930.581	11927
930.685	11726
930.79	11520
930.894	11653
930.998	11493
931.103	11691
931.207	11334
931.311	11277
931.415	11212
931.519	10968
931.623	10946
