Data from test_V78500241_2279.txt Node
Date: Fri Mar 25 15:25:43 CST 2022
User: usil
Spectrometer: V785-0024
Trigger mode: 0
Integration Time (sec): 4.000000E-1
Scans to average: 1
Nonlinearity correction enabled: false
Boxcar width: 0
Storing dark spectrum: false
XAxis mode: Wavelengths
Number of Pixels in Spectrum: 1024
>>>>>Begin Spectral Data<<<<<
801.071	27823
801.214	27618
801.356	27427
801.499	27431
801.641	27192
801.783	27218
801.926	27233
802.068	27313
802.211	27279
802.353	27024
802.496	26834
802.638	26952
802.78	26887
802.923	26788
803.065	26861
803.208	26826
803.35	26796
803.492	26940
803.635	27070
803.777	26937
803.919	27096
804.061	27443
804.204	27058
804.346	26998
804.488	27013
804.63	26994
804.773	26918
804.915	27123
805.057	27214
805.199	27055
805.341	27081
805.483	27226
805.626	27108
805.768	27100
805.91	27058
806.052	27241
806.194	27214
806.336	27351
806.478	27146
806.62	27169
806.762	27237
806.904	27405
807.046	27781
807.188	27622
807.33	27694
807.472	27686
807.614	27370
807.756	27542
807.898	27488
808.04	27389
808.182	27283
808.324	27553
808.465	27576
808.607	27701
808.749	27816
808.891	27903
809.033	27888
809.174	27945
809.316	27637
809.458	27819
809.6	27789
809.741	27895
809.883	27964
810.025	28128
810.166	28025
810.308	28044
810.45	28044
810.591	27903
810.733	27956
810.875	27736
811.016	27641
811.158	27686
811.299	27949
811.441	28036
811.582	27812
811.724	27895
811.865	27709
812.007	27705
812.148	27743
812.29	27682
812.431	27960
812.573	28109
812.714	28181
812.855	28284
812.997	28299
813.138	28546
813.279	28512
813.421	28356
813.562	28158
813.703	28154
813.845	27991
813.986	27656
814.127	27606
814.268	27530
814.41	27477
814.551	27542
814.692	27534
814.833	27344
814.974	27447
815.115	27393
815.256	27458
815.397	27420
815.539	27447
815.68	27363
815.821	27294
815.962	27287
816.103	27336
816.244	27169
816.385	27142
816.526	26887
816.666	26910
816.807	26823
816.948	26792
817.089	26785
817.23	26857
817.371	26708
817.512	26819
817.653	26727
817.793	26720
817.934	26762
818.075	26750
818.216	26777
818.356	26655
818.497	26629
818.638	26396
818.778	26526
818.919	26423
819.06	26526
819.2	26701
819.341	26811
819.481	26868
819.622	26857
819.762	26979
819.903	26952
820.043	26830
820.184	26864
820.324	26895
820.465	27009
820.605	26792
820.746	26762
820.886	26735
821.026	26857
821.167	26861
821.307	26853
821.447	26754
821.588	26625
821.728	26526
821.868	26343
822.008	26267
822.149	26248
822.289	26149
822.429	25947
822.569	25845
822.709	25982
822.849	25658
822.99	25742
823.13	25693
823.27	25674
823.41	25491
823.55	25407
823.69	25559
823.83	25616
823.97	25556
824.11	25312
824.25	25266
824.389	25244
824.529	25445
824.669	25358
824.809	25525
824.949	25460
825.089	25392
825.228	25392
825.368	25331
825.508	25255
825.648	25179
825.787	25308
825.927	25213
826.067	25206
826.206	25331
826.346	25183
826.485	25388
826.625	25217
826.765	25419
826.904	25244
827.044	24996
827.183	25012
827.323	24886
827.462	25031
827.601	24905
827.741	24821
827.88	24951
828.02	24863
828.159	24989
828.298	24859
828.437	24943
828.577	24905
828.716	24992
828.855	24848
828.994	24631
829.134	24540
829.273	24684
829.412	24574
829.551	24566
829.69	24654
829.829	24601
829.968	24627
830.107	24623
830.246	24627
830.385	24391
830.524	24642
830.663	24467
830.802	24338
830.941	24232
831.08	24163
831.219	24205
831.357	24281
831.496	24338
831.635	24209
831.774	24129
831.913	24079
832.051	24140
832.19	23927
832.329	24038
832.467	24045
832.606	23855
832.744	23984
832.883	23790
833.022	23859
833.16	23828
833.299	23942
833.437	23950
833.576	23984
833.714	23939
833.852	23996
833.991	24053
834.129	24015
834.267	24121
834.406	23969
834.544	23942
834.682	23847
834.821	23969
834.959	24102
835.097	23908
835.235	23999
835.373	23942
835.511	23836
835.65	23870
835.788	23756
835.926	23627
836.064	23520
836.202	23691
836.34	23809
836.478	23840
836.615	23779
836.753	23771
836.891	23733
837.029	23703
837.167	23817
837.305	23714
837.443	23665
837.58	23649
837.718	23733
837.856	23707
837.993	23551
838.131	23600
838.269	23482
838.406	23520
838.544	23512
838.681	23387
838.819	23246
838.956	23094
839.094	23052
839.231	23151
839.369	23277
839.506	23501
839.643	23459
839.781	23140
839.918	23170
840.055	23136
840.193	23052
840.33	23105
840.467	23022
840.604	22984
840.742	23216
840.879	22847
841.016	22942
841.153	22927
841.29	23166
841.427	23010
841.564	22991
841.701	23003
841.838	22911
841.975	22873
842.112	22953
842.249	22847
842.385	22736
842.522	22934
842.659	22736
842.796	22679
842.933	22911
843.069	22565
843.206	22744
843.343	22873
843.479	22721
843.616	22767
843.752	22561
843.889	22607
844.025	22774
844.162	22497
844.298	22580
844.435	22618
844.571	22542
844.708	22577
844.844	22573
844.98	22672
845.117	22546
845.253	22440
845.389	22299
845.525	22428
845.661	22451
845.798	22223
845.934	22253
846.07	22280
846.206	22306
846.342	22402
846.478	22272
846.614	22013
846.75	21937
846.886	22048
847.022	22143
847.158	22051
847.294	22006
847.429	22040
847.565	22120
847.701	22196
847.837	21717
847.972	21667
848.108	21797
848.244	21823
848.379	21622
848.515	21515
848.65	21534
848.786	21511
848.921	21686
849.057	21679
849.192	21736
849.328	21633
849.463	21599
849.598	21663
849.734	21538
849.869	21500
850.004	21439
850.14	21397
850.275	21496
850.41	21291
850.545	21340
850.68	21317
850.815	21359
850.95	21214
851.085	21500
851.22	21454
851.355	21530
851.49	21272
851.625	21393
851.76	21329
851.895	21218
852.03	21279
852.165	21355
852.299	21291
852.434	21519
852.569	21378
852.703	21439
852.838	21348
852.973	21481
853.107	21515
853.242	21260
853.376	21138
853.511	21127
853.645	21108
853.78	21264
853.914	21230
854.048	21211
854.183	21085
854.317	21195
854.451	21431
854.585	21256
854.72	21131
854.854	21294
854.988	21062
855.122	21291
855.256	21001
855.39	21154
855.524	21180
855.658	21199
855.792	21203
855.926	21165
856.06	21245
856.194	21199
856.327	21222
856.461	21150
856.595	21055
856.729	21256
856.862	21351
856.996	21165
857.13	21226
857.263	21275
857.397	21370
857.53	21077
857.664	21195
857.797	21218
857.931	21252
858.064	21173
858.197	21348
858.331	21173
858.464	21180
858.597	21119
858.731	21142
858.864	21173
858.997	21100
859.13	21165
859.263	21032
859.396	21264
859.529	21188
859.662	21093
859.795	21108
859.928	21332
860.061	21332
860.194	21496
860.327	21252
860.46	21184
860.592	21268
860.725	21348
860.858	21367
860.99	21184
861.123	21131
861.256	21272
861.388	21077
861.521	22006
861.653	20986
861.786	20960
861.918	20979
862.05	20986
862.183	21306
862.315	21135
862.447	21108
862.58	20979
862.712	20975
862.844	20853
862.976	20963
863.108	20899
863.24	21222
863.372	20746
863.504	20895
863.636	20921
863.768	20895
863.9	20826
864.032	20765
864.164	20883
864.296	20941
864.428	20967
864.559	20883
864.691	21017
864.823	20899
864.954	20868
865.086	20906
865.217	20804
865.349	20823
865.48	20804
865.612	20838
865.743	20975
865.875	20830
866.006	20613
866.137	20815
866.269	20807
866.4	20826
866.531	20712
866.662	20765
866.793	20621
866.924	20720
867.055	20838
867.186	20686
867.317	20788
867.448	20792
867.579	20735
867.71	20579
867.841	20602
867.972	20663
868.103	20522
868.233	20819
868.364	20613
868.495	20944
868.625	20925
868.756	21074
868.886	20864
869.017	20960
869.147	21043
869.278	21150
869.408	21020
869.539	20895
869.669	21055
869.799	20975
869.929	21081
870.06	21028
870.19	21329
870.32	21180
870.45	21374
870.58	21359
870.71	21374
870.84	21424
870.97	21416
871.1	21359
871.23	21656
871.36	21561
871.489	21408
871.619	21458
871.749	21526
871.879	21614
872.008	21724
872.138	21580
872.267	21553
872.397	21405
872.526	21447
872.656	21291
872.785	21382
872.915	21488
873.044	21713
873.173	21614
873.303	21682
873.432	21542
873.561	21709
873.69	21660
873.819	21644
873.948	21538
874.077	21530
874.206	21583
874.335	21568
874.464	21682
874.593	21720
874.722	21835
874.851	21679
874.979	21789
875.108	21854
875.237	21835
875.365	21709
875.494	21846
875.623	21819
875.751	21766
875.88	21880
876.008	21979
876.136	21945
876.265	22158
876.393	22405
876.521	22341
876.65	22394
876.778	22219
876.906	22215
877.034	22086
877.162	22185
877.29	22131
877.418	22154
877.546	22169
877.674	22219
877.802	22112
877.93	22112
878.058	22116
878.185	22029
878.313	22036
878.441	22177
878.568	22036
878.696	22105
878.824	22124
878.951	22234
879.079	22284
879.206	22360
879.333	22371
879.461	22211
879.588	22371
879.715	22398
879.842	22474
879.97	22325
880.097	21979
880.224	21926
880.351	21956
880.478	21975
880.605	22128
880.732	22002
880.859	22188
880.986	21998
881.112	21953
881.239	21865
881.366	21751
881.493	21686
881.619	21507
881.746	21625
881.872	21576
881.999	21378
882.125	21488
882.252	21663
882.378	21355
882.505	21675
882.631	21367
882.757	21287
882.883	21336
883.01	21222
883.136	21089
883.262	21104
883.388	21123
883.514	21192
883.64	21272
883.766	21131
883.892	20990
884.018	21036
884.143	21302
884.269	21279
884.395	21001
884.52	20883
884.646	20918
884.772	20777
884.897	20838
885.023	20937
885.148	20952
885.274	21161
885.399	20990
885.524	20849
885.65	21005
885.775	20906
885.9	20857
886.025	20921
886.15	20952
886.275	20906
886.4	20769
886.525	20918
886.65	20811
886.775	20891
886.9	21043
887.025	21028
887.149	20883
887.274	20667
887.399	20613
887.523	20655
887.648	20587
887.773	20632
887.897	20720
888.021	20613
888.146	20575
888.27	20788
888.395	20708
888.519	20556
888.643	20724
888.767	20682
888.891	20674
889.015	20617
889.139	20503
889.263	20469
889.387	20541
889.511	20644
889.635	20602
889.759	20461
889.883	20480
890.006	20473
890.13	20400
890.254	20374
890.377	20400
890.501	20183
890.624	20138
890.748	20225
890.871	20092
890.995	20096
891.118	19993
891.241	20073
891.364	20081
891.488	20142
891.611	20016
891.734	20016
891.857	20115
891.98	20077
892.103	20012
892.226	20092
892.349	19982
892.471	19799
892.594	20088
892.717	19955
892.839	19959
892.962	20065
893.085	20043
893.207	19860
893.33	19875
893.452	19898
893.575	20020
893.697	19925
893.819	20100
893.941	20084
894.064	20016
894.186	19925
894.308	19841
894.43	19951
894.552	20016
894.674	20001
894.796	19860
894.918	19894
895.04	19902
895.161	20050
895.283	20054
895.405	19989
895.526	19845
895.648	19868
895.769	19947
895.891	19913
896.012	20005
896.134	19982
896.255	19928
896.376	19921
896.498	20008
896.619	20062
896.74	19864
896.861	19959
896.982	20237
897.103	20404
897.224	20180
897.345	20157
897.466	20119
897.587	20138
897.708	20389
897.828	20263
897.949	20058
898.07	20016
898.19	20122
898.311	20164
898.431	20103
898.552	20130
898.672	20100
898.792	20172
898.913	20218
899.033	20081
899.153	20088
899.273	19959
899.393	20008
899.513	20027
899.633	19932
899.753	19989
899.873	19970
899.993	19864
900.113	19928
900.232	19845
900.352	19772
900.472	19677
900.591	19742
900.711	19723
900.83	19613
900.95	19757
901.069	19746
901.189	19544
901.308	19430
901.427	19384
901.546	19282
901.665	19320
901.784	19464
901.904	19160
902.023	19027
902.141	18791
902.26	18901
902.379	18863
902.498	18859
902.617	18798
902.735	18840
902.854	18806
902.973	18719
903.091	18559
903.21	18490
903.328	18490
903.446	18296
903.565	18311
903.683	18346
903.801	18136
903.919	18300
904.038	18338
904.156	18076
904.274	18159
904.392	18003
904.51	17999
904.627	18022
904.745	17999
904.863	18076
904.981	17794
905.098	17748
905.216	17722
905.334	17680
905.451	17783
905.569	17676
905.686	17691
905.803	17710
905.921	17543
906.038	17573
906.155	17532
906.272	17482
906.389	17421
906.506	17246
906.623	17337
906.74	17197
906.857	17094
906.974	17147
907.091	17311
907.208	17395
907.324	17311
907.441	17143
907.557	16980
907.674	16961
907.79	16919
907.907	16908
908.023	17045
908.139	16999
908.256	16816
908.372	16835
908.488	16869
908.604	16782
908.72	16653
908.836	16816
908.952	16618
909.068	16683
909.184	16839
909.3	16542
909.415	16721
909.531	16664
909.647	16440
909.762	16367
909.878	16356
909.993	16356
910.108	16440
910.224	16356
910.339	16265
910.454	16234
910.57	16238
910.685	16112
910.8	16428
910.915	16314
911.03	16253
911.145	16063
911.259	16067
911.374	15972
911.489	16025
911.604	15937
911.718	15732
911.833	15743
911.947	15686
912.062	15682
912.176	15728
912.291	15629
912.405	15682
912.519	15937
912.633	15968
912.748	15785
912.862	15690
912.976	15568
913.09	15412
913.204	15435
913.318	15584
913.431	15618
913.545	15728
913.659	15618
913.772	15530
913.886	15473
914	15302
914.113	15393
914.226	15576
914.34	15408
914.453	15355
914.566	15340
914.68	15344
914.793	15211
914.906	15112
915.019	14975
915.132	14982
915.245	14918
915.358	15043
915.47	15001
915.583	14853
915.696	15032
915.809	14986
915.921	15173
916.034	14941
916.146	14872
916.259	14819
916.371	15005
916.483	15020
916.595	14918
916.708	14769
916.82	14750
916.932	14773
917.044	14727
917.156	14712
917.268	14629
917.38	14560
917.491	14594
917.603	14689
917.715	14636
917.826	14689
917.938	14556
918.049	14476
918.161	14632
918.272	14693
918.384	14670
918.495	14606
918.606	14492
918.717	14393
918.828	14480
918.939	14427
919.05	14328
919.161	14389
919.272	14206
919.383	14240
919.494	14389
919.604	14621
919.715	14419
919.826	14191
919.936	14370
920.047	14450
920.157	14370
920.267	14571
920.378	14290
920.488	14366
920.598	14537
920.708	14621
920.818	14469
920.928	14431
921.038	14697
921.148	14644
921.258	14301
921.368	14191
921.477	14073
921.587	14005
921.697	13970
921.806	14069
921.916	13860
922.025	13772
922.134	13757
922.244	13700
922.353	13769
922.462	13662
922.571	13544
922.68	13449
922.789	13373
922.898	13438
923.007	13285
923.116	13362
923.224	13400
923.333	13388
923.442	13293
923.55	13179
923.659	13324
923.767	13255
923.876	13179
923.984	13270
924.092	13160
924.201	13190
924.309	13088
924.417	13091
924.525	13053
924.633	13137
924.741	13769
924.849	12829
924.956	12928
925.064	12878
925.172	12814
925.279	12791
925.387	12856
925.494	12848
925.602	12863
925.709	12875
925.816	12734
925.924	12757
926.031	12894
926.138	12719
926.245	12730
926.352	12719
926.459	12715
926.566	12844
926.673	12692
926.779	12574
926.886	12597
926.993	12513
927.099	12426
927.206	12407
927.312	12391
927.419	12327
927.525	12407
927.631	12357
927.737	12262
927.843	12201
927.95	12148
928.056	12182
928.162	12205
928.267	12285
928.373	12825
928.479	12323
928.585	11980
928.69	12224
928.796	12270
928.901	12053
929.007	12011
929.112	12030
929.218	12034
929.323	12022
929.428	11973
929.533	12091
929.638	11847
929.743	11878
929.848	11992
929.953	11889
930.058	11836
930.163	11570
930.267	11623
930.372	11760
930.477	11604
930.581	11802
930.685	11661
930.79	11486
930.894	11562
930.998	11558
931.103	11611
931.207	11239
931.311	11277
931.415	11136
931.519	10953
931.623	10900
