Data from test_V78500241_812.txt Node
Date: Fri Mar 25 15:15:30 CST 2022
User: usil
Spectrometer: V785-0024
Trigger mode: 0
Integration Time (sec): 4.000000E-1
Scans to average: 1
Nonlinearity correction enabled: false
Boxcar width: 0
Storing dark spectrum: false
XAxis mode: Wavelengths
Number of Pixels in Spectrum: 1024
>>>>>Begin Spectral Data<<<<<
801.071	28219
801.214	28234
801.356	27972
801.499	27892
801.641	27865
801.783	27797
801.926	27987
802.068	27835
802.211	27728
802.353	27698
802.496	27500
802.638	27534
802.78	27477
802.923	27435
803.065	27374
803.208	27427
803.35	27485
803.492	27694
803.635	27637
803.777	27568
803.919	27694
804.061	27949
804.204	27884
804.346	27842
804.488	27686
804.63	27720
804.773	27694
804.915	27770
805.057	27831
805.199	27667
805.341	27709
805.483	27816
805.626	27926
805.768	27747
805.91	27907
806.052	27907
806.194	27747
806.336	28257
806.478	27819
806.62	27842
806.762	28067
806.904	28109
807.046	28531
807.188	28272
807.33	28124
807.472	28356
807.614	28188
807.756	28436
807.898	28139
808.04	28158
808.182	28177
808.324	28143
808.465	28150
808.607	28436
808.749	28565
808.891	28527
809.033	28755
809.174	28554
809.316	28649
809.458	28588
809.6	28470
809.741	28592
809.883	28763
810.025	28847
810.166	28790
810.308	28908
810.45	28824
810.591	28801
810.733	28668
810.875	28451
811.016	28554
811.158	28489
811.299	28577
811.441	28710
811.582	28622
811.724	28607
811.865	28580
812.007	28489
812.148	28573
812.29	28527
812.431	28847
812.573	28976
812.714	28987
812.855	28946
812.997	29189
813.138	29326
813.279	29315
813.421	29105
813.562	29098
813.703	28873
813.845	28793
813.986	28626
814.127	28329
814.268	28181
814.41	28249
814.551	28280
814.692	28257
814.833	28154
814.974	28242
815.115	28325
815.256	28128
815.397	28135
815.539	28128
815.68	28070
815.821	28074
815.962	28124
816.103	28051
816.244	27911
816.385	27972
816.526	27789
816.666	27599
816.807	27595
816.948	27557
817.089	27759
817.23	27663
817.371	27652
817.512	27587
817.653	27637
817.793	27618
817.934	27606
818.075	27511
818.216	27545
818.356	27500
818.497	27405
818.638	27317
818.778	27355
818.919	27283
819.06	27340
819.2	27549
819.341	27568
819.481	27545
819.622	27732
819.762	27819
819.903	27838
820.043	27793
820.184	27648
820.324	27679
820.465	27785
820.605	27762
820.746	27766
820.886	27568
821.026	27701
821.167	27564
821.307	27736
821.447	27603
821.588	27568
821.728	27519
821.868	27169
822.008	27074
822.149	27081
822.289	27093
822.429	26686
822.569	26575
822.709	26560
822.849	26621
822.99	26602
823.13	26495
823.27	26499
823.41	26358
823.55	26294
823.69	26507
823.83	26362
823.97	26259
824.11	26180
824.25	26229
824.389	26161
824.529	26317
824.669	26256
824.809	26305
824.949	26282
825.089	26267
825.228	26149
825.368	26142
825.508	26187
825.648	26145
825.787	26046
825.927	26195
826.067	26107
826.206	26054
826.346	26176
826.485	26161
826.625	26062
826.765	26229
826.904	26081
827.044	25879
827.183	25841
827.323	25795
827.462	25826
827.601	25982
827.741	25750
827.88	25871
828.02	25639
828.159	25795
828.298	25693
828.437	25890
828.577	25723
828.716	25947
828.855	25814
828.994	25655
829.134	25521
829.273	25548
829.412	25514
829.551	25506
829.69	25548
829.829	25525
829.968	25533
830.107	25487
830.246	25495
830.385	25343
830.524	25392
830.663	25445
830.802	25285
830.941	25038
831.08	25171
831.219	25221
831.357	25156
831.496	25365
831.635	25247
831.774	25065
831.913	25084
832.051	24981
832.19	24814
832.329	24829
832.467	24859
832.606	24734
832.744	24749
832.883	24890
833.022	24753
833.16	24715
833.299	24753
833.437	24760
833.576	24863
833.714	24856
833.852	24943
833.991	24951
834.129	24958
834.267	24875
834.406	24741
834.544	24958
834.682	24905
834.821	24791
834.959	24939
835.097	24688
835.235	24863
835.373	24730
835.511	24798
835.65	24757
835.788	24833
835.926	24646
836.064	24475
836.202	24445
836.34	24616
836.478	24669
836.615	24563
836.753	24802
836.891	24688
837.029	24806
837.167	24650
837.305	24490
837.443	24555
837.58	24486
837.718	24563
837.856	24661
837.993	24372
838.131	24422
838.269	24471
838.406	24486
838.544	24239
838.681	24152
838.819	24121
838.956	23973
839.094	23984
839.231	24136
839.369	24220
839.506	24369
839.643	24167
839.781	23912
839.918	23969
840.055	23923
840.193	24079
840.33	23893
840.467	23931
840.604	23889
840.742	24083
840.879	23733
841.016	23847
841.153	23718
841.29	23992
841.427	23878
841.564	24018
841.701	23786
841.838	23901
841.975	23764
842.112	23680
842.249	23718
842.385	23646
842.522	23828
842.659	23714
842.796	23699
842.933	23581
843.069	23638
843.206	23558
843.343	23623
843.479	23665
843.616	23707
843.752	23425
843.889	23410
844.025	23577
844.162	23406
844.298	23528
844.435	23387
844.571	23391
844.708	23414
844.844	23539
844.98	23520
845.117	23505
845.253	23425
845.389	23246
845.525	23337
845.661	23227
845.798	23075
845.934	23140
846.07	23140
846.206	23212
846.342	23193
846.478	23239
846.614	22942
846.75	22820
846.886	22862
847.022	22961
847.158	22812
847.294	22854
847.429	22946
847.565	22801
847.701	23033
847.837	22687
847.972	22645
848.108	22725
848.244	22668
848.379	22535
848.515	22538
848.65	22329
848.786	22402
848.921	22481
849.057	22653
849.192	22519
849.328	22466
849.463	22432
849.598	22348
849.734	22409
849.869	22310
850.004	22223
850.14	22135
850.275	22226
850.41	22147
850.545	22128
850.68	22048
850.815	22249
850.95	22150
851.085	22459
851.22	22421
851.355	22265
851.49	22211
851.625	22131
851.76	22158
851.895	22063
852.03	22234
852.165	22246
852.299	22310
852.434	22238
852.569	22185
852.703	22246
852.838	22215
852.973	22268
853.107	22363
853.242	22215
853.376	21972
853.511	21972
853.645	21994
853.78	22272
853.914	22128
854.048	22013
854.183	22067
854.317	22078
854.451	22185
854.585	22070
854.72	22029
854.854	22192
854.988	21907
855.122	22086
855.256	21934
855.39	21960
855.524	22116
855.658	22025
855.792	22010
855.926	21994
856.06	22120
856.194	22109
856.327	22055
856.461	21911
856.595	21987
856.729	22067
856.862	22139
856.996	22063
857.13	22074
857.263	22105
857.397	22082
857.53	21937
857.664	22082
857.797	22051
857.931	22059
858.064	22055
858.197	22147
858.331	22025
858.464	22036
858.597	21979
858.731	22078
858.864	22059
858.997	21998
859.13	22013
859.263	21975
859.396	22272
859.529	21953
859.662	21926
859.795	22051
859.928	22025
860.061	22265
860.194	22261
860.327	22051
860.46	22021
860.592	22109
860.725	22131
860.858	22246
860.99	22013
861.123	21968
861.256	21968
861.388	21972
861.521	22889
861.653	21899
861.786	21785
861.918	21781
862.05	21766
862.183	21983
862.315	21835
862.447	22048
862.58	21816
862.712	21793
862.844	21648
862.976	21865
863.108	21789
863.24	22109
863.372	21686
863.504	21663
863.636	21633
863.768	21720
863.9	21747
864.032	21671
864.164	21682
864.296	21743
864.428	21747
864.559	21766
864.691	21698
864.823	21797
864.954	21713
865.086	21713
865.217	21682
865.349	21553
865.48	21587
865.612	21507
865.743	21831
865.875	21507
866.006	21523
866.137	21637
866.269	21545
866.4	21542
866.531	21610
866.662	21549
866.793	21473
866.924	21515
867.055	21504
867.186	21603
867.317	21526
867.448	21496
867.579	21469
867.71	21424
867.841	21393
867.972	21599
868.103	21561
868.233	21542
868.364	21572
868.495	21523
868.625	21785
868.756	21964
868.886	21747
869.017	21762
869.147	21842
869.278	22017
869.408	21869
869.539	21766
869.669	21861
869.799	21854
869.929	21953
870.06	21934
870.19	22036
870.32	22029
870.45	22116
870.58	22207
870.71	22166
870.84	22363
870.97	22105
871.1	22211
871.23	22329
871.36	22500
871.489	22196
871.619	22299
871.749	22382
871.879	22451
872.008	22455
872.138	22337
872.267	22451
872.397	22291
872.526	22268
872.656	22128
872.785	22185
872.915	22409
873.044	22485
873.173	22474
873.303	22519
873.432	22462
873.561	22557
873.69	22443
873.819	22333
873.948	22561
874.077	22367
874.206	22371
874.335	22424
874.464	22500
874.593	22542
874.722	22542
874.851	22592
874.979	22618
875.108	22713
875.237	22637
875.365	22512
875.494	22531
875.623	22710
875.751	22542
875.88	22653
876.008	22683
876.136	22877
876.265	22942
876.393	23140
876.521	22991
876.65	22965
876.778	22957
876.906	23025
877.034	22934
877.162	22915
877.29	22835
877.418	22953
877.546	22930
877.674	22831
877.802	22965
877.93	22839
878.058	22782
878.185	22934
878.313	22923
878.441	23014
878.568	22774
878.696	22854
878.824	22858
878.951	22991
879.079	23155
879.206	23121
879.333	23197
879.461	22919
879.588	22889
879.715	23208
879.842	23159
879.97	22965
880.097	22774
880.224	22748
880.351	22930
880.478	22786
880.605	22634
880.732	22801
880.859	22927
880.986	22786
881.112	22710
881.239	22702
881.366	22523
881.493	22367
881.619	22394
881.746	22432
881.872	22519
881.999	22204
882.125	22173
882.252	22489
882.378	22318
882.505	22398
882.631	22192
882.757	22128
882.883	21918
883.01	22048
883.136	22032
883.262	21922
883.388	21865
883.514	22040
883.64	22017
883.766	21899
883.892	21705
884.018	21823
884.143	21895
884.269	22074
884.395	21728
884.52	21625
884.646	21785
884.772	21564
884.897	21549
885.023	21583
885.148	21827
885.274	21850
885.399	21724
885.524	21732
885.65	21705
885.775	21625
885.9	21682
886.025	21599
886.15	21747
886.275	21679
886.4	21545
886.525	21572
886.65	21580
886.775	21492
886.9	21629
887.025	21895
887.149	21595
887.274	21481
887.399	21359
887.523	21416
887.648	21332
887.773	21355
887.897	21515
888.021	21549
888.146	21378
888.27	21496
888.395	21504
888.519	21386
888.643	21344
888.767	21526
888.891	21294
889.015	21195
889.139	21405
889.263	21146
889.387	21401
889.511	21428
889.635	21397
889.759	21313
889.883	21173
890.006	21249
890.13	21298
890.254	21123
890.377	21218
890.501	20956
890.624	20956
890.748	21039
890.871	20891
890.995	20830
891.118	20693
891.241	20758
891.364	20769
891.488	20678
891.611	20769
891.734	20746
891.857	20720
891.98	20868
892.103	20594
892.226	20769
892.349	20587
892.471	20609
892.594	20686
892.717	20739
892.839	20663
892.962	20792
893.085	20845
893.207	20640
893.33	20537
893.452	20564
893.575	20689
893.697	20727
893.819	20826
893.941	20975
894.064	20769
894.186	20746
894.308	20590
894.43	20815
894.552	20849
894.674	20705
894.796	20583
894.918	20777
895.04	20571
895.161	20682
895.283	20594
895.405	20461
895.526	20503
895.648	20701
895.769	20625
895.891	20758
896.012	20670
896.134	20621
896.255	20625
896.376	20693
896.498	20613
896.619	20621
896.74	20670
896.861	20773
896.982	21043
897.103	21142
897.224	20914
897.345	20872
897.466	20857
897.587	20834
897.708	21058
897.828	20963
897.949	20804
898.07	20613
898.19	20883
898.311	20902
898.431	20762
898.552	20845
898.672	21001
898.792	20891
898.913	20868
899.033	20765
899.153	20712
899.273	20488
899.393	20727
899.513	20526
899.633	20598
899.753	20659
899.873	20571
899.993	20590
900.113	20492
900.232	20514
900.352	20503
900.472	20461
900.591	20351
900.711	20313
900.83	20168
900.95	20434
901.069	20454
901.189	20320
901.308	20012
901.427	19963
901.546	19909
901.665	19898
901.784	19932
901.904	19693
902.023	19776
902.141	19620
902.26	19434
902.379	19571
902.498	19441
902.617	19335
902.735	19506
902.854	19381
902.973	19327
903.091	19168
903.21	19053
903.328	19152
903.446	19156
903.565	18897
903.683	18882
903.801	18840
903.919	18776
904.038	18886
904.156	18681
904.274	18753
904.392	18764
904.51	18639
904.627	18715
904.745	18779
904.863	18711
904.981	18380
905.098	18330
905.216	18361
905.334	18334
905.451	18315
905.569	18327
905.686	18350
905.803	18266
905.921	18171
906.038	18220
906.155	18148
906.272	18015
906.389	18079
906.506	17946
906.623	17939
906.74	17958
906.857	17790
906.974	17802
907.091	17927
907.208	18079
907.324	17942
907.441	17676
907.557	17672
907.674	17630
907.79	17524
907.907	17577
908.023	17668
908.139	17604
908.256	17486
908.372	17459
908.488	17387
908.604	17349
908.72	17299
908.836	17360
908.952	17391
909.068	17334
909.184	17524
909.3	17296
909.415	17296
909.531	17223
909.647	17132
909.762	17128
909.878	17006
909.993	17083
910.108	16919
910.224	16949
910.339	16900
910.454	16850
910.57	16771
910.685	16812
910.8	17022
910.915	16915
911.03	16790
911.145	16641
911.259	16573
911.374	16561
911.489	16523
911.604	16542
911.718	16310
911.833	16409
911.947	16200
912.062	16131
912.176	16246
912.291	16268
912.405	16409
912.519	16436
912.633	16573
912.748	16291
912.862	16291
912.976	16048
913.09	16036
913.204	16109
913.318	16230
913.431	16219
913.545	16234
913.659	16249
913.772	16166
913.886	15953
914	15964
914.113	15983
914.226	16143
914.34	15994
914.453	15888
914.566	15979
914.68	15895
914.793	15835
914.906	15618
915.019	15568
915.132	15557
915.245	15504
915.358	15572
915.47	15526
915.583	15534
915.696	15462
915.809	15690
915.921	15667
916.034	15557
916.146	15374
916.259	15382
916.371	15454
916.483	15458
916.595	15370
916.708	15401
916.82	15374
916.932	15287
917.044	15260
917.156	15264
917.268	15074
917.38	15154
917.491	15165
917.603	15131
917.715	15340
917.826	15226
917.938	15036
918.049	14990
918.161	15142
918.272	15154
918.384	15127
918.495	15100
918.606	14967
918.717	14834
918.828	14815
918.939	14971
919.05	14800
919.161	14845
919.272	14686
919.383	14754
919.494	14921
919.604	15062
919.715	14906
919.826	14708
919.936	14823
920.047	14864
920.157	14975
920.267	15032
920.378	14914
920.488	14826
920.598	15081
920.708	15108
920.818	14902
920.928	15001
921.038	15207
921.148	15135
921.258	14834
921.368	14667
921.477	14708
921.587	14575
921.697	14438
921.806	14537
921.916	14488
922.025	14282
922.134	14214
922.244	14191
922.353	14317
922.462	14107
922.571	14039
922.68	13917
922.789	13875
922.898	13830
923.007	13890
923.116	13871
923.224	13788
923.333	13906
923.442	13696
923.55	13655
923.659	13731
923.767	13757
923.876	13613
923.984	13750
924.092	13480
924.201	13651
924.309	13548
924.417	13575
924.525	13556
924.633	13521
924.741	14259
924.849	13327
924.956	13540
925.064	13373
925.172	13270
925.279	13304
925.387	13278
925.494	13301
925.602	13301
925.709	13255
925.816	13126
925.924	13179
926.031	13331
926.138	13202
926.245	13225
926.352	13114
926.459	13297
926.566	13270
926.673	13141
926.779	13034
926.886	12966
926.993	12871
927.099	12829
927.206	12783
927.312	12768
927.419	12890
927.525	12837
927.631	12878
927.737	12749
927.843	12616
927.95	12563
928.056	12616
928.162	12604
928.267	12760
928.373	13403
928.479	12719
928.585	12483
928.69	12631
928.796	12669
928.901	12479
929.007	12376
929.112	12574
929.218	12445
929.323	12334
929.428	12395
929.533	12456
929.638	12273
929.743	12292
929.848	12353
929.953	12285
930.058	12167
930.163	11973
930.267	12152
930.372	12167
930.477	12026
930.581	12205
930.685	12015
930.79	11942
930.894	11923
930.998	11942
931.103	11939
931.207	11657
931.311	11566
931.415	11547
931.519	11376
931.623	11231
