Data from test_V78500241_3311.txt Node
Date: Fri Mar 25 15:32:55 CST 2022
User: usil
Spectrometer: V785-0024
Trigger mode: 0
Integration Time (sec): 4.000000E-1
Scans to average: 1
Nonlinearity correction enabled: false
Boxcar width: 0
Storing dark spectrum: false
XAxis mode: Wavelengths
Number of Pixels in Spectrum: 1024
>>>>>Begin Spectral Data<<<<<
801.071	27317
801.214	27176
801.356	27135
801.499	26921
801.641	26739
801.783	26826
801.926	26777
802.068	26788
802.211	26708
802.353	26644
802.496	26457
802.638	26412
802.78	26442
802.923	26400
803.065	26309
803.208	26332
803.35	26393
803.492	26617
803.635	26613
803.777	26552
803.919	26731
804.061	26948
804.204	26556
804.346	26537
804.488	26594
804.63	26522
804.773	26385
804.915	26659
805.057	26667
805.199	26571
805.341	26659
805.483	26674
805.626	26838
805.768	26708
805.91	26834
806.052	26689
806.194	26674
806.336	26823
806.478	26746
806.62	26727
806.762	26785
806.904	26899
807.046	27096
807.188	27150
807.33	27066
807.472	27199
807.614	27127
807.756	26967
807.898	26963
808.04	26811
808.182	26914
808.324	26849
808.465	27020
808.607	27119
808.749	27184
808.891	27321
809.033	27511
809.174	27363
809.316	27287
809.458	27298
809.6	27176
809.741	27348
809.883	27405
810.025	27538
810.166	27603
810.308	27507
810.45	27485
810.591	27378
810.733	27317
810.875	27237
811.016	27195
811.158	27138
811.299	27344
811.441	27427
811.582	27336
811.724	27359
811.865	27264
812.007	27287
812.148	27207
812.29	27249
812.431	27504
812.573	27492
812.714	27675
812.855	27603
812.997	27766
813.138	27964
813.279	28150
813.421	27785
813.562	27804
813.703	27561
813.845	27332
813.986	27226
814.127	27032
814.268	27074
814.41	27077
814.551	26857
814.692	27100
814.833	26811
814.974	27020
815.115	27043
815.256	26899
815.397	26705
815.539	26765
815.68	26583
815.821	26522
815.962	26857
816.103	26804
816.244	26541
816.385	26518
816.526	26400
816.666	26134
816.807	26271
816.948	26301
817.089	26248
817.23	26298
817.371	26244
817.512	26214
817.653	26153
817.793	26233
817.934	26286
818.075	26214
818.216	26267
818.356	26195
818.497	26050
818.638	25864
818.778	26008
818.919	26035
819.06	25932
819.2	26096
819.341	26248
819.481	26130
819.622	26400
819.762	26541
819.903	26530
820.043	26431
820.184	26313
820.324	26320
820.465	26309
820.605	26290
820.746	26244
820.886	26206
821.026	26286
821.167	26267
821.307	26393
821.447	26161
821.588	26103
821.728	26020
821.868	25894
822.008	25731
822.149	25681
822.289	25704
822.429	25354
822.569	25415
822.709	25384
822.849	25244
822.99	25114
823.13	25072
823.27	25152
823.41	24951
823.55	24871
823.69	24966
823.83	25057
823.97	24985
824.11	24749
824.25	24817
824.389	24821
824.529	24924
824.669	24787
824.809	24935
824.949	24783
825.089	24928
825.228	24840
825.368	24646
825.508	24688
825.648	24692
825.787	24722
825.927	24825
826.067	24650
826.206	24707
826.346	24738
826.485	24768
826.625	24745
826.765	24859
826.904	24783
827.044	24391
827.183	24441
827.323	24414
827.462	24448
827.601	24505
827.741	24361
827.88	24395
828.02	24239
828.159	24372
828.298	24479
828.437	24494
828.577	24361
828.716	24601
828.855	24289
828.994	24121
829.134	24197
829.273	24201
829.412	24026
829.551	24060
829.69	24144
829.829	24060
829.968	24285
830.107	24136
830.246	24098
830.385	24114
830.524	23920
830.663	23984
830.802	23817
830.941	23566
831.08	23733
831.219	23859
831.357	23783
831.496	23996
831.635	23661
831.774	23486
831.913	23623
832.051	23627
832.19	23490
832.329	23516
832.467	23486
832.606	23269
832.744	23436
832.883	23364
833.022	23330
833.16	23372
833.299	23395
833.437	23406
833.576	23395
833.714	23383
833.852	23478
833.991	23471
834.129	23391
834.267	23611
834.406	23440
834.544	23490
834.682	23566
834.821	23467
834.959	23665
835.097	23326
835.235	23505
835.373	23455
835.511	23509
835.65	23322
835.788	23444
835.926	23204
836.064	23079
836.202	23166
836.34	23337
836.478	23440
836.615	23383
836.753	23372
836.891	23444
837.029	23391
837.167	23280
837.305	23174
837.443	23296
837.58	23227
837.718	23246
837.856	23208
837.993	23083
838.131	23197
838.269	23044
838.406	23109
838.544	23090
838.681	22805
838.819	22683
838.956	22706
839.094	22599
839.231	22691
839.369	22793
839.506	23132
839.643	22847
839.781	22664
839.918	22637
840.055	22717
840.193	22618
840.33	22508
840.467	22611
840.604	22683
840.742	22786
840.879	22459
841.016	22588
841.153	22443
841.29	22596
841.427	22649
841.564	22546
841.701	22634
841.838	22516
841.975	22413
842.112	22554
842.249	22424
842.385	22417
842.522	22698
842.659	22390
842.796	22394
842.933	22303
843.069	22280
843.206	22329
843.343	22352
843.479	22261
843.616	22352
843.752	22055
843.889	22147
844.025	22303
844.162	22154
844.298	22120
844.435	22006
844.571	22055
844.708	22223
844.844	22287
844.98	22272
845.117	22154
845.253	22101
845.389	21922
845.525	22067
845.661	21991
845.798	21785
845.934	21888
846.07	21793
846.206	21816
846.342	21953
846.478	21865
846.614	21671
846.75	21462
846.886	21496
847.022	21675
847.158	21534
847.294	21652
847.429	21603
847.565	21629
847.701	21876
847.837	21408
847.972	21291
848.108	21370
848.244	21351
848.379	21157
848.515	21055
848.65	21230
848.786	21173
848.921	21184
849.057	21283
849.192	21222
849.328	21237
849.463	21218
849.598	21184
849.734	21017
849.869	21184
850.004	20937
850.14	20986
850.275	20948
850.41	20982
850.545	20975
850.68	21017
850.815	20979
850.95	20834
851.085	21207
851.22	21055
851.355	20967
851.49	20880
851.625	20899
851.76	20807
851.895	20918
852.03	20849
852.165	21017
852.299	21005
852.434	20998
852.569	21017
852.703	20853
852.838	20986
852.973	21043
853.107	21093
853.242	20895
853.376	20937
853.511	20613
853.645	20708
853.78	20929
853.914	20838
854.048	20682
854.183	20750
854.317	20857
854.451	20902
854.585	20864
854.72	20750
854.854	20868
854.988	20727
855.122	20815
855.256	20724
855.39	20777
855.524	20952
855.658	20876
855.792	20743
855.926	20777
856.06	20830
856.194	20845
856.327	20853
856.461	20701
856.595	20788
856.729	20769
856.862	20815
856.996	20785
857.13	20887
857.263	20906
857.397	20788
857.53	20769
857.664	20762
857.797	20849
857.931	20838
858.064	20868
858.197	20880
858.331	20765
858.464	20716
858.597	20727
858.731	20613
858.864	20773
858.997	20716
859.13	20815
859.263	20765
859.396	20792
859.529	20712
859.662	20716
859.795	20754
859.928	20720
860.061	20925
860.194	20990
860.327	20849
860.46	20701
860.592	20910
860.725	20876
860.858	20819
860.99	20815
861.123	20762
861.256	20689
861.388	20785
861.521	21233
861.653	20705
861.786	20609
861.918	20670
862.05	20602
862.183	20689
862.315	20682
862.447	20689
862.58	20682
862.712	20442
862.844	20476
862.976	20651
863.108	20442
863.24	20956
863.372	20450
863.504	20571
863.636	20492
863.768	20484
863.9	20469
864.032	20473
864.164	20522
864.296	20514
864.428	20533
864.559	20651
864.691	20632
864.823	20537
864.954	20450
865.086	20492
865.217	20423
865.349	20271
865.48	20492
865.612	20355
865.743	20480
865.875	20526
866.006	20252
866.137	20480
866.269	20347
866.4	20461
866.531	20381
866.662	20351
866.793	20275
866.924	20351
867.055	20374
867.186	20404
867.317	20290
867.448	20259
867.579	20244
867.71	20305
867.841	20248
867.972	20309
868.103	20366
868.233	20336
868.364	20412
868.495	20499
868.625	20587
868.756	20674
868.886	20469
869.017	20503
869.147	20613
869.278	20674
869.408	20609
869.539	20674
869.669	20648
869.799	20659
869.929	20705
870.06	20769
870.19	20842
870.32	20998
870.45	21062
870.58	20960
870.71	21039
870.84	21150
870.97	20868
871.1	21009
871.23	21245
871.36	21192
871.489	21169
871.619	21161
871.749	21123
871.879	21245
872.008	21252
872.138	21310
872.267	21138
872.397	20971
872.526	21017
872.656	21085
872.785	21051
872.915	21260
873.044	21298
873.173	21161
873.303	21180
873.432	21256
873.561	21313
873.69	21272
873.819	21146
873.948	21321
874.077	21176
874.206	21138
874.335	21169
874.464	21367
874.593	21530
874.722	21397
874.851	21511
874.979	21538
875.108	21435
875.237	21488
875.365	21374
875.494	21462
875.623	21583
875.751	21439
875.88	21557
876.008	21660
876.136	21686
876.265	21835
876.393	21960
876.521	21808
876.65	21998
876.778	21880
876.906	21755
877.034	21804
877.162	21812
877.29	21808
877.418	21781
877.546	21690
877.674	21701
877.802	21823
877.93	21751
878.058	21747
878.185	21797
878.313	21759
878.441	21842
878.568	21682
878.696	21819
878.824	21823
878.951	21884
879.079	22048
879.206	22010
879.333	22093
879.461	21968
879.588	21945
879.715	21857
879.842	21991
879.97	21842
880.097	21625
880.224	21599
880.351	21679
880.478	21682
880.605	21618
880.732	21660
880.859	21911
880.986	21595
881.112	21686
881.239	21447
881.366	21462
881.493	21260
881.619	21306
881.746	21207
881.872	21173
881.999	21218
882.125	21184
882.252	21211
882.378	21207
882.505	21355
882.631	21051
882.757	20921
882.883	20975
883.01	20902
883.136	20792
883.262	20838
883.388	20804
883.514	20956
883.64	20937
883.766	20842
883.892	20796
884.018	20823
884.143	20937
884.269	20921
884.395	20644
884.52	20484
884.646	20686
884.772	20355
884.897	20556
885.023	20583
885.148	20746
885.274	20621
885.399	20708
885.524	20609
885.65	20598
885.775	20560
885.9	20560
886.025	20571
886.15	20640
886.275	20552
886.4	20495
886.525	20495
886.65	20457
886.775	20537
886.9	20670
887.025	20830
887.149	20587
887.274	20320
887.399	20259
887.523	20389
887.648	20286
887.773	20244
887.897	20431
888.021	20423
888.146	20218
888.27	20351
888.395	20408
888.519	20305
888.643	20271
888.767	20370
888.891	20202
889.015	20046
889.139	20176
889.263	20130
889.387	20233
889.511	20370
889.635	20248
889.759	20164
889.883	20100
890.006	20176
890.13	20206
890.254	20092
890.377	20058
890.501	19993
890.624	19856
890.748	19963
890.871	19689
890.995	19761
891.118	19613
891.241	19677
891.364	19814
891.488	19791
891.611	19803
891.734	19666
891.857	19757
891.98	19704
892.103	19738
892.226	19746
892.349	19578
892.471	19639
892.594	19681
892.717	19689
892.839	19559
892.962	19582
893.085	19696
893.207	19632
893.33	19620
893.452	19582
893.575	19670
893.697	19632
893.819	19849
893.941	19902
894.064	19776
894.186	19651
894.308	19624
894.43	19757
894.552	19708
894.674	19693
894.796	19655
894.918	19609
895.04	19662
895.161	19856
895.283	19674
895.405	19643
895.526	19567
895.648	19594
895.769	19620
895.891	19685
896.012	19719
896.134	19689
896.255	19609
896.376	19605
896.498	19620
896.619	19662
896.74	19605
896.861	19791
896.982	20024
897.103	20237
897.224	19894
897.345	19849
897.466	19791
897.587	19841
897.708	19974
897.828	19982
897.949	19833
898.07	19666
898.19	19780
898.311	19978
898.431	19723
898.552	19841
898.672	19970
898.792	19925
898.913	19868
899.033	19814
899.153	19616
899.273	19571
899.393	19624
899.513	19620
899.633	19601
899.753	19731
899.873	19620
899.993	19639
900.113	19586
900.232	19605
900.352	19559
900.472	19453
900.591	19365
900.711	19403
900.83	19354
900.95	19510
901.069	19506
901.189	19301
901.308	19027
901.427	18985
901.546	18951
901.665	19046
901.784	18890
901.904	18977
902.023	18654
902.141	18563
902.26	18631
902.379	18585
902.498	18422
902.617	18471
902.735	18589
902.854	18467
902.973	18464
903.091	18270
903.21	18190
903.328	18235
903.446	18083
903.565	18045
903.683	18057
903.801	17939
903.919	18030
904.038	17836
904.156	17760
904.274	17889
904.392	17699
904.51	17634
904.627	17767
904.745	17722
904.863	17809
904.981	17596
905.098	17402
905.216	17543
905.334	17391
905.451	17444
905.569	17433
905.686	17433
905.803	17425
905.921	17258
906.038	17379
906.155	17273
906.272	17132
906.389	17212
906.506	17010
906.623	16965
906.74	16930
906.857	16843
906.974	16953
907.091	16976
907.208	16995
907.324	17041
907.441	16843
907.557	16805
907.674	16820
907.79	16622
907.907	16694
908.023	16683
908.139	16683
908.256	16694
908.372	16607
908.488	16538
908.604	16554
908.72	16409
908.836	16409
908.952	16284
909.068	16470
909.184	16504
909.3	16322
909.415	16428
909.531	16447
909.647	16162
909.762	16173
909.878	16158
909.993	16112
910.108	16124
910.224	16090
910.339	16150
910.454	16063
910.57	15922
910.685	15911
910.8	16162
910.915	16063
911.03	15956
911.145	15823
911.259	15720
911.374	15778
911.489	15686
911.604	15698
911.718	15511
911.833	15473
911.947	15382
912.062	15351
912.176	15469
912.291	15477
912.405	15564
912.519	15717
912.633	15599
912.748	15492
912.862	15507
912.976	15359
913.09	15169
913.204	15313
913.318	15355
913.431	15488
913.545	15393
913.659	15431
913.772	15363
913.886	15176
914	15184
914.113	15230
914.226	15184
914.34	15287
914.453	15017
914.566	15108
914.68	15066
914.793	14975
914.906	14895
915.019	14705
915.132	14674
915.245	14727
915.358	14777
915.47	14731
915.583	14743
915.696	14788
915.809	14880
915.921	14883
916.034	14792
916.146	14682
916.259	14629
916.371	14746
916.483	14701
916.595	14499
916.708	14541
916.82	14621
916.932	14533
917.044	14549
917.156	14480
917.268	14408
917.38	14419
917.491	14400
917.603	14400
917.715	14571
917.826	14465
917.938	14389
918.049	14286
918.161	14404
918.272	14579
918.384	14507
918.495	14294
918.606	14317
918.717	14107
918.828	14218
918.939	14142
919.05	14092
919.161	14130
919.272	13841
919.383	14027
919.494	14210
919.604	14400
919.715	14168
919.826	14054
919.936	14145
920.047	14183
920.157	14153
920.267	14396
920.378	14039
920.488	14050
920.598	14237
920.708	14419
920.818	14256
920.928	14313
921.038	14415
921.148	14358
921.258	14119
921.368	13986
921.477	13826
921.587	13772
921.697	13689
921.806	13868
921.916	13727
922.025	13647
922.134	13567
922.244	13518
922.353	13582
922.462	13373
922.571	13377
922.68	13179
922.789	13221
922.898	13156
923.007	13126
923.116	13190
923.224	13137
923.333	13057
923.442	13038
923.55	13046
923.659	13042
923.767	13126
923.876	12844
923.984	13012
924.092	12928
924.201	12947
924.309	13019
924.417	12859
924.525	12810
924.633	12806
924.741	13746
924.849	12608
924.956	12730
925.064	12700
925.172	12517
925.279	12646
925.387	12627
925.494	12696
925.602	12719
925.709	12677
925.816	12391
925.924	12585
926.031	12673
926.138	12597
926.245	12654
926.352	12407
926.459	12665
926.566	12642
926.673	12513
926.779	12380
926.886	12315
926.993	12232
927.099	12194
927.206	12273
927.312	12102
927.419	12292
927.525	12190
927.631	12186
927.737	12110
927.843	12083
927.95	11923
928.056	11965
928.162	11992
928.267	12026
928.373	12593
928.479	12060
928.585	11863
928.69	11980
928.796	11996
928.901	11923
929.007	11885
929.112	11904
929.218	11821
929.323	11786
929.428	11828
929.533	11805
929.638	11684
929.743	11691
929.848	11745
929.953	11707
930.058	11592
930.163	11398
930.267	11410
930.372	11528
930.477	11360
930.581	11604
930.685	11524
930.79	11356
930.894	11356
930.998	11284
931.103	11490
931.207	10987
931.311	11029
931.415	10953
931.519	10782
931.623	10645
