Data from test_V78500241_3029.txt Node
Date: Fri Mar 25 15:30:57 CST 2022
User: usil
Spectrometer: V785-0024
Trigger mode: 0
Integration Time (sec): 4.000000E-1
Scans to average: 1
Nonlinearity correction enabled: false
Boxcar width: 0
Storing dark spectrum: false
XAxis mode: Wavelengths
Number of Pixels in Spectrum: 1024
>>>>>Begin Spectral Data<<<<<
801.071	27275
801.214	27241
801.356	27047
801.499	26952
801.641	26746
801.783	26769
801.926	26815
802.068	26804
802.211	26765
802.353	26629
802.496	26514
802.638	26434
802.78	26366
802.923	26290
803.065	26244
803.208	26400
803.35	26286
803.492	26541
803.635	26613
803.777	26431
803.919	26590
804.061	26887
804.204	26568
804.346	26461
804.488	26396
804.63	26431
804.773	26431
804.915	26571
805.057	26549
805.199	26453
805.341	26625
805.483	26762
805.626	26724
805.768	26457
805.91	26796
806.052	26785
806.194	26552
806.336	26781
806.478	26613
806.62	26579
806.762	26701
806.904	26902
807.046	27096
807.188	27074
807.33	27039
807.472	27173
807.614	26781
807.756	26925
807.898	26902
808.04	26811
808.182	26773
808.324	26918
808.465	26918
808.607	27093
808.749	27237
808.891	27321
809.033	27336
809.174	27272
809.316	27237
809.458	27435
809.6	27268
809.741	27344
809.883	27260
810.025	27435
810.166	27431
810.308	27473
810.45	27511
810.591	27416
810.733	27275
810.875	27348
811.016	27135
811.158	27066
811.299	27310
811.441	27329
811.582	27329
811.724	27329
811.865	27252
812.007	27127
812.148	27275
812.29	27264
812.431	27348
812.573	27549
812.714	27564
812.855	27682
812.997	27895
813.138	27918
813.279	27804
813.421	27641
813.562	27778
813.703	27492
813.845	27389
813.986	27161
814.127	26940
814.268	26914
814.41	26849
814.551	26815
814.692	27039
814.833	26914
814.974	26773
815.115	26921
815.256	26735
815.397	26781
815.539	26674
815.68	26667
815.821	26556
815.962	26644
816.103	26682
816.244	26423
816.385	26450
816.526	26324
816.666	26237
816.807	26054
816.948	26259
817.089	26206
817.23	26084
817.371	26073
817.512	26012
817.653	26073
817.793	26008
817.934	26126
818.075	26214
818.216	26081
818.356	26161
818.497	26027
818.638	25742
818.778	25909
818.919	26043
819.06	25978
819.2	26054
819.341	26126
819.481	26050
819.622	26202
819.762	26434
819.903	26328
820.043	26328
820.184	26278
820.324	26180
820.465	26244
820.605	26339
820.746	26199
820.886	26115
821.026	26115
821.167	26313
821.307	26355
821.447	26111
821.588	26001
821.728	25890
821.868	25830
822.008	25540
822.149	25563
822.289	25662
822.429	25190
822.569	25297
822.709	25339
822.849	25103
822.99	25118
823.13	25046
823.27	25217
823.41	24924
823.55	24806
823.69	25046
823.83	24897
823.97	24772
824.11	24734
824.25	24738
824.389	24741
824.529	24905
824.669	24669
824.809	24783
824.949	24684
825.089	24753
825.228	24787
825.368	24540
825.508	24570
825.648	24570
825.787	24677
825.927	24681
826.067	24601
826.206	24574
826.346	24627
826.485	24661
826.625	24486
826.765	24692
826.904	24673
827.044	24315
827.183	24353
827.323	24235
827.462	24372
827.601	24266
827.741	24262
827.88	24243
828.02	24163
828.159	24159
828.298	24289
828.437	24186
828.577	24186
828.716	24285
828.855	24346
828.994	24057
829.134	23946
829.273	24011
829.412	23992
829.551	23908
829.69	23996
829.829	23931
829.968	24034
830.107	24076
830.246	23920
830.385	23908
830.524	23958
830.663	23745
830.802	23627
830.941	23726
831.08	23577
831.219	23581
831.357	23657
831.496	23805
831.635	23577
831.774	23444
831.913	23490
832.051	23471
832.19	23417
832.329	23273
832.467	23303
832.606	23181
832.744	23143
832.883	23216
833.022	23242
833.16	23265
833.299	23269
833.437	23349
833.576	23303
833.714	23322
833.852	23410
833.991	23531
834.129	23535
834.267	23364
834.406	23242
834.544	23334
834.682	23376
834.821	23391
834.959	23482
835.097	23288
835.235	23383
835.373	23364
835.511	23353
835.65	23102
835.788	23235
835.926	22908
836.064	22919
836.202	23189
836.34	23273
836.478	23311
836.615	23269
836.753	23204
836.891	23185
837.029	23056
837.167	23014
837.305	23075
837.443	22980
837.58	22949
837.718	22991
837.856	23029
837.993	23018
838.131	23079
838.269	22915
838.406	22991
838.544	22755
838.681	22691
838.819	22710
838.956	22569
839.094	22527
839.231	22508
839.369	22771
839.506	22862
839.643	22744
839.781	22512
839.918	22462
840.055	22497
840.193	22421
840.33	22405
840.467	22466
840.604	22588
840.742	22744
840.879	22367
841.016	22398
841.153	22211
841.29	22569
841.427	22413
841.564	22485
841.701	22390
841.838	22459
841.975	22246
842.112	22360
842.249	22234
842.385	22188
842.522	22554
842.659	22276
842.796	22196
842.933	22124
843.069	22101
843.206	22093
843.343	22284
843.479	22169
843.616	22200
843.752	22006
843.889	22029
844.025	22158
844.162	21937
844.298	22082
844.435	21911
844.571	21888
844.708	21987
844.844	22188
844.98	22044
845.117	22029
845.253	21812
845.389	21903
845.525	21816
845.661	21690
845.798	21557
845.934	21720
846.07	21739
846.206	21812
846.342	21869
846.478	21698
846.614	21473
846.75	21481
846.886	21435
847.022	21538
847.158	21435
847.294	21412
847.429	21428
847.565	21325
847.701	21500
847.837	21112
847.972	21108
848.108	21291
848.244	21169
848.379	21081
848.515	21036
848.65	20994
848.786	20986
848.921	21039
849.057	21142
849.192	21093
849.328	21058
849.463	20937
849.598	21077
849.734	20914
849.869	20781
850.004	20750
850.14	20765
850.275	20781
850.41	20720
850.545	20724
850.68	20750
850.815	20883
850.95	20670
851.085	20929
851.22	20838
851.355	20750
851.49	20621
851.625	20823
851.76	20792
851.895	20693
852.03	20682
852.165	20807
852.299	20823
852.434	20918
852.569	20781
852.703	20739
852.838	20785
852.973	20971
853.107	20739
853.242	20689
853.376	20640
853.511	20450
853.645	20473
853.78	20754
853.914	20640
854.048	20571
854.183	20674
854.317	20762
854.451	20731
854.585	20659
854.72	20606
854.854	20663
854.988	20530
855.122	20648
855.256	20393
855.39	20552
855.524	20609
855.658	20617
855.792	20636
855.926	20674
856.06	20575
856.194	20667
856.327	20564
856.461	20518
856.595	20552
856.729	20537
856.862	20712
856.996	20644
857.13	20579
857.263	20701
857.397	20648
857.53	20697
857.664	20693
857.797	20705
857.931	20754
858.064	20617
858.197	20678
858.331	20621
858.464	20590
858.597	20495
858.731	20492
858.864	20476
858.997	20552
859.13	20644
859.263	20663
859.396	20651
859.529	20617
859.662	20625
859.795	20511
859.928	20606
860.061	20762
860.194	20834
860.327	20670
860.46	20625
860.592	20739
860.725	20746
860.858	20674
860.99	20621
861.123	20473
861.256	20564
861.388	20568
861.521	21142
861.653	20374
861.786	20404
861.918	20492
862.05	20526
862.183	20511
862.315	20518
862.447	20560
862.58	20530
862.712	20355
862.844	20237
862.976	20366
863.108	20358
863.24	20876
863.372	20317
863.504	20317
863.636	20358
863.768	20499
863.9	20294
864.032	20218
864.164	20180
864.296	20290
864.428	20381
864.559	20446
864.691	20404
864.823	20332
864.954	20366
865.086	20298
865.217	20301
865.349	20134
865.48	20256
865.612	20320
865.743	20347
865.875	20252
866.006	20225
866.137	20210
866.269	20252
866.4	20180
866.531	20122
866.662	20149
866.793	20054
866.924	20149
867.055	20229
867.186	20206
867.317	20088
867.448	20134
867.579	20046
867.71	20115
867.841	20062
867.972	20164
868.103	20153
868.233	20187
868.364	20218
868.495	20313
868.625	20412
868.756	20507
868.886	20278
869.017	20442
869.147	20629
869.278	20590
869.408	20343
869.539	20469
869.669	20419
869.799	20526
869.929	20541
870.06	20450
870.19	20746
870.32	20731
870.45	20720
870.58	20678
870.71	20948
870.84	20906
870.97	20731
871.1	20769
871.23	20876
871.36	21032
871.489	20838
871.619	21005
871.749	21085
871.879	20979
872.008	21108
872.138	21100
872.267	21005
872.397	20921
872.526	20910
872.656	20887
872.785	20819
872.915	21135
873.044	21043
873.173	21207
873.303	21077
873.432	21123
873.561	21249
873.69	20975
873.819	21013
873.948	21150
874.077	21047
874.206	21005
874.335	21013
874.464	21127
874.593	21294
874.722	21214
874.851	21310
874.979	21435
875.108	21329
875.237	21222
875.365	21169
875.494	21211
875.623	21249
875.751	21230
875.88	21310
876.008	21462
876.136	21507
876.265	21641
876.393	21747
876.521	21793
876.65	21747
876.778	21583
876.906	21667
877.034	21572
877.162	21641
877.29	21538
877.418	21663
877.546	21572
877.674	21542
877.802	21610
877.93	21488
878.058	21500
878.185	21542
878.313	21663
878.441	21603
878.568	21405
878.696	21477
878.824	21743
878.951	21690
879.079	21675
879.206	21911
879.333	21804
879.461	21606
879.588	21759
879.715	21797
879.842	21930
879.97	21633
880.097	21504
880.224	21450
880.351	21511
880.478	21534
880.605	21363
880.732	21321
880.859	21743
880.986	21401
881.112	21386
881.239	21348
881.366	21226
881.493	21195
881.619	21032
881.746	21131
881.872	21009
881.999	20979
882.125	21062
882.252	21081
882.378	21024
882.505	21150
882.631	20929
882.757	20929
882.883	20731
883.01	20842
883.136	20651
883.262	20693
883.388	20648
883.514	20655
883.64	20743
883.766	20731
883.892	20514
884.018	20564
884.143	20750
884.269	20807
884.395	20446
884.52	20419
884.646	20427
884.772	20381
884.897	20267
885.023	20450
885.148	20469
885.274	20564
885.399	20530
885.524	20419
885.65	20461
885.775	20438
885.9	20252
886.025	20526
886.15	20423
886.275	20339
886.4	20305
886.525	20454
886.65	20336
886.775	20309
886.9	20461
887.025	20480
887.149	20218
887.274	20271
887.399	20115
887.523	20206
887.648	19993
887.773	20096
887.897	20187
888.021	20111
888.146	20065
888.27	20278
888.395	20275
888.519	20210
888.643	20233
888.767	20199
888.891	19989
889.015	20027
889.139	20088
889.263	19902
889.387	20107
889.511	20157
889.635	20062
889.759	19974
889.883	19936
890.006	19989
890.13	20058
890.254	19890
890.377	19890
890.501	19750
890.624	19658
890.748	19837
890.871	19628
890.995	19548
891.118	19495
891.241	19480
891.364	19605
891.488	19643
891.611	19552
891.734	19590
891.857	19635
891.98	19632
892.103	19556
892.226	19533
892.349	19521
892.471	19384
892.594	19567
892.717	19472
892.839	19422
892.962	19499
893.085	19502
893.207	19586
893.33	19396
893.452	19293
893.575	19540
893.697	19434
893.819	19590
893.941	19670
894.064	19655
894.186	19411
894.308	19407
894.43	19567
894.552	19700
894.674	19605
894.796	19426
894.918	19495
895.04	19384
895.161	19605
895.283	19419
895.405	19464
895.526	19377
895.648	19377
895.769	19464
895.891	19586
896.012	19537
896.134	19491
896.255	19464
896.376	19346
896.498	19548
896.619	19556
896.74	19426
896.861	19506
896.982	19674
897.103	19887
897.224	19643
897.345	19624
897.466	19677
897.587	19609
897.708	19784
897.828	19772
897.949	19693
898.07	19449
898.19	19605
898.311	19689
898.431	19666
898.552	19731
898.672	19772
898.792	19883
898.913	19723
899.033	19628
899.153	19472
899.273	19491
899.393	19476
899.513	19624
899.633	19426
899.753	19362
899.873	19445
899.993	19514
900.113	19396
900.232	19487
900.352	19392
900.472	19362
900.591	19263
900.711	19339
900.83	19301
900.95	19354
901.069	19304
901.189	19160
901.308	18939
901.427	18859
901.546	18901
901.665	18973
901.784	18897
901.904	18696
902.023	18654
902.141	18426
902.26	18498
902.379	18513
902.498	18403
902.617	18334
902.735	18414
902.854	18388
902.973	18247
903.091	18083
903.21	18022
903.328	18087
903.446	17923
903.565	17783
903.683	17866
903.801	17775
903.919	17813
904.038	17916
904.156	17661
904.274	17691
904.392	17707
904.51	17684
904.627	17665
904.745	17703
904.863	17684
904.981	17471
905.098	17239
905.216	17273
905.334	17277
905.451	17231
905.569	17364
905.686	17311
905.803	17368
905.921	17140
906.038	17220
906.155	17094
906.272	16942
906.389	16984
906.506	16889
906.623	16828
906.74	16946
906.857	16782
906.974	16820
907.091	16816
907.208	17003
907.324	16793
907.441	16847
907.557	16615
907.674	16588
907.79	16580
907.907	16466
908.023	16527
908.139	16592
908.256	16478
908.372	16382
908.488	16592
908.604	16333
908.72	16322
908.836	16329
908.952	16268
909.068	16196
909.184	16344
909.3	16348
909.415	16424
909.531	16261
909.647	16032
909.762	16078
909.878	15915
909.993	16051
910.108	16025
910.224	15953
910.339	15949
910.454	15922
910.57	15789
910.685	15728
910.8	16150
910.915	15998
911.03	15835
911.145	15686
911.259	15694
911.374	15724
911.489	15515
911.604	15545
911.718	15344
911.833	15435
911.947	15351
912.062	15256
912.176	15412
912.291	15466
912.405	15332
912.519	15492
912.633	15481
912.748	15405
912.862	15325
912.976	15157
913.09	15097
913.204	15085
913.318	15180
913.431	15218
913.545	15218
913.659	15230
913.772	15074
913.886	15009
914	14948
914.113	15135
914.226	15116
914.34	15066
914.453	14834
914.566	14960
914.68	14864
914.793	14906
914.906	14663
915.019	14625
915.132	14499
915.245	14571
915.358	14640
915.47	14743
915.583	14636
915.696	14640
915.809	14727
915.921	14708
916.034	14632
916.146	14514
916.259	14419
916.371	14579
916.483	14571
916.595	14457
916.708	14415
916.82	14427
916.932	14317
917.044	14351
917.156	14370
917.268	14298
917.38	14282
917.491	14366
917.603	14267
917.715	14339
917.826	14343
917.938	14187
918.049	14107
918.161	14244
918.272	14313
918.384	14362
918.495	14221
918.606	14164
918.717	14020
918.828	14046
918.939	14088
919.05	13951
919.161	14077
919.272	13917
919.383	13955
919.494	14012
919.604	14298
919.715	14100
919.826	13944
919.936	14031
920.047	14054
920.157	14012
920.267	14183
920.378	14126
920.488	13993
920.598	14180
920.708	14355
920.818	14210
920.928	14103
921.038	14366
921.148	14309
921.258	13955
921.368	13845
921.477	13761
921.587	13807
921.697	13628
921.806	13738
921.916	13662
922.025	13590
922.134	13373
922.244	13434
922.353	13472
922.462	13381
922.571	13225
922.68	13160
922.789	13019
922.898	13057
923.007	13057
923.116	13129
923.224	13038
923.333	13057
923.442	12985
923.55	12928
923.659	12909
923.767	13008
923.876	12878
923.984	12909
924.092	12837
924.201	12821
924.309	12802
924.417	12772
924.525	12734
924.633	12620
924.741	13559
924.849	12574
924.956	12707
925.064	12513
925.172	12407
925.279	12452
925.387	12555
925.494	12555
925.602	12662
925.709	12547
925.816	12388
925.924	12433
926.031	12551
926.138	12532
926.245	12502
926.352	12403
926.459	12407
926.566	12559
926.673	12369
926.779	12304
926.886	12311
926.993	12175
927.099	12155
927.206	12019
927.312	12098
927.419	12076
927.525	12072
927.631	12091
927.737	12053
927.843	11931
927.95	11824
928.056	11889
928.162	11904
928.267	11992
928.373	12620
928.479	11969
928.585	11783
928.69	11863
928.796	11920
928.901	11836
929.007	11627
929.112	11767
929.218	11790
929.323	11764
929.428	11649
929.533	11840
929.638	11649
929.743	11642
929.848	11680
929.953	11649
930.058	11573
930.163	11269
930.267	11410
930.372	11471
930.477	11341
930.581	11562
930.685	11478
930.79	11269
930.894	11204
930.998	11261
931.103	11341
931.207	10942
931.311	10828
931.415	10862
931.519	10622
931.623	10637
