Data from test_V78500241_325.txt Node
Date: Fri Mar 25 15:12:07 CST 2022
User: usil
Spectrometer: V785-0024
Trigger mode: 0
Integration Time (sec): 4.000000E-1
Scans to average: 1
Nonlinearity correction enabled: false
Boxcar width: 0
Storing dark spectrum: false
XAxis mode: Wavelengths
Number of Pixels in Spectrum: 1024
>>>>>Begin Spectral Data<<<<<
801.071	28002
801.214	28017
801.356	27682
801.499	27549
801.641	27557
801.783	27424
801.926	27698
802.068	27576
802.211	27580
802.353	27340
802.496	27298
802.638	27298
802.78	27184
802.923	27058
803.065	27077
803.208	27112
803.35	27146
803.492	27344
803.635	27233
803.777	27222
803.919	27389
804.061	27614
804.204	27367
804.346	27306
804.488	27211
804.63	27291
804.773	27214
804.915	27313
805.057	27412
805.199	27291
805.341	27351
805.483	27431
805.626	27283
805.768	27199
805.91	27469
806.052	27401
806.194	27283
806.336	27561
806.478	27431
806.62	27340
806.762	27534
806.904	27667
807.046	27945
807.188	27797
807.33	27724
807.472	27823
807.614	27759
807.756	27720
807.898	27705
808.04	27679
808.182	27713
808.324	27717
808.465	27644
808.607	27865
808.749	27831
808.891	28097
809.033	28223
809.174	28109
809.316	28181
809.458	27953
809.6	27945
809.741	27968
809.883	28147
810.025	28257
810.166	28188
810.308	28295
810.45	28147
810.591	28238
810.733	27994
810.875	27964
811.016	28021
811.158	27808
811.299	28029
811.441	28166
811.582	27994
811.724	27945
811.865	27987
812.007	28067
812.148	27907
812.29	28090
812.431	28166
812.573	28382
812.714	28344
812.855	28466
812.997	28675
813.138	28653
813.279	28527
813.421	28577
813.562	28424
813.703	28386
813.845	28257
813.986	28010
814.127	27755
814.268	27762
814.41	27568
814.551	27526
814.692	27701
814.833	27648
814.974	27583
815.115	27629
815.256	27355
815.397	27572
815.539	27583
815.68	27435
815.821	27469
815.962	27469
816.103	27363
816.244	27302
816.385	27264
816.526	27089
816.666	27047
816.807	26834
816.948	26937
817.089	26914
817.23	26982
817.371	26902
817.512	26921
817.653	26918
817.793	26769
817.934	26967
818.075	26853
818.216	26990
818.356	26918
818.497	26807
818.638	26530
818.778	26636
818.919	26659
819.06	26522
819.2	26686
819.341	26811
819.481	26746
819.622	26910
819.762	27291
819.903	27081
820.043	27009
820.184	26883
820.324	26937
820.465	27062
820.605	26975
820.746	26921
820.886	26891
821.026	27081
821.167	27013
821.307	27039
821.447	26868
821.588	26727
821.728	26632
821.868	26450
822.008	26294
822.149	26423
822.289	26286
822.429	26100
822.569	25986
822.709	26054
822.849	25932
822.99	25818
823.13	25757
823.27	25696
823.41	25548
823.55	25556
823.69	25609
823.83	25647
823.97	25479
824.11	25518
824.25	25369
824.389	25381
824.529	25472
824.669	25449
824.809	25510
824.949	25479
825.089	25479
825.228	25559
825.368	25187
825.508	25304
825.648	25289
825.787	25282
825.927	25259
826.067	25244
826.206	25202
826.346	25339
826.485	25225
826.625	25377
826.765	25324
826.904	25247
827.044	25034
827.183	25084
827.323	24909
827.462	25088
827.601	24894
827.741	24840
827.88	25000
828.02	24859
828.159	25084
828.298	25095
828.437	25084
828.577	24924
828.716	25042
828.855	24924
828.994	24768
829.134	24738
829.273	24798
829.412	24684
829.551	24456
829.69	24776
829.829	24692
829.968	24661
830.107	24776
830.246	24722
830.385	24707
830.524	24509
830.663	24498
830.802	24365
830.941	24254
831.08	24330
831.219	24399
831.357	24365
831.496	24369
831.635	24308
831.774	24266
831.913	24129
832.051	24144
832.19	24144
832.329	24224
832.467	23969
832.606	23882
832.744	23904
832.883	24007
833.022	23965
833.16	23992
833.299	23988
833.437	23992
833.576	24003
833.714	23984
833.852	24064
833.991	24041
834.129	24083
834.267	24045
834.406	24034
834.544	24079
834.682	23992
834.821	23961
834.959	24254
835.097	23935
835.235	24011
835.373	23882
835.511	24038
835.65	23882
835.788	23973
835.926	23691
836.064	23737
836.202	23767
836.34	23771
836.478	23923
836.615	23874
836.753	23855
836.891	23958
837.029	23866
837.167	23760
837.305	23828
837.443	23672
837.58	23695
837.718	23802
837.856	23668
837.993	23630
838.131	23638
838.269	23543
838.406	23680
838.544	23524
838.681	23288
838.819	23326
838.956	23208
839.094	23022
839.231	23223
839.369	23299
839.506	23592
839.643	23493
839.781	23086
839.918	23292
840.055	23140
840.193	23166
840.33	22987
840.467	23098
840.604	23022
840.742	23292
840.879	22797
841.016	23056
841.153	22938
841.29	23155
841.427	23010
841.564	22999
841.701	23098
841.838	23048
841.975	22900
842.112	22911
842.249	22816
842.385	22729
842.522	22995
842.659	22831
842.796	22759
842.933	22774
843.069	22816
843.206	22630
843.343	22797
843.479	22873
843.616	22805
843.752	22519
843.889	22744
844.025	22656
844.162	22542
844.298	22687
844.435	22557
844.571	22424
844.708	22713
844.844	22668
844.98	22660
845.117	22691
845.253	22432
845.389	22478
845.525	22462
845.661	22455
845.798	22287
845.934	22325
846.07	22196
846.206	22310
846.342	22428
846.478	22261
846.614	22139
846.75	21975
846.886	22044
847.022	22120
847.158	22048
847.294	21937
847.429	22051
847.565	21979
847.701	22230
847.837	21698
847.972	21755
848.108	21876
848.244	21873
848.379	21641
848.515	21549
848.65	21515
848.786	21496
848.921	21682
849.057	21622
849.192	21629
849.328	21679
849.463	21663
849.598	21515
849.734	21591
849.869	21458
850.004	21287
850.14	21359
850.275	21485
850.41	21283
850.545	21283
850.68	21264
850.815	21481
850.95	21386
851.085	21477
851.22	21477
851.355	21389
851.49	21386
851.625	21332
851.76	21378
851.895	21203
852.03	21233
852.165	21306
852.299	21408
852.434	21424
852.569	21340
852.703	21351
852.838	21329
852.973	21431
853.107	21329
853.242	21237
853.376	21249
853.511	20998
853.645	21062
853.78	21268
853.914	21085
854.048	21077
854.183	21241
854.317	21116
854.451	21401
854.585	21195
854.72	21066
854.854	21199
854.988	21051
855.122	21096
855.256	21032
855.39	21138
855.524	21093
855.658	21268
855.792	21222
855.926	21123
856.06	21268
856.194	21302
856.327	21154
856.461	21020
856.595	21085
856.729	21214
856.862	21146
856.996	21203
857.13	21272
857.263	21237
857.397	21283
857.53	21100
857.664	21268
857.797	21226
857.931	21199
858.064	21184
858.197	21211
858.331	21108
858.464	21127
858.597	21108
858.731	21154
858.864	21146
858.997	21058
859.13	21104
859.263	21131
859.396	21214
859.529	21062
859.662	21039
859.795	21138
859.928	21116
860.061	21199
860.194	21264
860.327	21211
860.46	21112
860.592	21195
860.725	21241
860.858	21256
860.99	21260
861.123	21100
861.256	21077
861.388	21112
861.521	21656
861.653	20921
861.786	20868
861.918	21009
862.05	21127
862.183	21169
862.315	21169
862.447	21135
862.58	21150
862.712	20914
862.844	20746
862.976	20963
863.108	20914
863.24	21245
863.372	20746
863.504	20838
863.636	20785
863.768	20895
863.9	20933
864.032	20697
864.164	20758
864.296	20876
864.428	20925
864.559	20853
864.691	20849
864.823	20811
864.954	20925
865.086	20887
865.217	20826
865.349	20667
865.48	20674
865.612	20693
865.743	20864
865.875	20823
866.006	20686
866.137	20720
866.269	20800
866.4	20621
866.531	20678
866.662	20739
866.793	20693
866.924	20667
867.055	20727
867.186	20773
867.317	20720
867.448	20606
867.579	20644
867.71	20617
867.841	20575
867.972	20587
868.103	20617
868.233	20552
868.364	20697
868.495	20735
868.625	20925
868.756	20979
868.886	20880
869.017	20868
869.147	20941
869.278	20960
869.408	20849
869.539	20902
869.669	21058
869.799	20906
869.929	21150
870.06	21077
870.19	21180
870.32	21161
870.45	21138
870.58	21313
870.71	21428
870.84	21386
870.97	21157
871.1	21260
871.23	21542
871.36	21488
871.489	21378
871.619	21523
871.749	21424
871.879	21595
872.008	21641
872.138	21443
872.267	21519
872.397	21355
872.526	21287
872.656	21393
872.785	21317
872.915	21576
873.044	21477
873.173	21549
873.303	21610
873.432	21542
873.561	21622
873.69	21458
873.819	21435
873.948	21564
874.077	21580
874.206	21496
874.335	21633
874.464	21656
874.593	21907
874.722	21827
874.851	21800
874.979	21778
875.108	21934
875.237	21641
875.365	21698
875.494	21762
875.623	21793
875.751	21686
875.88	21724
876.008	22002
876.136	22044
876.265	22188
876.393	22329
876.521	22276
876.65	22166
876.778	22158
876.906	22051
877.034	22082
877.162	22207
877.29	22032
877.418	22200
877.546	22147
877.674	22044
877.802	22131
877.93	22048
878.058	22215
878.185	22032
878.313	21979
878.441	22219
878.568	22059
878.696	21994
878.824	22196
878.951	22272
879.079	22329
879.206	22382
879.333	22341
879.461	22234
879.588	22109
879.715	22371
879.842	22371
879.97	22303
880.097	21975
880.224	22032
880.351	22063
880.478	21899
880.605	21945
880.732	21895
880.859	22230
880.986	21953
881.112	21895
881.239	21808
881.366	21705
881.493	21583
881.619	21492
881.746	21530
881.872	21614
881.999	21572
882.125	21473
882.252	21614
882.378	21675
882.505	21603
882.631	21401
882.757	21306
882.883	21435
883.01	21237
883.136	21260
883.262	21100
883.388	20994
883.514	21283
883.64	21256
883.766	21272
883.892	21074
884.018	21081
884.143	21279
884.269	21317
884.395	20842
884.52	20861
884.646	20979
884.772	20785
884.897	20845
885.023	20960
885.148	20952
885.274	20986
885.399	21036
885.524	20979
885.65	20883
885.775	20941
885.9	20842
886.025	21043
886.15	21017
886.275	20811
886.4	20716
886.525	20762
886.65	20857
886.775	20785
886.9	20948
887.025	21032
887.149	20845
887.274	20621
887.399	20590
887.523	20705
887.648	20644
887.773	20617
887.897	20758
888.021	20663
888.146	20541
888.27	20777
888.395	20773
888.519	20598
888.643	20613
888.767	20575
888.891	20507
889.015	20461
889.139	20564
889.263	20431
889.387	20545
889.511	20655
889.635	20526
889.759	20469
889.883	20389
890.006	20530
890.13	20488
890.254	20389
890.377	20385
890.501	20153
890.624	20290
890.748	20199
890.871	20020
890.995	20012
891.118	19928
891.241	20172
891.364	20081
891.488	20183
891.611	20054
891.734	20073
891.857	20069
891.98	20001
892.103	20153
892.226	20084
892.349	20012
892.471	19868
892.594	19936
892.717	19890
892.839	19928
892.962	19830
893.085	20062
893.207	20005
893.33	19803
893.452	19852
893.575	19875
893.697	19887
893.819	20191
893.941	20103
894.064	19997
894.186	19795
894.308	19750
894.43	19936
894.552	19974
894.674	19932
894.796	19696
894.918	19818
895.04	19879
895.161	20005
895.283	20005
895.405	19921
895.526	19833
895.648	19830
895.769	19959
895.891	19944
896.012	20039
896.134	20027
896.255	19932
896.376	19921
896.498	19932
896.619	19947
896.74	20027
896.861	20020
896.982	20362
897.103	20476
897.224	20267
897.345	20043
897.466	20122
897.587	20153
897.708	20328
897.828	20225
897.949	20058
898.07	20069
898.19	20138
898.311	20237
898.431	20122
898.552	20088
898.672	20237
898.792	20168
898.913	20161
899.033	20084
899.153	19974
899.273	19776
899.393	19811
899.513	19955
899.633	20054
899.753	19947
899.873	19913
899.993	19841
900.113	19826
900.232	19826
900.352	19845
900.472	19746
900.591	19616
900.711	19677
900.83	19620
900.95	19746
901.069	19772
901.189	19609
901.308	19289
901.427	19251
901.546	19312
901.665	19320
901.784	19251
901.904	19145
902.023	19015
902.141	18814
902.26	18677
902.379	18878
902.498	18745
902.617	18696
902.735	18806
902.854	18798
902.973	18658
903.091	18566
903.21	18490
903.328	18551
903.446	18300
903.565	18235
903.683	18403
903.801	18171
903.919	18174
904.038	18201
904.156	18026
904.274	18098
904.392	17927
904.51	18053
904.627	17897
904.745	18003
904.863	18064
904.981	17786
905.098	17653
905.216	17638
905.334	17775
905.451	17680
905.569	17577
905.686	17668
905.803	17592
905.921	17474
906.038	17539
906.155	17436
906.272	17322
906.389	17414
906.506	17265
906.623	17265
906.74	17197
906.857	17033
906.974	17094
907.091	17235
907.208	17326
907.324	17307
907.441	17041
907.557	16938
907.674	17048
907.79	16816
907.907	16866
908.023	16980
908.139	17029
908.256	16900
908.372	16805
908.488	16805
908.604	16554
908.72	16645
908.836	16645
908.952	16584
909.068	16603
909.184	16664
909.3	16611
909.415	16611
909.531	16672
909.647	16386
909.762	16474
909.878	16303
909.993	16348
910.108	16265
910.224	16356
910.339	16306
910.454	16162
910.57	16196
910.685	16158
910.8	16344
910.915	16268
911.03	16101
911.145	16109
911.259	15975
911.374	15922
911.489	15873
911.604	15766
911.718	15686
911.833	15576
911.947	15603
912.062	15450
912.176	15644
912.291	15660
912.405	15629
912.519	15804
912.633	15816
912.748	15690
912.862	15732
912.976	15523
913.09	15424
913.204	15500
913.318	15458
913.431	15477
913.545	15606
913.659	15599
913.772	15424
913.886	15397
914	15317
914.113	15393
914.226	15466
914.34	15450
914.453	15184
914.566	15408
914.68	15207
914.793	15062
914.906	15005
915.019	14895
915.132	14906
915.245	14883
915.358	15001
915.47	14948
915.583	14933
915.696	14929
915.809	15093
915.921	15070
916.034	14864
916.146	14853
916.259	14796
916.371	14826
916.483	14872
916.595	14712
916.708	14716
916.82	14758
916.932	14705
917.044	14750
917.156	14663
917.268	14514
917.38	14583
917.491	14579
917.603	14560
917.715	14693
917.826	14727
917.938	14492
918.049	14412
918.161	14499
918.272	14568
918.384	14583
918.495	14511
918.606	14347
918.717	14355
918.828	14229
918.939	14476
919.05	14218
919.161	14305
919.272	14058
919.383	14195
919.494	14400
919.604	14571
919.715	14259
919.826	14187
919.936	14240
920.047	14347
920.157	14339
920.267	14488
920.378	14336
920.488	14183
920.598	14461
920.708	14571
920.818	14385
920.928	14412
921.038	14541
921.148	14469
921.258	14309
921.368	14145
921.477	14084
921.587	13932
921.697	13860
921.806	14202
921.916	13841
922.025	13651
922.134	13765
922.244	13613
922.353	13723
922.462	13502
922.571	13422
922.68	13320
922.789	13297
922.898	13320
923.007	13316
923.116	13259
923.224	13304
923.333	13362
923.442	13297
923.55	13126
923.659	13187
923.767	13168
923.876	13095
923.984	13187
924.092	13099
924.201	13038
924.309	13034
924.417	13000
924.525	12993
924.633	12989
924.741	13734
924.849	12772
924.956	12966
925.064	12798
925.172	12741
925.279	12764
925.387	12844
925.494	12776
925.602	12928
925.709	12753
925.816	12593
925.924	12662
926.031	12829
926.138	12650
926.245	12772
926.352	12540
926.459	12715
926.566	12635
926.673	12593
926.779	12403
926.886	12483
926.993	12353
927.099	12407
927.206	12235
927.312	12243
927.419	12197
927.525	12304
927.631	12357
927.737	12209
927.843	12167
927.95	12022
928.056	12057
928.162	12133
928.267	12098
928.373	12825
928.479	12182
928.585	11954
928.69	12148
928.796	12213
928.901	12015
929.007	11878
929.112	11942
929.218	11984
929.323	11885
929.428	11809
929.533	11958
929.638	11901
929.743	11859
929.848	11847
929.953	11794
930.058	11752
930.163	11592
930.267	11566
930.372	11722
930.477	11539
930.581	11748
930.685	11665
930.79	11444
930.894	11570
930.998	11452
931.103	11516
931.207	11117
931.311	11128
931.415	11060
931.519	10843
931.623	10812
