Data from test_V78500241_2407.txt Node
Date: Fri Mar 25 15:26:37 CST 2022
User: usil
Spectrometer: V785-0024
Trigger mode: 0
Integration Time (sec): 4.000000E-1
Scans to average: 1
Nonlinearity correction enabled: false
Boxcar width: 0
Storing dark spectrum: false
XAxis mode: Wavelengths
Number of Pixels in Spectrum: 1024
>>>>>Begin Spectral Data<<<<<
801.071	27264
801.214	27218
801.356	27112
801.499	26842
801.641	26785
801.783	26899
801.926	26849
802.068	26800
802.211	26743
802.353	26644
802.496	26511
802.638	26552
802.78	26427
802.923	26320
803.065	26442
803.208	26176
803.35	26328
803.492	26583
803.635	26594
803.777	26415
803.919	26617
804.061	26800
804.204	26686
804.346	26552
804.488	26541
804.63	26575
804.773	26541
804.915	26499
805.057	26708
805.199	26552
805.341	26571
805.483	26594
805.626	26629
805.768	26522
805.91	26727
806.052	26731
806.194	26495
806.336	26864
806.478	26731
806.62	26655
806.762	26807
806.904	26861
807.046	27020
807.188	27195
807.33	27013
807.472	27256
807.614	27138
807.756	27226
807.898	26891
808.04	26849
808.182	26826
808.324	26940
808.465	27074
808.607	27077
808.749	27207
808.891	27317
809.033	27568
809.174	27416
809.316	27188
809.458	27249
809.6	27218
809.741	27382
809.883	27344
810.025	27633
810.166	27492
810.308	27507
810.45	27534
810.591	27412
810.733	27298
810.875	27367
811.016	27081
811.158	27283
811.299	27340
811.441	27389
811.582	27389
811.724	27180
811.865	27272
812.007	27142
812.148	27173
812.29	27317
812.431	27287
812.573	27454
812.714	27553
812.855	27682
812.997	27816
813.138	27979
813.279	27785
813.421	27816
813.562	27671
813.703	27599
813.845	27397
813.986	27264
814.127	27119
814.268	27001
814.41	26891
814.551	26838
814.692	27036
814.833	26887
814.974	26868
815.115	26864
815.256	26792
815.397	26765
815.539	26781
815.68	26724
815.821	26648
815.962	26750
816.103	26739
816.244	26431
816.385	26298
816.526	26419
816.666	26221
816.807	26202
816.948	26259
817.089	26393
817.23	26221
817.371	26176
817.512	25978
817.653	26115
817.793	26062
817.934	26100
818.075	26130
818.216	26046
818.356	26031
818.497	25989
818.638	25966
818.778	25917
818.919	25906
819.06	26039
819.2	26100
819.341	26218
819.481	26145
819.622	26244
819.762	26469
819.903	26476
820.043	26374
820.184	26301
820.324	26343
820.465	26336
820.605	26244
820.746	26275
820.886	26157
821.026	26313
821.167	26320
821.307	26275
821.447	26305
821.588	26046
821.728	25963
821.868	25826
822.008	25601
822.149	25734
822.289	25696
822.429	25354
822.569	25457
822.709	25343
822.849	25194
822.99	25141
823.13	25213
823.27	25019
823.41	24852
823.55	24757
823.69	25000
823.83	24985
823.97	24882
824.11	24745
824.25	24715
824.389	24696
824.529	24779
824.669	24749
824.809	24867
824.949	24958
825.089	24890
825.228	24707
825.368	24646
825.508	24711
825.648	24772
825.787	24681
825.927	24719
826.067	24536
826.206	24494
826.346	24730
826.485	24715
826.625	24559
826.765	24700
826.904	24722
827.044	24422
827.183	24479
827.323	24346
827.462	24456
827.601	24433
827.741	24388
827.88	24403
828.02	24289
828.159	24304
828.298	24292
828.437	24300
828.577	24235
828.716	24407
828.855	24266
828.994	24011
829.134	23935
829.273	24155
829.412	23973
829.551	24121
829.69	24087
829.829	24114
829.968	24163
830.107	24232
830.246	24155
830.385	24136
830.524	23980
830.663	23843
830.802	23798
830.941	23699
831.08	23718
831.219	23798
831.357	23798
831.496	23904
831.635	23619
831.774	23687
831.913	23619
832.051	23486
832.19	23524
832.329	23634
832.467	23402
832.606	23273
832.744	23398
832.883	23455
833.022	23353
833.16	23337
833.299	23444
833.437	23356
833.576	23414
833.714	23429
833.852	23387
833.991	23444
834.129	23528
834.267	23577
834.406	23471
834.544	23402
834.682	23429
834.821	23364
834.959	23551
835.097	23360
835.235	23429
835.373	23410
835.511	23334
835.65	23235
835.788	23258
835.926	23193
836.064	23052
836.202	23113
836.34	23296
836.478	23303
836.615	23181
836.753	23330
836.891	23288
837.029	23307
837.167	23166
837.305	23083
837.443	23128
837.58	23025
837.718	23227
837.856	23178
837.993	22949
838.131	23216
838.269	22999
838.406	22949
838.544	22858
838.681	22782
838.819	22816
838.956	22584
839.094	22561
839.231	22683
839.369	22771
839.506	23048
839.643	22839
839.781	22687
839.918	22565
840.055	22588
840.193	22584
840.33	22580
840.467	22588
840.604	22637
840.742	22717
840.879	22535
841.016	22424
841.153	22375
841.29	22668
841.427	22497
841.564	22531
841.701	22508
841.838	22394
841.975	22409
842.112	22291
842.249	22295
842.385	22276
842.522	22375
842.659	22360
842.796	22185
842.933	22333
843.069	22219
843.206	22188
843.343	22337
843.479	22242
843.616	22188
843.752	21956
843.889	22059
844.025	22162
844.162	22029
844.298	22219
844.435	21873
844.571	21979
844.708	22086
844.844	22265
844.98	22204
845.117	22173
845.253	22109
845.389	21945
845.525	21903
845.661	21907
845.798	21819
845.934	21808
846.07	21747
846.206	21850
846.342	21819
846.478	21884
846.614	21591
846.75	21492
846.886	21519
847.022	21488
847.158	21568
847.294	21591
847.429	21538
847.565	21443
847.701	21709
847.837	21317
847.972	21199
848.108	21412
848.244	21351
848.379	21165
848.515	21081
848.65	21112
848.786	21146
848.921	21112
849.057	21214
849.192	21199
849.328	21093
849.463	21123
849.598	21017
849.734	20975
849.869	20990
850.004	20895
850.14	21005
850.275	20906
850.41	20750
850.545	20781
850.68	20792
850.815	20857
850.95	20952
851.085	21074
851.22	20891
851.355	20899
851.49	20804
851.625	20872
851.76	20899
851.895	20727
852.03	20735
852.165	20982
852.299	20941
852.434	20918
852.569	20864
852.703	20739
852.838	20963
852.973	20963
853.107	20963
853.242	20731
853.376	20689
853.511	20640
853.645	20735
853.78	20823
853.914	20708
854.048	20644
854.183	20792
854.317	20735
854.451	20853
854.585	20617
854.72	20720
854.854	20800
854.988	20549
855.122	20731
855.256	20522
855.39	20743
855.524	20705
855.658	20785
855.792	20727
855.926	20788
856.06	20667
856.194	20754
856.327	20689
856.461	20750
856.595	20629
856.729	20670
856.862	20754
856.996	20758
857.13	20811
857.263	20861
857.397	20815
857.53	20689
857.664	20743
857.797	20842
857.931	20826
858.064	20674
858.197	20849
858.331	20712
858.464	20648
858.597	20659
858.731	20655
858.864	20655
858.997	20682
859.13	20746
859.263	20788
859.396	20880
859.529	20743
859.662	20712
859.795	20712
859.928	20781
860.061	20857
860.194	20994
860.327	20842
860.46	20705
860.592	20861
860.725	20933
860.858	20853
860.99	20739
861.123	20682
861.256	20670
861.388	20678
861.521	21355
861.653	20564
861.786	20480
861.918	20518
862.05	20533
862.183	20640
862.315	20670
862.447	20617
862.58	20609
862.712	20434
862.844	20377
862.976	20552
863.108	20602
863.24	20800
863.372	20366
863.504	20549
863.636	20446
863.768	20320
863.9	20393
864.032	20370
864.164	20465
864.296	20480
864.428	20442
864.559	20484
864.691	20488
864.823	20461
864.954	20290
865.086	20419
865.217	20366
865.349	20381
865.48	20374
865.612	20355
865.743	20431
865.875	20355
866.006	20237
866.137	20275
866.269	20339
866.4	20408
866.531	20320
866.662	20271
866.793	20115
866.924	20286
867.055	20301
867.186	20313
867.317	20278
867.448	20088
867.579	20282
867.71	20206
867.841	20111
867.972	20396
868.103	20305
868.233	20309
868.364	20339
868.495	20233
868.625	20507
868.756	20530
868.886	20465
869.017	20469
869.147	20674
869.278	20488
869.408	20590
869.539	20545
869.669	20427
869.799	20655
869.929	20632
870.06	20659
870.19	20872
870.32	20705
870.45	20933
870.58	20952
870.71	21051
870.84	21089
870.97	21001
871.1	20823
871.23	21112
871.36	21009
871.489	20944
871.619	21119
871.749	21062
871.879	21123
872.008	21138
872.138	20998
872.267	21161
872.397	20941
872.526	20929
872.656	20861
872.785	20960
872.915	21154
873.044	21161
873.173	21195
873.303	21180
873.432	21157
873.561	21157
873.69	21245
873.819	21165
873.948	21169
874.077	21169
874.206	21077
874.335	21226
874.464	21268
874.593	21260
874.722	21469
874.851	21405
874.979	21447
875.108	21408
875.237	21287
875.365	21199
875.494	21344
875.623	21416
875.751	21268
875.88	21405
876.008	21523
876.136	21591
876.265	21857
876.393	21899
876.521	21861
876.65	21743
876.778	21663
876.906	21591
877.034	21781
877.162	21770
877.29	21682
877.418	21724
877.546	21751
877.674	21682
877.802	21755
877.93	21747
878.058	21648
878.185	21583
878.313	21576
878.441	21618
878.568	21504
878.696	21667
878.824	21766
878.951	21717
879.079	21979
879.206	21964
879.333	21884
879.461	21724
879.588	21793
879.715	21850
879.842	22006
879.97	21751
880.097	21595
880.224	21679
880.351	21603
880.478	21545
880.605	21530
880.732	21671
880.859	21739
880.986	21443
881.112	21652
881.239	21363
881.366	21389
881.493	21047
881.619	21226
881.746	21043
881.872	21112
881.999	21165
882.125	21058
882.252	21157
882.378	21211
882.505	21135
882.631	20979
882.757	20906
882.883	20796
883.01	20857
883.136	20781
883.262	20705
883.388	20701
883.514	20864
883.64	20811
883.766	20651
883.892	20518
884.018	20629
884.143	20834
884.269	20872
884.395	20530
884.52	20518
884.646	20511
884.772	20442
884.897	20400
885.023	20518
885.148	20609
885.274	20560
885.399	20564
885.524	20431
885.65	20537
885.775	20492
885.9	20530
886.025	20503
886.15	20480
886.275	20469
886.4	20396
886.525	20343
886.65	20488
886.775	20423
886.9	20564
887.025	20636
887.149	20446
887.274	20366
887.399	20320
887.523	20191
887.648	20256
887.773	20180
887.897	20324
888.021	20301
888.146	20225
888.27	20336
888.395	20286
888.519	20305
888.643	20305
888.767	20393
888.891	20073
889.015	20115
889.139	20092
889.263	19997
889.387	20050
889.511	20240
889.635	20210
889.759	20005
889.883	19944
890.006	20039
890.13	20088
890.254	20062
890.377	19902
890.501	19868
890.624	19753
890.748	19925
890.871	19769
890.995	19613
891.118	19540
891.241	19655
891.364	19734
891.488	19852
891.611	19681
891.734	19624
891.857	19693
891.98	19540
892.103	19685
892.226	19696
892.349	19460
892.471	19392
892.594	19567
892.717	19632
892.839	19533
892.962	19476
893.085	19696
893.207	19491
893.33	19506
893.452	19381
893.575	19666
893.697	19487
893.819	19746
893.941	19795
894.064	19544
894.186	19495
894.308	19468
894.43	19670
894.552	19731
894.674	19670
894.796	19468
894.918	19552
895.04	19609
895.161	19628
895.283	19666
895.405	19449
895.526	19628
895.648	19453
895.769	19647
895.891	19658
896.012	19556
896.134	19647
896.255	19544
896.376	19495
896.498	19518
896.619	19491
896.74	19578
896.861	19575
896.982	20024
897.103	20020
897.224	19852
897.345	19864
897.466	19639
897.587	19868
897.708	19875
897.828	19860
897.949	19723
898.07	19609
898.19	19719
898.311	19887
898.431	19769
898.552	19685
898.672	19849
898.792	19894
898.913	19818
899.033	19685
899.153	19537
899.273	19559
899.393	19529
899.513	19548
899.633	19537
899.753	19628
899.873	19487
899.993	19544
900.113	19525
900.232	19533
900.352	19441
900.472	19438
900.591	19244
900.711	19324
900.83	19343
900.95	19407
901.069	19377
901.189	19255
901.308	18913
901.427	19000
901.546	18958
901.665	18973
901.784	18928
901.904	18806
902.023	18753
902.141	18555
902.26	18631
902.379	18536
902.498	18509
902.617	18475
902.735	18460
902.854	18330
902.973	18372
903.091	18121
903.21	18087
903.328	18209
903.446	18076
903.565	17996
903.683	17935
903.801	17901
903.919	17870
904.038	17878
904.156	17817
904.274	17901
904.392	17809
904.51	17680
904.627	17676
904.745	17798
904.863	17748
904.981	17524
905.098	17379
905.216	17410
905.334	17478
905.451	17452
905.569	17414
905.686	17486
905.803	17493
905.921	17189
906.038	17360
906.155	17273
906.272	17079
906.389	17178
906.506	16949
906.623	16984
906.74	16949
906.857	16889
906.974	16900
907.091	17064
907.208	17086
907.324	16904
907.441	16862
907.557	16706
907.674	16713
907.79	16596
907.907	16611
908.023	16687
908.139	16698
908.256	16668
908.372	16618
908.488	16459
908.604	16409
908.72	16382
908.836	16360
908.952	16432
909.068	16333
909.184	16577
909.3	16443
909.415	16470
909.531	16409
909.647	16128
909.762	16207
909.878	16074
909.993	16177
910.108	16010
910.224	16044
910.339	16010
910.454	15987
910.57	15941
910.685	15739
910.8	16128
910.915	16071
911.03	15911
911.145	15690
911.259	15804
911.374	15732
911.489	15591
911.604	15637
911.718	15424
911.833	15443
911.947	15351
912.062	15332
912.176	15378
912.291	15466
912.405	15511
912.519	15644
912.633	15572
912.748	15519
912.862	15450
912.976	15283
913.09	15104
913.204	15218
913.318	15214
913.431	15496
913.545	15511
913.659	15355
913.772	15218
913.886	15112
914	15131
914.113	15100
914.226	15180
914.34	15093
914.453	15032
914.566	15119
914.68	14902
914.793	15020
914.906	14731
915.019	14606
915.132	14689
915.245	14712
915.358	14659
915.47	14750
915.583	14678
915.696	14720
915.809	14807
915.921	14838
916.034	14640
916.146	14518
916.259	14545
916.371	14720
916.483	14606
916.595	14590
916.708	14564
916.82	14617
916.932	14537
917.044	14526
917.156	14514
917.268	14370
917.38	14514
917.491	14385
917.603	14461
917.715	14469
917.826	14511
917.938	14278
918.049	14221
918.161	14400
918.272	14446
918.384	14438
918.495	14320
918.606	14172
918.717	14024
918.828	14183
918.939	14130
919.05	14058
919.161	14134
919.272	13936
919.383	13925
919.494	14157
919.604	14233
919.715	14161
919.826	13967
919.936	14050
920.047	14103
920.157	14172
920.267	14313
920.378	14168
920.488	14062
920.598	14294
920.708	14377
920.818	14282
920.928	14187
921.038	14400
921.148	14400
921.258	14073
921.368	14043
921.477	13909
921.587	13826
921.697	13734
921.806	13845
921.916	13712
922.025	13514
922.134	13620
922.244	13460
922.353	13578
922.462	13339
922.571	13297
922.68	13240
922.789	13164
922.898	13183
923.007	13057
923.116	13293
923.224	13175
923.333	13050
923.442	12973
923.55	13053
923.659	13088
923.767	13091
923.876	12966
923.984	12920
924.092	12905
924.201	13027
924.309	12829
924.417	12970
924.525	12810
924.633	12913
924.741	13788
924.849	12635
924.956	12757
925.064	12646
925.172	12623
925.279	12627
925.387	12601
925.494	12646
925.602	12681
925.709	12646
925.816	12532
925.924	12623
926.031	12623
926.138	12623
926.245	12574
926.352	12429
926.459	12540
926.566	12604
926.673	12544
926.779	12346
926.886	12414
926.993	12285
927.099	12159
927.206	12243
927.312	12152
927.419	12194
927.525	12106
927.631	12270
927.737	12034
927.843	11942
927.95	11889
928.056	11950
928.162	12034
928.267	12182
928.373	12612
928.479	12064
928.585	11859
928.69	11961
928.796	12030
928.901	11771
929.007	11729
929.112	11828
929.218	11859
929.323	11710
929.428	11745
929.533	11870
929.638	11665
929.743	11642
929.848	11764
929.953	11710
930.058	11611
930.163	11433
930.267	11539
930.372	11619
930.477	11372
930.581	11573
930.685	11467
930.79	11383
930.894	11364
930.998	11250
931.103	11414
931.207	11056
931.311	11029
931.415	10850
931.519	10702
931.623	10729
