Data from test_V78500241_3500.txt Node
Date: Fri Mar 25 15:34:13 CST 2022
User: usil
Spectrometer: V785-0024
Trigger mode: 0
Integration Time (sec): 4.000000E-1
Scans to average: 1
Nonlinearity correction enabled: false
Boxcar width: 0
Storing dark spectrum: false
XAxis mode: Wavelengths
Number of Pixels in Spectrum: 1024
>>>>>Begin Spectral Data<<<<<
801.071	27443
801.214	27249
801.356	26971
801.499	27036
801.641	26864
801.783	26804
801.926	26925
802.068	26781
802.211	26800
802.353	26560
802.496	26507
802.638	26408
802.78	26450
802.923	26526
803.065	26358
803.208	26404
803.35	26473
803.492	26636
803.635	26644
803.777	26568
803.919	26667
804.061	26982
804.204	26720
804.346	26590
804.488	26503
804.63	26590
804.773	26629
804.915	26617
805.057	26716
805.199	26514
805.341	26735
805.483	26792
805.626	26785
805.768	26663
805.91	26701
806.052	26724
806.194	26689
806.336	26944
806.478	26792
806.62	26678
806.762	26777
806.904	26952
807.046	27226
807.188	27272
807.33	27138
807.472	27066
807.614	27043
807.756	27089
807.898	26971
808.04	26918
808.182	27028
808.324	27001
808.465	27081
808.607	27036
808.749	27408
808.891	27492
809.033	27614
809.174	27435
809.316	27180
809.458	27245
809.6	27199
809.741	27420
809.883	27488
810.025	27633
810.166	27492
810.308	27743
810.45	27515
810.591	27477
810.733	27344
810.875	27214
811.016	27176
811.158	27256
811.299	27523
811.441	27473
811.582	27443
811.724	27325
811.865	27298
812.007	27340
812.148	27192
812.29	27161
812.431	27667
812.573	27705
812.714	27831
812.855	27778
812.997	27899
813.138	28036
813.279	28055
813.421	27941
813.562	27732
813.703	27701
813.845	27439
813.986	27344
814.127	27070
814.268	27058
814.41	27013
814.551	26994
814.692	26998
814.833	27013
814.974	26887
815.115	26940
815.256	26998
815.397	26788
815.539	26815
815.68	26876
815.821	26743
815.962	26963
816.103	26781
816.244	26651
816.385	26476
816.526	26473
816.666	26358
816.807	26119
816.948	26408
817.089	26423
817.23	26168
817.371	26294
817.512	26214
817.653	26275
817.793	26332
817.934	26157
818.075	26301
818.216	26164
818.356	26244
818.497	26183
818.638	25982
818.778	25966
818.919	25898
819.06	26016
819.2	26248
819.341	26298
819.481	26103
819.622	26431
819.762	26613
819.903	26556
820.043	26480
820.184	26339
820.324	26362
820.465	26431
820.605	26294
820.746	26286
820.886	26180
821.026	26278
821.167	26305
821.307	26446
821.447	26290
821.588	26088
821.728	26058
821.868	25864
822.008	25689
822.149	25677
822.289	25746
822.429	25422
822.569	25476
822.709	25343
822.849	25270
822.99	25175
823.13	25312
823.27	25194
823.41	25046
823.55	24943
823.69	25065
823.83	24935
823.97	24970
824.11	24814
824.25	24806
824.389	24951
824.529	24973
824.669	24973
824.809	24962
824.949	24916
825.089	25015
825.228	24821
825.368	24707
825.508	24692
825.648	24802
825.787	24852
825.927	24890
826.067	24707
826.206	24749
826.346	24730
826.485	24711
826.625	24631
826.765	24859
826.904	24825
827.044	24475
827.183	24441
827.323	24528
827.462	24536
827.601	24441
827.741	24391
827.88	24502
828.02	24448
828.159	24273
828.298	24437
828.437	24467
828.577	24479
828.716	24441
828.855	24338
828.994	24148
829.134	24171
829.273	24228
829.412	24117
829.551	24167
829.69	24102
829.829	24235
829.968	24315
830.107	24277
830.246	24178
830.385	24076
830.524	24030
830.663	23920
830.802	23969
830.941	23764
831.08	23779
831.219	23817
831.357	23874
831.496	23958
831.635	23809
831.774	23596
831.913	23665
832.051	23501
832.19	23589
832.329	23535
832.467	23592
832.606	23387
832.744	23395
832.883	23482
833.022	23512
833.16	23414
833.299	23395
833.437	23509
833.576	23421
833.714	23573
833.852	23623
833.991	23589
834.129	23497
834.267	23577
834.406	23406
834.544	23672
834.682	23535
834.821	23516
834.959	23794
835.097	23429
835.235	23501
835.373	23467
835.511	23611
835.65	23395
835.788	23448
835.926	23364
836.064	23250
836.202	23132
836.34	23296
836.478	23334
836.615	23231
836.753	23345
836.891	23360
837.029	23501
837.167	23273
837.305	23330
837.443	23292
837.58	23170
837.718	23254
837.856	23330
837.993	23193
838.131	23353
838.269	23128
838.406	23079
838.544	22987
838.681	22831
838.819	22771
838.956	22717
839.094	22664
839.231	22702
839.369	22790
839.506	23098
839.643	22942
839.781	22668
839.918	22637
840.055	22820
840.193	22588
840.33	22611
840.467	22835
840.604	22653
840.742	22805
840.879	22569
841.016	22470
841.153	22569
841.29	22729
841.427	22596
841.564	22645
841.701	22702
841.838	22687
841.975	22523
842.112	22702
842.249	22512
842.385	22424
842.522	22622
842.659	22588
842.796	22512
842.933	22447
843.069	22352
843.206	22306
843.343	22424
843.479	22291
843.616	22375
843.752	22280
843.889	22124
844.025	22443
844.162	22051
844.298	22242
844.435	22310
844.571	22112
844.708	22322
844.844	22443
844.98	22379
845.117	22371
845.253	22036
845.389	22070
845.525	22188
845.661	22006
845.798	21998
845.934	22021
846.07	21945
846.206	21926
846.342	21998
846.478	21888
846.614	21743
846.75	21591
846.886	21625
847.022	21618
847.158	21671
847.294	21622
847.429	21648
847.565	21614
847.701	22029
847.837	21363
847.972	21431
848.108	21507
848.244	21389
848.379	21351
848.515	21245
848.65	21150
848.786	21260
848.921	21264
849.057	21287
849.192	21192
849.328	21348
849.463	21176
849.598	21207
849.734	21184
849.869	21055
850.004	21066
850.14	21131
850.275	21051
850.41	20979
850.545	20902
850.68	21020
850.815	20982
850.95	21085
851.085	21070
851.22	21074
851.355	21028
851.49	21020
851.625	20979
851.76	21184
851.895	20918
852.03	20948
852.165	21119
852.299	21055
852.434	21039
852.569	21001
852.703	20944
852.838	21009
852.973	21100
853.107	21188
853.242	20933
853.376	20921
853.511	20682
853.645	20796
853.78	20902
853.914	20807
854.048	20906
854.183	20861
854.317	20800
854.451	21036
854.585	20952
854.72	20796
854.854	20880
854.988	20731
855.122	20819
855.256	20804
855.39	20910
855.524	20918
855.658	20868
855.792	20876
855.926	20960
856.06	20944
856.194	20849
856.327	20849
856.461	20785
856.595	20720
856.729	20838
856.862	20861
856.996	20918
857.13	20815
857.263	21043
857.397	20819
857.53	20773
857.664	20785
857.797	20868
857.931	20925
858.064	20792
858.197	20899
858.331	20701
858.464	20758
858.597	20716
858.731	20887
858.864	20819
858.997	20743
859.13	20769
859.263	20933
859.396	20868
859.529	20842
859.662	20781
859.795	20807
859.928	20887
860.061	20910
860.194	21043
860.327	20967
860.46	20872
860.592	20944
860.725	20921
860.858	20921
860.99	20823
861.123	20621
861.256	20815
861.388	20712
861.521	21538
861.653	20667
861.786	20560
861.918	20609
862.05	20705
862.183	20872
862.315	20792
862.447	20811
862.58	20731
862.712	20575
862.844	20621
862.976	20606
863.108	20579
863.24	21062
863.372	20396
863.504	20450
863.636	20545
863.768	20545
863.9	20545
864.032	20507
864.164	20473
864.296	20621
864.428	20655
864.559	20686
864.691	20701
864.823	20533
864.954	20537
865.086	20461
865.217	20514
865.349	20415
865.48	20511
865.612	20434
865.743	20587
865.875	20454
866.006	20484
866.137	20366
866.269	20454
866.4	20415
866.531	20332
866.662	20400
866.793	20374
866.924	20454
867.055	20442
867.186	20434
867.317	20366
867.448	20263
867.579	20286
867.71	20351
867.841	20244
867.972	20396
868.103	20336
868.233	20275
868.364	20415
868.495	20408
868.625	20636
868.756	20682
868.886	20522
869.017	20617
869.147	20693
869.278	20830
869.408	20636
869.539	20564
869.669	20575
869.799	20602
869.929	20724
870.06	20758
870.19	20880
870.32	21039
870.45	20914
870.58	21013
870.71	21203
870.84	21093
870.97	20845
871.1	20941
871.23	21154
871.36	21161
871.489	21119
871.619	21222
871.749	21154
871.879	21268
872.008	21370
872.138	21252
872.267	21268
872.397	21104
872.526	20982
872.656	21161
872.785	20941
872.915	21279
873.044	21355
873.173	21207
873.303	21302
873.432	21367
873.561	21393
873.69	21332
873.819	21230
873.948	21306
874.077	21275
874.206	21230
874.335	21173
874.464	21332
874.593	21545
874.722	21458
874.851	21500
874.979	21553
875.108	21523
875.237	21606
875.365	21332
875.494	21412
875.623	21534
875.751	21447
875.88	21652
876.008	21644
876.136	21724
876.265	21892
876.393	22067
876.521	22021
876.65	21964
876.778	22002
876.906	21827
877.034	21915
877.162	21911
877.29	21819
877.418	21918
877.546	21850
877.674	21850
877.802	21895
877.93	21857
878.058	21835
878.185	21781
878.313	21865
878.441	21797
878.568	21679
878.696	21797
878.824	21960
878.951	21838
879.079	22051
879.206	22090
879.333	22078
879.461	21873
879.588	22017
879.715	22093
879.842	22120
879.97	21869
880.097	21785
880.224	21644
880.351	21842
880.478	21709
880.605	21633
880.732	21762
880.859	21998
880.986	21675
881.112	21599
881.239	21599
881.366	21523
881.493	21355
881.619	21428
881.746	21317
881.872	21363
881.999	21264
882.125	21055
882.252	21336
882.378	21104
882.505	21374
882.631	21165
882.757	21024
882.883	21024
883.01	20899
883.136	20853
883.262	20838
883.388	20716
883.514	21043
883.64	20918
883.766	20925
883.892	20804
884.018	20746
884.143	20925
884.269	20895
884.395	20682
884.52	20659
884.646	20579
884.772	20530
884.897	20545
885.023	20686
885.148	20670
885.274	20758
885.399	20743
885.524	20495
885.65	20670
885.775	20693
885.9	20545
886.025	20838
886.15	20731
886.275	20602
886.4	20594
886.525	20522
886.65	20568
886.775	20587
886.9	20716
887.025	20853
887.149	20575
887.274	20396
887.399	20324
887.523	20419
887.648	20351
887.773	20187
887.897	20442
888.021	20476
888.146	20332
888.27	20526
888.395	20446
888.519	20427
888.643	20415
888.767	20427
888.891	20210
889.015	20199
889.139	20229
889.263	20119
889.387	20366
889.511	20454
889.635	20229
889.759	20214
889.883	20172
890.006	20149
890.13	20286
890.254	20130
890.377	20149
890.501	19898
890.624	19986
890.748	20058
890.871	19883
890.995	19670
891.118	19624
891.241	19780
891.364	19807
891.488	19841
891.611	19811
891.734	19731
891.857	19860
891.98	19856
892.103	19811
892.226	19788
892.349	19719
892.471	19426
892.594	19681
892.717	19753
892.839	19578
892.962	19655
893.085	19822
893.207	19616
893.33	19502
893.452	19491
893.575	19761
893.697	19647
893.819	19864
893.941	19940
894.064	19818
894.186	19499
894.308	19567
894.43	19803
894.552	19852
894.674	19746
894.796	19628
894.918	19791
895.04	19723
895.161	19689
895.283	19670
895.405	19651
895.526	19708
895.648	19643
895.769	19746
895.891	19632
896.012	19734
896.134	19708
896.255	19674
896.376	19681
896.498	19715
896.619	19727
896.74	19693
896.861	19712
896.982	20008
897.103	20103
897.224	19932
897.345	19951
897.466	19765
897.587	19814
897.708	19959
897.828	20008
897.949	19982
898.07	19769
898.19	19826
898.311	19967
898.431	19845
898.552	19849
898.672	20035
898.792	19967
898.913	19845
899.033	19856
899.153	19677
899.273	19559
899.393	19658
899.513	19559
899.633	19696
899.753	19616
899.873	19620
899.993	19677
900.113	19628
900.232	19681
900.352	19559
900.472	19540
900.591	19468
900.711	19445
900.83	19460
900.95	19544
901.069	19445
901.189	19369
901.308	19061
901.427	18951
901.546	19031
901.665	19046
901.784	19114
901.904	18962
902.023	18753
902.141	18616
902.26	18559
902.379	18726
902.498	18578
902.617	18490
902.735	18585
902.854	18513
902.973	18426
903.091	18235
903.21	18201
903.328	18186
903.446	18216
903.565	18053
903.683	18129
903.801	18015
903.919	18060
904.038	18197
904.156	17794
904.274	17824
904.392	17843
904.51	17745
904.627	17745
904.745	17771
904.863	17912
904.981	17630
905.098	17406
905.216	17455
905.334	17459
905.451	17516
905.569	17337
905.686	17493
905.803	17376
905.921	17315
906.038	17345
906.155	17326
906.272	17060
906.389	17242
906.506	17018
906.623	16999
906.74	17025
906.857	16927
906.974	16919
907.091	17083
907.208	17159
907.324	17003
907.441	16999
907.557	16805
907.674	16782
907.79	16774
907.907	16767
908.023	16725
908.139	16706
908.256	16702
908.372	16672
908.488	16702
908.604	16489
908.72	16519
908.836	16436
908.952	16424
909.068	16538
909.184	16706
909.3	16443
909.415	16546
909.531	16481
909.647	16147
909.762	16086
909.878	16158
909.993	16188
910.108	16128
910.224	16029
910.339	16196
910.454	16082
910.57	16032
910.685	15930
910.8	16181
910.915	16124
911.03	15949
911.145	15873
911.259	15766
911.374	15873
911.489	15808
911.604	15682
911.718	15443
911.833	15625
911.947	15370
912.062	15393
912.176	15526
912.291	15568
912.405	15534
912.519	15736
912.633	15701
912.748	15679
912.862	15500
912.976	15397
913.09	15260
913.204	15310
913.318	15336
913.431	15389
913.545	15412
913.659	15496
913.772	15294
913.886	15192
914	15154
914.113	15313
914.226	15279
914.34	15207
914.453	15146
914.566	15173
914.68	15043
914.793	15001
914.906	14781
915.019	14792
915.132	14796
915.245	14743
915.358	14792
915.47	14807
915.583	14762
915.696	14792
915.809	14952
915.921	14960
916.034	14667
916.146	14560
916.259	14712
916.371	14743
916.483	14701
916.595	14575
916.708	14689
916.82	14724
916.932	14545
917.044	14541
917.156	14583
917.268	14469
917.38	14473
917.491	14336
917.603	14389
917.715	14518
917.826	14473
917.938	14423
918.049	14233
918.161	14313
918.272	14476
918.384	14374
918.495	14381
918.606	14294
918.717	14119
918.828	14145
918.939	14164
919.05	14103
919.161	14221
919.272	14005
919.383	14069
919.494	14290
919.604	14358
919.715	14229
919.826	14134
919.936	14100
920.047	14271
920.157	14138
920.267	14404
920.378	14176
920.488	14210
920.598	14427
920.708	14556
920.818	14263
920.928	14278
921.038	14484
921.148	14351
921.258	14092
921.368	13974
921.477	13963
921.587	13932
921.697	13753
921.806	13974
921.916	13811
922.025	13559
922.134	13651
922.244	13480
922.353	13613
922.462	13499
922.571	13388
922.68	13240
922.789	13110
922.898	13274
923.007	13198
923.116	13164
923.224	13164
923.333	13217
923.442	13072
923.55	13080
923.659	13034
923.767	13080
923.876	13050
923.984	13023
924.092	12878
924.201	12935
924.309	12954
924.417	12985
924.525	12810
924.633	12935
924.741	13609
924.849	12719
924.956	12791
925.064	12681
925.172	12585
925.279	12684
925.387	12631
925.494	12631
925.602	12734
925.709	12677
925.816	12582
925.924	12608
926.031	12635
926.138	12566
926.245	12566
926.352	12399
926.459	12597
926.566	12722
926.673	12479
926.779	12357
926.886	12372
926.993	12300
927.099	12216
927.206	12247
927.312	12125
927.419	12296
927.525	12159
927.631	12197
927.737	12087
927.843	12045
927.95	11908
928.056	12064
928.162	12064
928.267	12041
928.373	12540
928.479	12083
928.585	11920
928.69	12049
928.796	12019
928.901	11984
929.007	11767
929.112	11901
929.218	11885
929.323	11901
929.428	11771
929.533	11988
929.638	11767
929.743	11733
929.848	11748
929.953	11756
930.058	11611
930.163	11493
930.267	11543
930.372	11691
930.477	11414
930.581	11729
930.685	11471
930.79	11452
930.894	11452
930.998	11356
931.103	11406
931.207	11079
931.311	11060
931.415	10934
931.519	10714
931.623	10782
