Data from test_V78500241_516.txt Node
Date: Fri Mar 25 15:13:27 CST 2022
User: usil
Spectrometer: V785-0024
Trigger mode: 0
Integration Time (sec): 4.000000E-1
Scans to average: 1
Nonlinearity correction enabled: false
Boxcar width: 0
Storing dark spectrum: false
XAxis mode: Wavelengths
Number of Pixels in Spectrum: 1024
>>>>>Begin Spectral Data<<<<<
801.071	27500
801.214	27340
801.356	27157
801.499	27188
801.641	26948
801.783	27195
801.926	27104
802.068	27043
802.211	26842
802.353	26940
802.496	26606
802.638	26583
802.78	26621
802.923	26655
803.065	26526
803.208	26598
803.35	26594
803.492	26842
803.635	26781
803.777	26708
803.919	26746
804.061	27195
804.204	26788
804.346	26785
804.488	26731
804.63	26819
804.773	26689
804.915	26792
805.057	26842
805.199	26868
805.341	26899
805.483	27024
805.626	26849
805.768	26876
805.91	26921
806.052	26929
806.194	26876
806.336	26998
806.478	26838
806.62	27001
806.762	27028
806.904	27237
807.046	27439
807.188	27370
807.33	27313
807.472	27439
807.614	27264
807.756	27230
807.898	27192
808.04	26998
808.182	27028
808.324	27195
808.465	27089
808.607	27287
808.749	27542
808.891	27663
809.033	27682
809.174	27481
809.316	27549
809.458	27488
809.6	27557
809.741	27679
809.883	27724
810.025	27816
810.166	27850
810.308	27762
810.45	27865
810.591	27762
810.733	27724
810.875	27485
811.016	27424
811.158	27496
811.299	27610
811.441	27686
811.582	27622
811.724	27447
811.865	27359
812.007	27603
812.148	27534
812.29	27580
812.431	27644
812.573	27823
812.714	27979
812.855	28135
812.997	28166
813.138	28295
813.279	28234
813.421	27979
813.562	28093
813.703	28006
813.845	27899
813.986	27629
814.127	27355
814.268	27416
814.41	27146
814.551	27188
814.692	27317
814.833	27058
814.974	27188
815.115	27165
815.256	27062
815.397	27085
815.539	27104
815.68	27081
815.821	26868
815.962	27005
816.103	27028
816.244	26933
816.385	26712
816.526	26788
816.666	26632
816.807	26286
816.948	26530
817.089	26609
817.23	26758
817.371	26492
817.512	26655
817.653	26465
817.793	26473
817.934	26511
818.075	26571
818.216	26476
818.356	26488
818.497	26347
818.638	26210
818.778	26248
818.919	26103
819.06	26332
819.2	26545
819.341	26465
819.481	26400
819.622	26674
819.762	26811
819.903	26720
820.043	26629
820.184	26556
820.324	26636
820.465	26731
820.605	26636
820.746	26651
820.886	26396
821.026	26629
821.167	26575
821.307	26651
821.447	26434
821.588	26492
821.728	26400
821.868	26161
822.008	25932
822.149	25928
822.289	26024
822.429	25731
822.569	25624
822.709	25769
822.849	25453
822.99	25483
823.13	25559
823.27	25449
823.41	25285
823.55	25148
823.69	25297
823.83	25282
823.97	25122
824.11	25137
824.25	25015
824.389	25057
824.529	25232
824.669	25034
824.809	25335
824.949	25175
825.089	25091
825.228	25179
825.368	24939
825.508	25099
825.648	25046
825.787	24992
825.927	25069
826.067	24977
826.206	24985
826.346	24901
826.485	25099
826.625	24844
826.765	25088
826.904	24928
827.044	24783
827.183	24795
827.323	24582
827.462	24616
827.601	24719
827.741	24703
827.88	24757
828.02	24585
828.159	24536
828.298	24825
828.437	24642
828.577	24627
828.716	24677
828.855	24547
828.994	24433
829.134	24410
829.273	24422
829.412	24350
829.551	24403
829.69	24380
829.829	24361
829.968	24509
830.107	24486
830.246	24369
830.385	24357
830.524	24247
830.663	24182
830.802	24251
830.941	23980
831.08	24015
831.219	24068
831.357	24117
831.496	24247
831.635	23950
831.774	23980
831.913	23821
832.051	23802
832.19	23695
832.329	23912
832.467	23832
832.606	23581
832.744	23634
832.883	23695
833.022	23657
833.16	23714
833.299	23695
833.437	23805
833.576	23786
833.714	23771
833.852	23821
833.991	23836
834.129	23885
834.267	23950
834.406	23779
834.544	23714
834.682	23729
834.821	23718
834.959	23889
835.097	23756
835.235	23912
835.373	23729
835.511	23767
835.65	23547
835.788	23680
835.926	23501
836.064	23509
836.202	23395
836.34	23703
836.478	23851
836.615	23512
836.753	23596
836.891	23623
837.029	23623
837.167	23551
837.305	23505
837.443	23436
837.58	23395
837.718	23436
837.856	23383
837.993	23417
838.131	23474
838.269	23372
838.406	23387
838.544	23254
838.681	23075
838.819	23048
838.956	22919
839.094	22919
839.231	23018
839.369	23075
839.506	23269
839.643	23178
839.781	22900
839.918	22805
840.055	22824
840.193	22900
840.33	22850
840.467	22984
840.604	22843
840.742	23143
840.879	22713
841.016	22748
841.153	22740
841.29	22915
841.427	22885
841.564	22900
841.701	22790
841.838	22748
841.975	22744
842.112	22828
842.249	22630
842.385	22565
842.522	22881
842.659	22706
842.796	22634
842.933	22527
843.069	22592
843.206	22580
843.343	22641
843.479	22649
843.616	22660
843.752	22379
843.889	22481
844.025	22413
844.162	22451
844.298	22424
844.435	22386
844.571	22424
844.708	22462
844.844	22485
844.98	22580
845.117	22382
845.253	22497
845.389	22150
845.525	22280
845.661	22219
845.798	22166
845.934	22215
846.07	22070
846.206	22162
846.342	22139
846.478	22074
846.614	22006
846.75	21918
846.886	21686
847.022	21937
847.158	21797
847.294	21926
847.429	21915
847.565	21934
847.701	22105
847.837	21557
847.972	21405
848.108	21618
848.244	21644
848.379	21523
848.515	21462
848.65	21507
848.786	21580
848.921	21416
849.057	21447
849.192	21549
849.328	21424
849.463	21458
849.598	21401
849.734	21393
849.869	21199
850.004	21214
850.14	21294
850.275	21161
850.41	21123
850.545	21180
850.68	21188
850.815	21245
850.95	21192
851.085	21351
851.22	21203
851.355	21264
851.49	21180
851.625	21157
851.76	21119
851.895	21291
852.03	21127
852.165	21313
852.299	21211
852.434	21317
852.569	21344
852.703	21226
852.838	21199
852.973	21325
853.107	21447
853.242	21195
853.376	21138
853.511	20971
853.645	20975
853.78	21123
853.914	21062
854.048	20998
854.183	21039
854.317	21047
854.451	21245
854.585	21085
854.72	20796
854.854	21165
854.988	20990
855.122	21032
855.256	21058
855.39	21047
855.524	21013
855.658	21024
855.792	21024
855.926	20982
856.06	21211
856.194	21135
856.327	20994
856.461	21051
856.595	20952
856.729	21066
856.862	21112
856.996	20906
857.13	21062
857.263	21123
857.397	21138
857.53	21020
857.664	21081
857.797	21146
857.931	21241
858.064	21119
858.197	21058
858.331	21020
858.464	21093
858.597	20861
858.731	20979
858.864	20914
858.997	21005
859.13	21100
859.263	21062
859.396	21173
859.529	21013
859.662	20982
859.795	20971
859.928	20929
860.061	21279
860.194	21180
860.327	21199
860.46	21066
860.592	21169
860.725	21176
860.858	21131
860.99	21138
861.123	20918
861.256	21047
861.388	20990
861.521	21797
861.653	20971
861.786	20971
861.918	20864
862.05	20906
862.183	21051
862.315	21081
862.447	21066
862.58	20933
862.712	20735
862.844	20579
862.976	20910
863.108	20910
863.24	21112
863.372	20659
863.504	20697
863.636	20773
863.768	20845
863.9	20861
864.032	20499
864.164	20667
864.296	20590
864.428	20925
864.559	20777
864.691	20952
864.823	20823
864.954	20762
865.086	20629
865.217	20640
865.349	20507
865.48	20644
865.612	20682
865.743	20796
865.875	20678
866.006	20613
866.137	20632
866.269	20667
866.4	20533
866.531	20537
866.662	20514
866.793	20484
866.924	20511
867.055	20442
867.186	20651
867.317	20613
867.448	20484
867.579	20632
867.71	20499
867.841	20465
867.972	20514
868.103	20587
868.233	20537
868.364	20587
868.495	20625
868.625	20838
868.756	20895
868.886	20727
869.017	20838
869.147	20857
869.278	20967
869.408	20781
869.539	20823
869.669	21020
869.799	20880
869.929	20967
870.06	20887
870.19	21100
870.32	21062
870.45	21180
870.58	21230
870.71	21252
870.84	21336
870.97	21112
871.1	21279
871.23	21332
871.36	21488
871.489	21336
871.619	21397
871.749	21443
871.879	21443
872.008	21492
872.138	21469
872.267	21435
872.397	21214
872.526	21199
872.656	21192
872.785	21378
872.915	21428
873.044	21568
873.173	21420
873.303	21526
873.432	21542
873.561	21511
873.69	21382
873.819	21519
873.948	21553
874.077	21507
874.206	21412
874.335	21488
874.464	21656
874.593	21701
874.722	21648
874.851	21724
874.979	21694
875.108	21614
875.237	21576
875.365	21717
875.494	21732
875.623	21751
875.751	21587
875.88	21759
876.008	21819
876.136	21918
876.265	22131
876.393	22200
876.521	22093
876.65	22158
876.778	22128
876.906	21937
877.034	21934
877.162	22059
877.29	21937
877.418	21926
877.546	21960
877.674	22002
877.802	22006
877.93	21968
878.058	21880
878.185	21941
878.313	22021
878.441	22010
878.568	21789
878.696	22067
878.824	22093
878.951	22196
879.079	22242
879.206	22310
879.333	22135
879.461	22044
879.588	22082
879.715	22265
879.842	22402
879.97	22082
880.097	21831
880.224	21808
880.351	21915
880.478	21903
880.605	21686
880.732	21934
880.859	21953
880.986	21762
881.112	21819
881.239	21873
881.366	21572
881.493	21500
881.619	21378
881.746	21504
881.872	21367
881.999	21336
882.125	21435
882.252	21485
882.378	21447
882.505	21370
882.631	21382
882.757	21222
882.883	21154
883.01	21165
883.136	21077
883.262	21074
883.388	20804
883.514	21154
883.64	21169
883.766	20952
883.892	20925
884.018	20925
884.143	21100
884.269	21051
884.395	20830
884.52	20712
884.646	20876
884.772	20746
884.897	20724
885.023	20842
885.148	20971
885.274	20883
885.399	20887
885.524	20735
885.65	20655
885.775	20811
885.9	20792
886.025	20868
886.15	20887
886.275	20845
886.4	20712
886.525	20765
886.65	20701
886.775	20686
886.9	20918
887.025	20838
887.149	20788
887.274	20503
887.399	20556
887.523	20606
887.648	20522
887.773	20419
887.897	20655
888.021	20587
888.146	20511
888.27	20667
888.395	20663
888.519	20590
888.643	20625
888.767	20594
888.891	20465
889.015	20389
889.139	20427
889.263	20415
889.387	20533
889.511	20503
889.635	20488
889.759	20377
889.883	20461
890.006	20396
890.13	20412
890.254	20218
890.377	20286
890.501	20229
890.624	20122
890.748	20142
890.871	20107
890.995	19978
891.118	19830
891.241	19986
891.364	19970
891.488	20043
891.611	19989
891.734	19936
891.857	19833
891.98	19906
892.103	19909
892.226	19868
892.349	19826
892.471	19811
892.594	19932
892.717	19830
892.839	19799
892.962	19974
893.085	19902
893.207	19753
893.33	19734
893.452	19757
893.575	19833
893.697	19814
893.819	19970
893.941	19967
894.064	20001
894.186	19761
894.308	19791
894.43	19849
894.552	19906
894.674	19928
894.796	19727
894.918	19807
895.04	19742
895.161	19936
895.283	19769
895.405	19772
895.526	19830
895.648	19769
895.769	19917
895.891	19986
896.012	19765
896.134	19772
896.255	19887
896.376	19662
896.498	19799
896.619	19982
896.74	19818
896.861	19868
896.982	20134
897.103	20256
897.224	20218
897.345	20084
897.466	19967
897.587	20077
897.708	20107
897.828	20035
897.949	19986
898.07	19879
898.19	19921
898.311	19978
898.431	19898
898.552	19978
898.672	20058
898.792	20073
898.913	20096
899.033	19932
899.153	19917
899.273	19772
899.393	19875
899.513	19906
899.633	19883
899.753	19719
899.873	19715
899.993	19814
900.113	19742
900.232	19753
900.352	19750
900.472	19674
900.591	19594
900.711	19548
900.83	19590
900.95	19548
901.069	19613
901.189	19510
901.308	19320
901.427	19126
901.546	19141
901.665	19278
901.784	19152
901.904	19050
902.023	18905
902.141	18677
902.26	18639
902.379	18776
902.498	18738
902.617	18661
902.735	18639
902.854	18661
902.973	18563
903.091	18414
903.21	18308
903.328	18372
903.446	18357
903.565	18270
903.683	18190
903.801	18194
903.919	18148
904.038	18019
904.156	17977
904.274	18087
904.392	18003
904.51	17961
904.627	17885
904.745	17950
904.863	18102
904.981	17901
905.098	17615
905.216	17649
905.334	17596
905.451	17707
905.569	17649
905.686	17665
905.803	17543
905.921	17383
906.038	17516
906.155	17387
906.272	17239
906.389	17242
906.506	17189
906.623	17223
906.74	17105
906.857	17025
906.974	17090
907.091	17159
907.208	17299
907.324	17124
907.441	17098
907.557	16850
907.674	16904
907.79	16793
907.907	16752
908.023	16923
908.139	16873
908.256	16740
908.372	16725
908.488	16782
908.604	16489
908.72	16554
908.836	16706
908.952	16618
909.068	16535
909.184	16744
909.3	16615
909.415	16637
909.531	16615
909.647	16329
909.762	16314
909.878	16257
909.993	16284
910.108	16249
910.224	16276
910.339	16219
910.454	16067
910.57	16135
910.685	16082
910.8	16329
910.915	16257
911.03	16082
911.145	15861
911.259	16067
911.374	16017
911.489	15895
911.604	15751
911.718	15595
911.833	15762
911.947	15549
912.062	15447
912.176	15606
912.291	15637
912.405	15675
912.519	15770
912.633	15819
912.748	15694
912.862	15633
912.976	15515
913.09	15443
913.204	15412
913.318	15462
913.431	15526
913.545	15561
913.659	15557
913.772	15370
913.886	15386
914	15332
914.113	15325
914.226	15275
914.34	15355
914.453	15169
914.566	15386
914.68	15252
914.793	15093
914.906	14868
915.019	14891
915.132	14868
915.245	14895
915.358	14864
915.47	14845
915.583	14849
915.696	14880
915.809	15005
915.921	14975
916.034	14830
916.146	14781
916.259	14705
916.371	14819
916.483	14826
916.595	14568
916.708	14610
916.82	14640
916.932	14781
917.044	14625
917.156	14720
917.268	14473
917.38	14651
917.491	14651
917.603	14533
917.715	14621
917.826	14606
917.938	14492
918.049	14400
918.161	14492
918.272	14648
918.384	14663
918.495	14465
918.606	14393
918.717	14358
918.828	14252
918.939	14362
919.05	14183
919.161	14317
919.272	14119
919.383	14187
919.494	14294
919.604	14556
919.715	14263
919.826	14256
919.936	14263
920.047	14415
920.157	14377
920.267	14465
920.378	14244
920.488	14256
920.598	14469
920.708	14575
920.818	14336
920.928	14358
921.038	14450
921.148	14514
921.258	14278
921.368	14180
921.477	14043
921.587	13944
921.697	13837
921.806	14126
921.916	13887
922.025	13719
922.134	13609
922.244	13525
922.353	13670
922.462	13563
922.571	13422
922.68	13316
922.789	13335
922.898	13411
923.007	13240
923.116	13381
923.224	13270
923.333	13293
923.442	13187
923.55	13171
923.659	13194
923.767	13244
923.876	13126
923.984	13190
924.092	13095
924.201	13088
924.309	13065
924.417	13141
924.525	12962
924.633	13008
924.741	13803
924.849	12783
924.956	12962
925.064	12829
925.172	12760
925.279	12734
925.387	12760
925.494	12795
925.602	12848
925.709	12856
925.816	12631
925.924	12654
926.031	12764
926.138	12662
926.245	12798
926.352	12589
926.459	12677
926.566	12757
926.673	12604
926.779	12506
926.886	12433
926.993	12350
927.099	12254
927.206	12266
927.312	12361
927.419	12334
927.525	12292
927.631	12429
927.737	12144
927.843	12220
927.95	12072
928.056	12258
928.162	12110
928.267	12232
928.373	12738
928.479	12194
928.585	11961
928.69	12148
928.796	12178
928.901	12057
929.007	11866
929.112	12015
929.218	11912
929.323	11927
929.428	11874
929.533	11878
929.638	11805
929.743	11764
929.848	11824
929.953	11794
930.058	11726
930.163	11486
930.267	11577
930.372	11695
930.477	11471
930.581	11775
930.685	11600
930.79	11410
930.894	11455
930.998	11444
931.103	11558
931.207	11220
931.311	11067
931.415	11010
931.519	10858
931.623	10919
