Data from test_V78500241_3389.txt Node
Date: Fri Mar 25 15:33:27 CST 2022
User: usil
Spectrometer: V785-0024
Trigger mode: 0
Integration Time (sec): 4.000000E-1
Scans to average: 1
Nonlinearity correction enabled: false
Boxcar width: 0
Storing dark spectrum: false
XAxis mode: Wavelengths
Number of Pixels in Spectrum: 1024
>>>>>Begin Spectral Data<<<<<
801.071	27279
801.214	27020
801.356	27051
801.499	26815
801.641	26731
801.783	26606
801.926	26815
802.068	26655
802.211	26587
802.353	26602
802.496	26385
802.638	26336
802.78	26457
802.923	26149
803.065	26221
803.208	26267
803.35	26248
803.492	26419
803.635	26461
803.777	26366
803.919	26450
804.061	26781
804.204	26636
804.346	26377
804.488	26317
804.63	26522
804.773	26305
804.915	26507
805.057	26560
805.199	26465
805.341	26507
805.483	26518
805.626	26522
805.768	26461
805.91	26739
806.052	26526
806.194	26499
806.336	26712
806.478	26693
806.62	26526
806.762	26682
806.904	26796
807.046	27043
807.188	26940
807.33	26948
807.472	26956
807.614	26845
807.756	26921
807.898	26769
808.04	26758
808.182	26720
808.324	26720
808.465	26872
808.607	26933
808.749	27055
808.891	27203
809.033	27275
809.174	27275
809.316	27096
809.458	27207
809.6	27085
809.741	27245
809.883	27268
810.025	27317
810.166	27408
810.308	27504
810.45	27359
810.591	27378
810.733	27039
810.875	27116
811.016	27005
811.158	26975
811.299	27150
811.441	27298
811.582	27211
811.724	27233
811.865	27135
812.007	27085
812.148	27051
812.29	27096
812.431	27378
812.573	27420
812.714	27458
812.855	27591
812.997	27797
813.138	27846
813.279	27698
813.421	27732
813.562	27591
813.703	27500
813.845	27294
813.986	26899
814.127	26861
814.268	26929
814.41	26834
814.551	26644
814.692	26807
814.833	26724
814.974	26693
815.115	26804
815.256	26701
815.397	26606
815.539	26769
815.68	26575
815.821	26571
815.962	26564
816.103	26476
816.244	26347
816.385	26332
816.526	26206
816.666	26100
816.807	26084
816.948	26103
817.089	26145
817.23	26164
817.371	25982
817.512	26005
817.653	26035
817.793	26012
817.934	26027
818.075	26065
818.216	26062
818.356	26119
818.497	25986
818.638	25811
818.778	25830
818.919	25772
819.06	25864
819.2	25864
819.341	26088
819.481	26088
819.622	26161
819.762	26347
819.903	26377
820.043	26202
820.184	26275
820.324	26138
820.465	26237
820.605	26164
820.746	26081
820.886	25864
821.026	26046
821.167	26107
821.307	26084
821.447	26077
821.588	25955
821.728	25761
821.868	25666
822.008	25521
822.149	25453
822.289	25525
822.429	25084
822.569	25209
822.709	25217
822.849	25126
822.99	25053
823.13	25004
823.27	25008
823.41	24844
823.55	24696
823.69	24871
823.83	24844
823.97	24760
824.11	24631
824.25	24719
824.389	24631
824.529	24608
824.669	24688
824.809	24825
824.949	24722
825.089	24639
825.228	24688
825.368	24471
825.508	24525
825.648	24418
825.787	24688
825.927	24395
826.067	24517
826.206	24513
826.346	24540
826.485	24612
826.625	24486
826.765	24764
826.904	24517
827.044	24308
827.183	24270
827.323	24125
827.462	24281
827.601	24372
827.741	24266
827.88	24296
828.02	24140
828.159	24209
828.298	24155
828.437	24243
828.577	24121
828.716	24239
828.855	24133
828.994	23942
829.134	23843
829.273	24007
829.412	23851
829.551	23916
829.69	24053
829.829	23946
829.968	24018
830.107	24030
830.246	23961
830.385	23802
830.524	23843
830.663	23619
830.802	23786
830.941	23581
831.08	23547
831.219	23630
831.357	23615
831.496	23752
831.635	23535
831.774	23554
831.913	23459
832.051	23360
832.19	23220
832.329	23345
832.467	23216
832.606	23284
832.744	23159
832.883	23216
833.022	23197
833.16	23284
833.299	23356
833.437	23166
833.576	23216
833.714	23299
833.852	23395
833.991	23414
834.129	23455
834.267	23391
834.406	23421
834.544	23398
834.682	23387
834.821	23258
834.959	23524
835.097	23258
835.235	23383
835.373	23296
835.511	23292
835.65	23143
835.788	23273
835.926	23025
836.064	22915
836.202	23044
836.34	23208
836.478	23292
836.615	23147
836.753	23056
836.891	23280
837.029	23155
837.167	23071
837.305	23018
837.443	22987
837.58	23086
837.718	23178
837.856	23079
837.993	22915
838.131	23022
838.269	22980
838.406	23041
838.544	22972
838.681	22584
838.819	22645
838.956	22588
839.094	22470
839.231	22554
839.369	22694
839.506	22816
839.643	22744
839.781	22474
839.918	22470
840.055	22569
840.193	22371
840.33	22455
840.467	22462
840.604	22447
840.742	22557
840.879	22363
841.016	22344
841.153	22360
841.29	22569
841.427	22421
841.564	22580
841.701	22402
841.838	22318
841.975	22333
842.112	22409
842.249	22249
842.385	22272
842.522	22363
842.659	22249
842.796	22185
842.933	22242
843.069	22116
843.206	22143
843.343	22375
843.479	22181
843.616	22128
843.752	22036
843.889	22002
844.025	22192
844.162	21956
844.298	22147
844.435	21930
844.571	21911
844.708	22006
844.844	22032
844.98	22074
845.117	22139
845.253	21915
845.389	21907
845.525	21804
845.661	21937
845.798	21720
845.934	21770
846.07	21641
846.206	21675
846.342	21869
846.478	21774
846.614	21576
846.75	21355
846.886	21439
847.022	21496
847.158	21428
847.294	21450
847.429	21553
847.565	21435
847.701	21717
847.837	21195
847.972	21131
848.108	21256
848.244	21260
848.379	21127
848.515	21024
848.65	20952
848.786	20971
848.921	21138
849.057	21123
849.192	20990
849.328	21116
849.463	21123
849.598	20986
849.734	20937
849.869	21001
850.004	20823
850.14	20842
850.275	20724
850.41	20743
850.545	20796
850.68	20891
850.815	20788
850.95	20708
851.085	20918
851.22	20963
851.355	20864
851.49	20830
851.625	20765
851.76	20830
851.895	20796
852.03	20648
852.165	20883
852.299	20781
852.434	21013
852.569	20815
852.703	20895
852.838	20929
852.973	20769
853.107	20899
853.242	20727
853.376	20655
853.511	20514
853.645	20682
853.78	20773
853.914	20731
854.048	20571
854.183	20579
854.317	20678
854.451	20800
854.585	20735
854.72	20686
854.854	20735
854.988	20689
855.122	20697
855.256	20533
855.39	20632
855.524	20682
855.658	20762
855.792	20712
855.926	20746
856.06	20716
856.194	20682
856.327	20617
856.461	20579
856.595	20552
856.729	20632
856.862	20674
856.996	20758
857.13	20731
857.263	20678
857.397	20857
857.53	20609
857.664	20754
857.797	20781
857.931	20762
858.064	20849
858.197	20788
858.331	20617
858.464	20587
858.597	20659
858.731	20568
858.864	20724
858.997	20655
859.13	20594
859.263	20621
859.396	20864
859.529	20644
859.662	20644
859.795	20617
859.928	20640
860.061	20769
860.194	20899
860.327	20823
860.46	20697
860.592	20826
860.725	20777
860.858	20895
860.99	20693
861.123	20457
861.256	20644
861.388	20587
861.521	21336
861.653	20461
861.786	20514
861.918	20598
862.05	20587
862.183	20579
862.315	20655
862.447	20651
862.58	20583
862.712	20442
862.844	20347
862.976	20404
863.108	20488
863.24	20861
863.372	20313
863.504	20415
863.636	20461
863.768	20370
863.9	20370
864.032	20415
864.164	20423
864.296	20396
864.428	20454
864.559	20385
864.691	20476
864.823	20415
864.954	20355
865.086	20355
865.217	20248
865.349	20290
865.48	20271
865.612	20396
865.743	20438
865.875	20351
866.006	20157
866.137	20252
866.269	20324
866.4	20317
866.531	20214
866.662	20305
866.793	20191
866.924	20237
867.055	20191
867.186	20237
867.317	20202
867.448	20138
867.579	20294
867.71	20149
867.841	20142
867.972	20214
868.103	20301
868.233	20218
868.364	20259
868.495	20237
868.625	20427
868.756	20503
868.886	20423
869.017	20503
869.147	20484
869.278	20507
869.408	20476
869.539	20473
869.669	20560
869.799	20511
869.929	20495
870.06	20587
870.19	20678
870.32	20678
870.45	20838
870.58	20880
870.71	20963
870.84	21013
870.97	20807
871.1	20842
871.23	20994
871.36	21062
871.489	21017
871.619	21039
871.749	21066
871.879	21074
872.008	21256
872.138	21047
872.267	21138
872.397	20883
872.526	20857
872.656	20796
872.785	20868
872.915	21123
873.044	21173
873.173	21085
873.303	21188
873.432	21074
873.561	21211
873.69	21173
873.819	21173
873.948	21207
874.077	21085
874.206	21096
874.335	21062
874.464	21131
874.593	21294
874.722	21397
874.851	21344
874.979	21279
875.108	21367
875.237	21336
875.365	21256
875.494	21291
875.623	21389
875.751	21268
875.88	21481
876.008	21564
876.136	21599
876.265	21797
876.393	21857
876.521	21861
876.65	21812
876.778	21873
876.906	21660
877.034	21686
877.162	21694
877.29	21667
877.418	21770
877.546	21732
877.674	21713
877.802	21850
877.93	21759
878.058	21743
878.185	21572
878.313	21614
878.441	21583
878.568	21523
878.696	21599
878.824	21622
878.951	21789
879.079	21983
879.206	21911
879.333	21926
879.461	21838
879.588	21835
879.715	21880
879.842	21918
879.97	21831
880.097	21473
880.224	21511
880.351	21568
880.478	21637
880.605	21511
880.732	21614
880.859	21671
880.986	21572
881.112	21618
881.239	21294
881.366	21279
881.493	21272
881.619	21146
881.746	21157
881.872	21138
881.999	21104
882.125	21020
882.252	21180
882.378	21192
882.505	21184
882.631	20967
882.757	20777
882.883	20921
883.01	20823
883.136	20830
883.262	20697
883.388	20716
883.514	20807
883.64	20849
883.766	20716
883.892	20636
884.018	20613
884.143	20785
884.269	20941
884.395	20518
884.52	20552
884.646	20499
884.772	20343
884.897	20320
885.023	20457
885.148	20461
885.274	20613
885.399	20632
885.524	20480
885.65	20408
885.775	20393
885.9	20381
886.025	20537
886.15	20564
886.275	20408
886.4	20457
886.525	20423
886.65	20415
886.775	20362
886.9	20579
887.025	20708
887.149	20465
887.274	20271
887.399	20172
887.523	20362
887.648	20199
887.773	20176
887.897	20263
888.021	20271
888.146	20221
888.27	20317
888.395	20237
888.519	20309
888.643	20202
888.767	20244
888.891	20214
889.015	19982
889.139	20145
889.263	20035
889.387	20122
889.511	20282
889.635	20119
889.759	20050
889.883	20062
890.006	20092
890.13	20024
890.254	19898
890.377	19947
890.501	19788
890.624	19750
890.748	19944
890.871	19582
890.995	19597
891.118	19616
891.241	19666
891.364	19601
891.488	19826
891.611	19590
891.734	19624
891.857	19719
891.98	19696
892.103	19674
892.226	19731
892.349	19719
892.471	19396
892.594	19613
892.717	19578
892.839	19563
892.962	19605
893.085	19624
893.207	19483
893.33	19407
893.452	19460
893.575	19571
893.697	19533
893.819	19685
893.941	19628
894.064	19712
894.186	19476
894.308	19521
894.43	19590
894.552	19601
894.674	19609
894.796	19502
894.918	19441
895.04	19521
895.161	19563
895.283	19616
895.405	19514
895.526	19552
895.648	19514
895.769	19548
895.891	19647
896.012	19719
896.134	19597
896.255	19586
896.376	19483
896.498	19582
896.619	19457
896.74	19514
896.861	19628
896.982	19780
897.103	20126
897.224	19955
897.345	19750
897.466	19620
897.587	19868
897.708	19849
897.828	19826
897.949	19696
898.07	19666
898.19	19670
898.311	19757
898.431	19670
898.552	19856
898.672	19928
898.792	19871
898.913	19757
899.033	19685
899.153	19647
899.273	19419
899.393	19487
899.513	19480
899.633	19430
899.753	19510
899.873	19464
899.993	19605
900.113	19506
900.232	19537
900.352	19403
900.472	19259
900.591	19274
900.711	19266
900.83	19324
900.95	19422
901.069	19377
901.189	19285
901.308	19023
901.427	18840
901.546	18886
901.665	18989
901.784	18962
901.904	18844
902.023	18711
902.141	18540
902.26	18460
902.379	18502
902.498	18407
902.617	18391
902.735	18388
902.854	18479
902.973	18372
903.091	18171
903.21	18159
903.328	18064
903.446	18053
903.565	17889
903.683	17904
903.801	17851
903.919	17931
904.038	17821
904.156	17680
904.274	17798
904.392	17756
904.51	17646
904.627	17695
904.745	17726
904.863	17710
904.981	17493
905.098	17299
905.216	17349
905.334	17421
905.451	17436
905.569	17284
905.686	17360
905.803	17398
905.921	17212
906.038	17269
906.155	17216
906.272	17022
906.389	16980
906.506	16847
906.623	16957
906.74	16866
906.857	16744
906.974	16797
907.091	16957
907.208	17048
907.324	16858
907.441	16809
907.557	16672
907.674	16634
907.79	16516
907.907	16615
908.023	16725
908.139	16672
908.256	16558
908.372	16489
908.488	16421
908.604	16432
908.72	16417
908.836	16348
908.952	16284
909.068	16310
909.184	16405
909.3	16379
909.415	16424
909.531	16337
909.647	16116
909.762	16093
909.878	16040
909.993	15998
910.108	16063
910.224	15953
910.339	15994
910.454	15945
910.57	15911
910.685	15804
910.8	16135
910.915	15991
911.03	15850
911.145	15633
911.259	15606
911.374	15698
911.489	15515
911.604	15538
911.718	15317
911.833	15439
911.947	15351
912.062	15237
912.176	15488
912.291	15416
912.405	15435
912.519	15656
912.633	15580
912.748	15310
912.862	15439
912.976	15272
913.09	15150
913.204	15218
913.318	15214
913.431	15298
913.545	15279
913.659	15340
913.772	15142
913.886	15108
914	15097
914.113	15108
914.226	15161
914.34	15055
914.453	14952
914.566	15131
914.68	14937
914.793	14796
914.906	14636
915.019	14655
915.132	14556
915.245	14663
915.358	14762
915.47	14640
915.583	14682
915.696	14720
915.809	14735
915.921	14777
916.034	14617
916.146	14564
916.259	14499
916.371	14579
916.483	14560
916.595	14507
916.708	14541
916.82	14530
916.932	14465
917.044	14511
917.156	14412
917.268	14259
917.38	14332
917.491	14259
917.603	14309
917.715	14362
917.826	14530
917.938	14252
918.049	14123
918.161	14313
918.272	14362
918.384	14366
918.495	14328
918.606	14092
918.717	14065
918.828	14062
918.939	14035
919.05	13940
919.161	14046
919.272	13856
919.383	13974
919.494	14123
919.604	14309
919.715	14058
919.826	14005
919.936	14119
920.047	14111
920.157	14130
920.267	14286
920.378	14096
920.488	14069
920.598	14161
920.708	14366
920.818	14305
920.928	14138
921.038	14343
921.148	14301
921.258	14024
921.368	13932
921.477	13830
921.587	13772
921.697	13655
921.806	13803
921.916	13681
922.025	13624
922.134	13521
922.244	13491
922.353	13521
922.462	13373
922.571	13244
922.68	13236
922.789	13103
922.898	13076
923.007	13088
923.116	13076
923.224	13190
923.333	13053
923.442	13012
923.55	12837
923.659	12989
923.767	12966
923.876	12810
923.984	12958
924.092	12920
924.201	12920
924.309	12935
924.417	12840
924.525	12894
924.633	12875
924.741	13655
924.849	12593
924.956	12715
925.064	12563
925.172	12570
925.279	12559
925.387	12650
925.494	12578
925.602	12688
925.709	12684
925.816	12536
925.924	12475
926.031	12688
926.138	12498
926.245	12563
926.352	12437
926.459	12601
926.566	12559
926.673	12441
926.779	12369
926.886	12308
926.993	12190
927.099	12129
927.206	12216
927.312	12262
927.419	12144
927.525	12224
927.631	12216
927.737	12102
927.843	11980
927.95	11897
928.056	11927
928.162	12015
928.267	12007
928.373	12578
928.479	11988
928.585	11855
928.69	12007
928.796	11984
928.901	11840
929.007	11676
929.112	11908
929.218	11851
929.323	11786
929.428	11714
929.533	11836
929.638	11752
929.743	11653
929.848	11661
929.953	11752
930.058	11608
930.163	11383
930.267	11421
930.372	11589
930.477	11421
930.581	11608
930.685	11398
930.79	11292
930.894	11337
930.998	11239
931.103	11410
931.207	11018
931.311	10984
931.415	10904
931.519	10771
931.623	10694
