Data from test_V78500241_158.txt Node
Date: Fri Mar 25 15:10:57 CST 2022
User: usil
Spectrometer: V785-0024
Trigger mode: 0
Integration Time (sec): 4.000000E-1
Scans to average: 1
Nonlinearity correction enabled: false
Boxcar width: 0
Storing dark spectrum: false
XAxis mode: Wavelengths
Number of Pixels in Spectrum: 1024
>>>>>Begin Spectral Data<<<<<
801.071	27987
801.214	27941
801.356	27770
801.499	27656
801.641	27675
801.783	27587
801.926	27545
802.068	27641
802.211	27450
802.353	27443
802.496	27207
802.638	27233
802.78	27214
802.923	27039
803.065	27051
803.208	27001
803.35	27268
803.492	27188
803.635	27351
803.777	27184
803.919	27287
804.061	27580
804.204	27283
804.346	27085
804.488	27020
804.63	27116
804.773	27108
804.915	27150
805.057	27241
805.199	27188
805.341	27291
805.483	27359
805.626	27302
805.768	27131
805.91	27203
806.052	27226
806.194	27203
806.336	27450
806.478	27237
806.62	27249
806.762	27275
806.904	27458
807.046	27835
807.188	27713
807.33	27717
807.472	27652
807.614	27538
807.756	27625
807.898	27504
808.04	27386
808.182	27492
808.324	27648
808.465	27420
808.607	27747
808.749	27774
808.891	27960
809.033	27930
809.174	27812
809.316	27842
809.458	27903
809.6	27781
809.741	27975
809.883	27835
810.025	28181
810.166	27998
810.308	28074
810.45	28192
810.591	27994
810.733	27770
810.875	27846
811.016	27576
811.158	27622
811.299	27774
811.441	27850
811.582	27899
811.724	27614
811.865	27785
812.007	27808
812.148	27736
812.29	27724
812.431	27953
812.573	27972
812.714	28017
812.855	28238
812.997	28276
813.138	28508
813.279	28348
813.421	28223
813.562	28173
813.703	28051
813.845	27956
813.986	27675
814.127	27344
814.268	27538
814.41	27359
814.551	27500
814.692	27439
814.833	27294
814.974	27272
815.115	27405
815.256	27207
815.397	27176
815.539	27237
815.68	27036
815.821	26899
815.962	27108
816.103	27104
816.244	27043
816.385	26853
816.526	26948
816.666	26686
816.807	26465
816.948	26712
817.089	26705
817.23	26541
817.371	26564
817.512	26453
817.653	26575
817.793	26613
817.934	26556
818.075	26560
818.216	26423
818.356	26522
818.497	26453
818.638	26172
818.778	26119
818.919	26256
819.06	26309
819.2	26313
819.341	26446
819.481	26396
819.622	26594
819.762	26720
819.903	26804
820.043	26739
820.184	26594
820.324	26560
820.465	26712
820.605	26552
820.746	26575
820.886	26377
821.026	26518
821.167	26606
821.307	26545
821.447	26442
821.588	26366
821.728	26218
821.868	26092
822.008	25822
822.149	26012
822.289	25951
822.429	25670
822.569	25582
822.709	25476
822.849	25373
822.99	25301
823.13	25392
823.27	25339
823.41	25240
823.55	25133
823.69	25141
823.83	25137
823.97	25213
824.11	24951
824.25	24951
824.389	25069
824.529	25099
824.669	25057
824.809	25175
824.949	24905
825.089	25080
825.228	25019
825.368	24738
825.508	24829
825.648	24852
825.787	24890
825.927	24951
826.067	24829
826.206	24692
826.346	24779
826.485	24779
826.625	24829
826.765	24821
826.904	24722
827.044	24528
827.183	24513
827.323	24471
827.462	24460
827.601	24376
827.741	24395
827.88	24483
828.02	24433
828.159	24311
828.298	24452
828.437	24521
828.577	24384
828.716	24585
828.855	24327
828.994	24125
829.134	24201
829.273	24235
829.412	24140
829.551	24041
829.69	24148
829.829	24174
829.968	24239
830.107	24277
830.246	24133
830.385	24072
830.524	23969
830.663	23977
830.802	23836
830.941	23676
831.08	23687
831.219	23771
831.357	23809
831.496	23923
831.635	23668
831.774	23665
831.913	23726
832.051	23554
832.19	23414
832.329	23505
832.467	23360
832.606	23406
832.744	23493
832.883	23334
833.022	23406
833.16	23554
833.299	23566
833.437	23322
833.576	23402
833.714	23433
833.852	23387
833.991	23463
834.129	23505
834.267	23516
834.406	23410
834.544	23391
834.682	23379
834.821	23398
834.959	23402
835.097	23364
835.235	23436
835.373	23269
835.511	23379
835.65	23170
835.788	23204
835.926	23208
836.064	23140
836.202	23109
836.34	23162
836.478	23376
836.615	23277
836.753	23242
836.891	23322
837.029	23284
837.167	23292
837.305	23136
837.443	23052
837.58	23159
837.718	23071
837.856	23090
837.993	22885
838.131	23136
838.269	22900
838.406	22995
838.544	22816
838.681	22790
838.819	22683
838.956	22474
839.094	22447
839.231	22527
839.369	22702
839.506	22980
839.643	22694
839.781	22424
839.918	22466
840.055	22394
840.193	22432
840.33	22386
840.467	22440
840.604	22508
840.742	22786
840.879	22280
841.016	22257
841.153	22219
841.29	22443
841.427	22459
841.564	22333
841.701	22382
841.838	22451
841.975	22436
842.112	22280
842.249	22200
842.385	22074
842.522	22249
842.659	22215
842.796	22139
842.933	22169
843.069	22109
843.206	22169
843.343	22135
843.479	22090
843.616	22154
843.752	21930
843.889	21899
844.025	21991
844.162	21778
844.298	21895
844.435	21838
844.571	21865
844.708	21888
844.844	21937
844.98	22082
845.117	21991
845.253	21842
845.389	21861
845.525	21759
845.661	21804
845.798	21485
845.934	21633
846.07	21545
846.206	21637
846.342	21797
846.478	21603
846.614	21336
846.75	21233
846.886	21268
847.022	21367
847.158	21469
847.294	21401
847.429	21435
847.565	21275
847.701	21610
847.837	21070
847.972	21127
848.108	21161
848.244	21093
848.379	20937
848.515	20902
848.65	20864
848.786	20830
848.921	20948
849.057	20994
849.192	20979
849.328	20967
849.463	20971
849.598	20868
849.734	20785
849.869	20758
850.004	20708
850.14	20693
850.275	20663
850.41	20625
850.545	20697
850.68	20617
850.815	20697
850.95	20522
851.085	20731
851.22	20693
851.355	20598
851.49	20636
851.625	20594
851.76	20602
851.895	20511
852.03	20518
852.165	20568
852.299	20594
852.434	20750
852.569	20629
852.703	20564
852.838	20606
852.973	20720
853.107	20773
853.242	20686
853.376	20374
853.511	20343
853.645	20370
853.78	20613
853.914	20476
854.048	20461
854.183	20427
854.317	20438
854.451	20617
854.585	20431
854.72	20366
854.854	20514
854.988	20389
855.122	20518
855.256	20263
855.39	20377
855.524	20457
855.658	20514
855.792	20488
855.926	20396
856.06	20499
856.194	20446
856.327	20438
856.461	20271
856.595	20366
856.729	20442
856.862	20514
856.996	20427
857.13	20511
857.263	20434
857.397	20571
857.53	20507
857.664	20423
857.797	20450
857.931	20442
858.064	20339
858.197	20560
858.331	20385
858.464	20389
858.597	20328
858.731	20267
858.864	20408
858.997	20324
859.13	20412
859.263	20396
859.396	20408
859.529	20320
859.662	20385
859.795	20229
859.928	20396
860.061	20533
860.194	20636
860.327	20385
860.46	20427
860.592	20442
860.725	20598
860.858	20541
860.99	20454
861.123	20454
861.256	20294
861.388	20381
861.521	21169
861.653	20370
861.786	20149
861.918	20351
862.05	20377
862.183	20374
862.315	20526
862.447	20415
862.58	20355
862.712	20149
862.844	20100
862.976	20115
863.108	20183
863.24	20488
863.372	19940
863.504	20103
863.636	20069
863.768	20134
863.9	20069
864.032	20008
864.164	20054
864.296	20027
864.428	20157
864.559	20252
864.691	20107
864.823	20065
864.954	20031
865.086	20119
865.217	19936
865.349	19951
865.48	19974
865.612	19875
865.743	20096
865.875	19986
866.006	19925
866.137	20122
866.269	19932
866.4	19978
866.531	19944
866.662	19849
866.793	19845
866.924	19818
867.055	19921
867.186	19928
867.317	19909
867.448	19795
867.579	19875
867.71	19807
867.841	19807
867.972	19883
868.103	20027
868.233	19951
868.364	20046
868.495	20024
868.625	20153
868.756	20324
868.886	20077
869.017	20267
869.147	20218
869.278	20259
869.408	20214
869.539	20142
869.669	20221
869.799	20199
869.929	20244
870.06	20263
870.19	20400
870.32	20461
870.45	20499
870.58	20480
870.71	20606
870.84	20686
870.97	20594
871.1	20598
871.23	20716
871.36	20743
871.489	20663
871.619	20682
871.749	20674
871.879	20674
872.008	20826
872.138	20804
872.267	20727
872.397	20667
872.526	20629
872.656	20598
872.785	20526
872.915	20826
873.044	20830
873.173	20815
873.303	20880
873.432	20830
873.561	20918
873.69	20777
873.819	20849
873.948	20830
874.077	20948
874.206	20659
874.335	20781
874.464	20834
874.593	21036
874.722	21043
874.851	21055
874.979	21157
875.108	21024
875.237	21017
875.365	20941
875.494	20948
875.623	21142
875.751	21013
875.88	21020
876.008	21233
876.136	21374
876.265	21408
876.393	21534
876.521	21542
876.65	21485
876.778	21473
876.906	21298
877.034	21256
877.162	21287
877.29	21393
877.418	21378
877.546	21397
877.674	21542
877.802	21389
877.93	21412
878.058	21268
878.185	21230
878.313	21363
878.441	21321
878.568	21329
878.696	21374
878.824	21443
878.951	21496
879.079	21572
879.206	21606
879.333	21595
879.461	21519
879.588	21458
879.715	21542
879.842	21679
879.97	21488
880.097	21245
880.224	21230
880.351	21245
880.478	21104
880.605	21123
880.732	21245
880.859	21481
880.986	21332
881.112	21199
881.239	21070
881.366	20979
881.493	20804
881.619	20796
881.746	20819
881.872	20693
881.999	20792
882.125	20727
882.252	20735
882.378	20804
882.505	20914
882.631	20648
882.757	20545
882.883	20686
883.01	20492
883.136	20499
883.262	20404
883.388	20320
883.514	20564
883.64	20503
883.766	20503
883.892	20332
884.018	20427
884.143	20423
884.269	20564
884.395	20252
884.52	20145
884.646	20195
884.772	20069
884.897	20054
885.023	20301
885.148	20202
885.274	20408
885.399	20259
885.524	20096
885.65	20214
885.775	20172
885.9	20134
886.025	20278
886.15	20164
886.275	20035
886.4	20043
886.525	20145
886.65	20111
886.775	20039
886.9	20278
887.025	20442
887.149	20092
887.274	19986
887.399	19986
887.523	19856
887.648	19879
887.773	19894
887.897	20005
888.021	19932
888.146	19890
888.27	20115
888.395	19997
888.519	19909
888.643	19894
888.767	19917
888.891	19887
889.015	19635
889.139	19651
889.263	19635
889.387	19875
889.511	19928
889.635	19837
889.759	19689
889.883	19704
890.006	19674
890.13	19849
890.254	19712
890.377	19738
890.501	19434
890.624	19396
890.748	19529
890.871	19354
890.995	19293
891.118	19270
891.241	19232
891.364	19324
891.488	19381
891.611	19377
891.734	19206
891.857	19312
891.98	19339
892.103	19358
892.226	19255
892.349	19255
892.471	19160
892.594	19266
892.717	19251
892.839	19247
892.962	19282
893.085	19308
893.207	19221
893.33	19236
893.452	19190
893.575	19171
893.697	19179
893.819	19350
893.941	19480
894.064	19373
894.186	19145
894.308	19031
894.43	19289
894.552	19377
894.674	19400
894.796	19084
894.918	19289
895.04	19122
895.161	19202
895.283	19282
895.405	19133
895.526	19194
895.648	19285
895.769	19289
895.891	19301
896.012	19327
896.134	19354
896.255	19274
896.376	19206
896.498	19228
896.619	19266
896.74	19320
896.861	19350
896.982	19666
897.103	19700
897.224	19575
897.345	19388
897.466	19575
897.587	19438
897.708	19563
897.828	19518
897.949	19419
898.07	19426
898.19	19464
898.311	19567
898.431	19419
898.552	19384
898.672	19514
898.792	19487
898.913	19544
899.033	19438
899.153	19358
899.273	19232
899.393	19255
899.513	19251
899.633	19244
899.753	19213
899.873	19091
899.993	19114
900.113	19217
900.232	19187
900.352	19118
900.472	18928
900.591	18993
900.711	18973
900.83	19027
900.95	19183
901.069	19152
901.189	18875
901.308	18772
901.427	18608
901.546	18631
901.665	18612
901.784	18703
901.904	18536
902.023	18384
902.141	18190
902.26	18201
902.379	18235
902.498	18098
902.617	18064
902.735	18140
902.854	18095
902.973	18015
903.091	17821
903.21	17889
903.328	17703
903.446	17634
903.565	17699
903.683	17699
903.801	17376
903.919	17665
904.038	17566
904.156	17414
904.274	17474
904.392	17398
904.51	17345
904.627	17364
904.745	17425
904.863	17364
904.981	17322
905.098	17117
905.216	17010
905.334	17075
905.451	17048
905.569	17075
905.686	17052
905.803	17071
905.921	16854
906.038	16968
906.155	16904
906.272	16744
906.389	16752
906.506	16531
906.623	16725
906.74	16641
906.857	16558
906.974	16516
907.091	16634
907.208	16778
907.324	16573
907.441	16580
907.557	16428
907.674	16367
907.79	16230
907.907	16261
908.023	16314
908.139	16272
908.256	16169
908.372	16200
908.488	16158
908.604	16006
908.72	15979
908.836	16040
908.952	15964
909.068	16036
909.184	16109
909.3	16093
909.415	16006
909.531	16055
909.647	15880
909.762	15781
909.878	15720
909.993	15751
910.108	15625
910.224	15606
910.339	15671
910.454	15564
910.57	15534
910.685	15488
910.8	15755
910.915	15698
911.03	15412
911.145	15317
911.259	15218
911.374	15306
911.489	15237
911.604	15142
911.718	15100
911.833	15039
911.947	14933
912.062	14807
912.176	15028
912.291	15077
912.405	15081
912.519	15188
912.633	15188
912.748	15055
912.862	15005
912.976	14857
913.09	14762
913.204	14830
913.318	14830
913.431	14876
913.545	15009
913.659	14956
913.772	14762
913.886	14754
914	14674
914.113	14762
914.226	14804
914.34	14792
914.453	14560
914.566	14697
914.68	14659
914.793	14389
914.906	14366
915.019	14267
915.132	14183
915.245	14324
915.358	14305
915.47	14317
915.583	14336
915.696	14347
915.809	14427
915.921	14415
916.034	14218
916.146	14244
916.259	14164
916.371	14301
916.483	14176
916.595	14176
916.708	14092
916.82	14142
916.932	14096
917.044	14065
917.156	14073
917.268	14054
917.38	14020
917.491	13936
917.603	13974
917.715	14126
917.826	14084
917.938	13989
918.049	13894
918.161	13928
918.272	14005
918.384	14096
918.495	13936
918.606	13761
918.717	13772
918.828	13776
918.939	13799
919.05	13647
919.161	13666
919.272	13533
919.383	13601
919.494	13704
919.604	13974
919.715	13696
919.826	13624
919.936	13666
920.047	13731
920.157	13719
920.267	13982
920.378	13734
920.488	13753
920.598	13917
920.708	14012
920.818	13849
920.928	13917
921.038	14020
921.148	14001
921.258	13670
921.368	13639
921.477	13502
921.587	13430
921.697	13312
921.806	13464
921.916	13331
922.025	13206
922.134	13023
922.244	12943
922.353	13164
922.462	12977
922.571	12901
922.68	12783
922.789	12700
922.898	12738
923.007	12719
923.116	12753
923.224	12745
923.333	12700
923.442	12654
923.55	12540
923.659	12536
923.767	12642
923.876	12563
923.984	12555
924.092	12547
924.201	12490
924.309	12612
924.417	12521
924.525	12448
924.633	12475
924.741	13209
924.849	12209
924.956	12452
925.064	12209
925.172	12140
925.279	12163
925.387	12266
925.494	12140
925.602	12372
925.709	12258
925.816	12125
925.924	12178
926.031	12292
926.138	12178
926.245	12159
926.352	12068
926.459	12205
926.566	12224
926.673	12106
926.779	12019
926.886	11885
926.993	11866
927.099	11779
927.206	11741
927.312	11745
927.419	11889
927.525	11805
927.631	11855
927.737	11657
927.843	11615
927.95	11482
928.056	11646
928.162	11634
928.267	11680
928.373	12152
928.479	11630
928.585	11459
928.69	11646
928.796	11688
928.901	11570
929.007	11292
929.112	11493
929.218	11467
929.323	11372
929.428	11417
929.533	11478
929.638	11231
929.743	11349
929.848	11383
929.953	11269
930.058	11220
930.163	11102
930.267	11083
930.372	11273
930.477	11025
930.581	11265
930.685	11132
930.79	10953
930.894	10953
930.998	10953
931.103	11060
931.207	10717
931.311	10637
931.415	10569
931.519	10390
931.623	10310
