Data from test_V78500241_332.txt Node
Date: Fri Mar 25 15:12:10 CST 2022
User: usil
Spectrometer: V785-0024
Trigger mode: 0
Integration Time (sec): 4.000000E-1
Scans to average: 1
Nonlinearity correction enabled: false
Boxcar width: 0
Storing dark spectrum: false
XAxis mode: Wavelengths
Number of Pixels in Spectrum: 1024
>>>>>Begin Spectral Data<<<<<
801.071	27039
801.214	26929
801.356	26765
801.499	26758
801.641	26492
801.783	26632
801.926	26826
802.068	26689
802.211	26594
802.353	26450
802.496	26385
802.638	26244
802.78	26210
802.923	26134
803.065	26278
803.208	26214
803.35	26278
803.492	26351
803.635	26374
803.777	26145
803.919	26412
804.061	26686
804.204	26438
804.346	26419
804.488	26282
804.63	26343
804.773	26252
804.915	26328
805.057	26476
805.199	26473
805.341	26518
805.483	26461
805.626	26526
805.768	26431
805.91	26461
806.052	26503
806.194	26366
806.336	26648
806.478	26461
806.62	26503
806.762	26655
806.904	26701
807.046	26986
807.188	26781
807.33	26819
807.472	27070
807.614	26948
807.756	26921
807.898	26686
808.04	26621
808.182	26689
808.324	26800
808.465	26853
808.607	26849
808.749	26933
808.891	27176
809.033	27218
809.174	27161
809.316	27062
809.458	27085
809.6	27085
809.741	27123
809.883	27116
810.025	27466
810.166	27420
810.308	27325
810.45	27485
810.591	27325
810.733	27047
810.875	27039
811.016	26967
811.158	26982
811.299	27127
811.441	27302
811.582	27135
811.724	26944
811.865	27074
812.007	26963
812.148	27047
812.29	27157
812.431	27154
812.573	27374
812.714	27348
812.855	27519
812.997	27755
813.138	27789
813.279	27583
813.421	27564
813.562	27523
813.703	27344
813.845	27199
813.986	27001
814.127	26823
814.268	26731
814.41	26769
814.551	26712
814.692	26804
814.833	26636
814.974	26781
815.115	26743
815.256	26583
815.397	26583
815.539	26629
815.68	26347
815.821	26594
815.962	26556
816.103	26495
816.244	26396
816.385	26317
816.526	26328
816.666	26145
816.807	25955
816.948	25951
817.089	26084
817.23	25982
817.371	26020
817.512	26119
817.653	25966
817.793	25974
817.934	25993
818.075	25982
818.216	26020
818.356	25944
818.497	25864
818.638	25666
818.778	25662
818.919	25753
819.06	25826
819.2	25776
819.341	25963
819.481	25959
819.622	26122
819.762	26256
819.903	26111
820.043	26119
820.184	25989
820.324	25997
820.465	26221
820.605	26092
820.746	26020
820.886	25826
821.026	26046
821.167	26081
821.307	26142
821.447	25841
821.588	25913
821.728	25693
821.868	25624
822.008	25381
822.149	25312
822.289	25403
822.429	25107
822.569	25160
822.709	25091
822.849	24973
822.99	24977
823.13	24916
823.27	24951
823.41	24726
823.55	24700
823.69	24760
823.83	24753
823.97	24669
824.11	24563
824.25	24521
824.389	24490
824.529	24616
824.669	24661
824.809	24677
824.949	24650
825.089	24555
825.228	24661
825.368	24551
825.508	24494
825.648	24521
825.787	24456
825.927	24388
826.067	24300
826.206	24445
826.346	24525
826.485	24437
826.625	24494
826.765	24494
826.904	24479
827.044	24194
827.183	24243
827.323	24068
827.462	24087
827.601	24133
827.741	24140
827.88	24144
828.02	23969
828.159	24003
828.298	24083
828.437	24148
828.577	23977
828.716	24209
828.855	24068
828.994	23927
829.134	23901
829.273	23931
829.412	23885
829.551	23893
829.69	23855
829.829	23939
829.968	23954
830.107	23958
830.246	23893
830.385	23726
830.524	23741
830.663	23714
830.802	23718
830.941	23395
831.08	23505
831.219	23570
831.357	23558
831.496	23790
831.635	23436
831.774	23322
831.913	23315
832.051	23311
832.19	23246
832.329	23459
832.467	23246
832.606	23220
832.744	23174
832.883	23166
833.022	23143
833.16	23170
833.299	23227
833.437	23166
833.576	23212
833.714	23204
833.852	23216
833.991	23334
834.129	23322
834.267	23231
834.406	23159
834.544	23220
834.682	23349
834.821	23227
834.959	23372
835.097	23162
835.235	23189
835.373	23265
835.511	23242
835.65	23128
835.788	22972
835.926	22839
836.064	22812
836.202	22923
836.34	23162
836.478	23239
836.615	22991
836.753	23079
836.891	23174
837.029	23029
837.167	22980
837.305	22995
837.443	22968
837.58	22938
837.718	22869
837.856	22961
837.993	22904
838.131	22942
838.269	22793
838.406	22755
838.544	22668
838.681	22436
838.819	22573
838.956	22497
839.094	22386
839.231	22390
839.369	22481
839.506	22831
839.643	22634
839.781	22436
839.918	22325
840.055	22409
840.193	22421
840.33	22402
840.467	22287
840.604	22375
840.742	22599
840.879	22086
841.016	22261
841.153	22188
841.29	22561
841.427	22223
841.564	22325
841.701	22303
841.838	22223
841.975	22230
842.112	22261
842.249	22105
842.385	22017
842.522	22238
842.659	22181
842.796	22029
842.933	22097
843.069	22090
843.206	22074
843.343	22112
843.479	22257
843.616	22207
843.752	21854
843.889	21816
844.025	22090
844.162	21949
844.298	21983
844.435	21800
844.571	21895
844.708	21899
844.844	21941
844.98	21880
845.117	21907
845.253	21827
845.389	21751
845.525	21785
845.661	21717
845.798	21507
845.934	21667
846.07	21595
846.206	21660
846.342	21690
846.478	21587
846.614	21545
846.75	21298
846.886	21389
847.022	21370
847.158	21378
847.294	21313
847.429	21424
847.565	21291
847.701	21542
847.837	21161
847.972	21100
848.108	21138
848.244	21211
848.379	20990
848.515	20895
848.65	20880
848.786	21013
848.921	20967
849.057	21096
849.192	20979
849.328	20998
849.463	20918
849.598	20849
849.734	20956
849.869	20838
850.004	20670
850.14	20792
850.275	20598
850.41	20678
850.545	20640
850.68	20663
850.815	20727
850.95	20693
851.085	20937
851.22	20849
851.355	20632
851.49	20731
851.625	20758
851.76	20678
851.895	20636
852.03	20625
852.165	20705
852.299	20765
852.434	20674
852.569	20682
852.703	20651
852.838	20785
852.973	20941
853.107	20830
853.242	20777
853.376	20621
853.511	20480
853.645	20476
853.78	20587
853.914	20583
854.048	20457
854.183	20518
854.317	20541
854.451	20655
854.585	20545
854.72	20492
854.854	20579
854.988	20442
855.122	20522
855.256	20385
855.39	20454
855.524	20625
855.658	20602
855.792	20526
855.926	20492
856.06	20648
856.194	20579
856.327	20530
856.461	20385
856.595	20469
856.729	20484
856.862	20575
856.996	20514
857.13	20701
857.263	20754
857.397	20648
857.53	20541
857.664	20617
857.797	20648
857.931	20667
858.064	20530
858.197	20659
858.331	20465
858.464	20438
858.597	20431
858.731	20507
858.864	20537
858.997	20545
859.13	20522
859.263	20549
859.396	20629
859.529	20381
859.662	20488
859.795	20465
859.928	20476
860.061	20594
860.194	20750
860.327	20530
860.46	20469
860.592	20651
860.725	20602
860.858	20686
860.99	20564
861.123	20446
861.256	20457
861.388	20629
861.521	21135
861.653	20374
861.786	20240
861.918	20404
862.05	20454
862.183	20480
862.315	20450
862.447	20579
862.58	20320
862.712	20263
862.844	20191
862.976	20457
863.108	20294
863.24	20792
863.372	20210
863.504	20176
863.636	20313
863.768	20259
863.9	20301
864.032	20183
864.164	20172
864.296	20240
864.428	20305
864.559	20294
864.691	20294
864.823	20347
864.954	20317
865.086	20214
865.217	20256
865.349	20050
865.48	20202
865.612	20168
865.743	20339
865.875	20092
866.006	20149
866.137	20134
866.269	20206
866.4	20240
866.531	20088
866.662	20012
866.793	20012
866.924	20107
867.055	20073
867.186	20016
867.317	20073
867.448	19989
867.579	20024
867.71	19944
867.841	19928
867.972	20008
868.103	20050
868.233	20001
868.364	20214
868.495	20157
868.625	20339
868.756	20526
868.886	20229
869.017	20286
869.147	20537
869.278	20469
869.408	20396
869.539	20328
869.669	20396
869.799	20404
869.929	20343
870.06	20423
870.19	20602
870.32	20625
870.45	20693
870.58	20743
870.71	20724
870.84	20788
870.97	20705
871.1	20697
871.23	20819
871.36	20811
871.489	20792
871.619	20845
871.749	20838
871.879	21001
872.008	21112
872.138	20918
872.267	20929
872.397	20838
872.526	20777
872.656	20739
872.785	20819
872.915	20921
873.044	21104
873.173	20921
873.303	20960
873.432	21020
873.561	20948
873.69	20986
873.819	20933
873.948	21077
874.077	20902
874.206	20864
874.335	20857
874.464	21066
874.593	21226
874.722	21169
874.851	21180
874.979	21074
875.108	21104
875.237	21192
875.365	21051
875.494	21123
875.623	21237
875.751	21150
875.88	21169
876.008	21218
876.136	21386
876.265	21641
876.393	21686
876.521	21743
876.65	21682
876.778	21625
876.906	21568
877.034	21496
877.162	21583
877.29	21492
877.418	21610
877.546	21542
877.674	21549
877.802	21488
877.93	21530
878.058	21557
878.185	21507
878.313	21462
878.441	21515
878.568	21424
878.696	21538
878.824	21587
878.951	21652
879.079	21797
879.206	21907
879.333	21747
879.461	21534
879.588	21709
879.715	21587
879.842	21808
879.97	21660
880.097	21469
880.224	21447
880.351	21401
880.478	21374
880.605	21283
880.732	21462
880.859	21641
880.986	21313
881.112	21428
881.239	21336
881.366	21154
881.493	21081
881.619	20990
881.746	21043
881.872	20963
881.999	20864
882.125	21055
882.252	20994
882.378	21036
882.505	21119
882.631	20868
882.757	20743
882.883	20785
883.01	20697
883.136	20598
883.262	20636
883.388	20564
883.514	20857
883.64	20697
883.766	20568
883.892	20381
884.018	20465
884.143	20625
884.269	20739
884.395	20381
884.52	20423
884.646	20328
884.772	20115
884.897	20305
885.023	20370
885.148	20511
885.274	20476
885.399	20488
885.524	20347
885.65	20389
885.775	20267
885.9	20298
886.025	20499
886.15	20366
886.275	20366
886.4	20191
886.525	20377
886.65	20358
886.775	20210
886.9	20374
887.025	20537
887.149	20358
887.274	20039
887.399	20024
887.523	20142
887.648	20020
887.773	20046
887.897	20218
888.021	20084
888.146	20096
888.27	20138
888.395	20290
888.519	20077
888.643	20161
888.767	20225
888.891	20100
889.015	19921
889.139	19955
889.263	19883
889.387	19989
889.511	20100
889.635	20020
889.759	19887
889.883	19795
890.006	19913
890.13	19932
890.254	19803
890.377	19864
890.501	19712
890.624	19719
890.748	19750
890.871	19529
890.995	19514
891.118	19422
891.241	19556
891.364	19502
891.488	19613
891.611	19544
891.734	19609
891.857	19559
891.98	19537
892.103	19510
892.226	19464
892.349	19548
892.471	19202
892.594	19426
892.717	19381
892.839	19434
892.962	19453
893.085	19449
893.207	19343
893.33	19198
893.452	19350
893.575	19521
893.697	19495
893.819	19590
893.941	19715
894.064	19464
894.186	19304
894.308	19381
894.43	19476
894.552	19510
894.674	19460
894.796	19320
894.918	19365
895.04	19407
895.161	19506
895.283	19518
895.405	19365
895.526	19457
895.648	19350
895.769	19419
895.891	19594
896.012	19365
896.134	19453
896.255	19422
896.376	19274
896.498	19411
896.619	19578
896.74	19464
896.861	19483
896.982	19780
897.103	19871
897.224	19685
897.345	19575
897.466	19670
897.587	19605
897.708	19708
897.828	19662
897.949	19578
898.07	19392
898.19	19594
898.311	19700
898.431	19662
898.552	19708
898.672	19655
898.792	19658
898.913	19559
899.033	19510
899.153	19362
899.273	19297
899.393	19400
899.513	19476
899.633	19301
899.753	19426
899.873	19354
899.993	19441
900.113	19312
900.232	19339
900.352	19278
900.472	19324
900.591	19148
900.711	19228
900.83	19217
900.95	19343
901.069	19228
901.189	19061
901.308	18753
901.427	18833
901.546	18795
901.665	18802
901.784	18802
901.904	18707
902.023	18604
902.141	18388
902.26	18300
902.379	18479
902.498	18315
902.617	18281
902.735	18372
902.854	18273
902.973	18338
903.091	17935
903.21	17870
903.328	18015
903.446	17912
903.565	17908
903.683	17794
903.801	17634
903.919	17710
904.038	17638
904.156	17619
904.274	17535
904.392	17547
904.51	17558
904.627	17627
904.745	17528
904.863	17615
904.981	17433
905.098	17242
905.216	17322
905.334	17315
905.451	17356
905.569	17296
905.686	17280
905.803	17159
905.921	17014
906.038	17159
906.155	17178
906.272	17048
906.389	16942
906.506	16812
906.623	16801
906.74	16862
906.857	16740
906.974	16733
907.091	16809
907.208	16850
907.324	16710
907.441	16733
907.557	16485
907.674	16542
907.79	16485
907.907	16466
908.023	16466
908.139	16474
908.256	16466
908.372	16428
908.488	16375
908.604	16230
908.72	16287
908.836	16246
908.952	16131
909.068	16284
909.184	16413
909.3	16188
909.415	16249
909.531	16200
909.647	16124
909.762	15827
909.878	15930
909.993	15998
910.108	15979
910.224	16029
910.339	15873
910.454	15770
910.57	15819
910.685	15709
910.8	15994
910.915	15975
911.03	15842
911.145	15709
911.259	15599
911.374	15530
911.489	15485
911.604	15469
911.718	15306
911.833	15351
911.947	15157
912.062	15108
912.176	15298
912.291	15332
912.405	15329
912.519	15431
912.633	15545
912.748	15294
912.862	15264
912.976	15154
913.09	14929
913.204	15100
913.318	15108
913.431	15256
913.545	15287
913.659	15161
913.772	15108
913.886	15009
914	14994
914.113	14998
914.226	15009
914.34	15024
914.453	14853
914.566	14971
914.68	14876
914.793	14777
914.906	14625
915.019	14545
915.132	14511
915.245	14636
915.358	14602
915.47	14556
915.583	14514
915.696	14629
915.809	14697
915.921	14720
916.034	14511
916.146	14499
916.259	14499
916.371	14583
916.483	14537
916.595	14381
916.708	14393
916.82	14362
916.932	14339
917.044	14317
917.156	14324
917.268	14180
917.38	14324
917.491	14225
917.603	14157
917.715	14320
917.826	14328
917.938	14168
918.049	14130
918.161	14134
918.272	14351
918.384	14343
918.495	14229
918.606	14054
918.717	13940
918.828	14035
918.939	13955
919.05	13902
919.161	13875
919.272	13761
919.383	13906
919.494	14027
919.604	14180
919.715	14016
919.826	13887
919.936	13898
920.047	14043
920.157	14046
920.267	14157
920.378	13925
920.488	13898
920.598	14161
920.708	14267
920.818	14024
920.928	14054
921.038	14294
921.148	14088
921.258	13826
921.368	13841
921.477	13753
921.587	13738
921.697	13609
921.806	13742
921.916	13601
922.025	13491
922.134	13392
922.244	13270
922.353	13377
922.462	13259
922.571	13198
922.68	13038
922.789	13019
922.898	13107
923.007	12962
923.116	13050
923.224	13012
923.333	13004
923.442	12924
923.55	12829
923.659	12878
923.767	12958
923.876	12890
923.984	12920
924.092	12787
924.201	12886
924.309	12825
924.417	12863
924.525	12658
924.633	12642
924.741	13487
924.849	12513
924.956	12696
925.064	12525
925.172	12407
925.279	12464
925.387	12506
925.494	12471
925.602	12566
925.709	12502
925.816	12350
925.924	12414
926.031	12544
926.138	12380
926.245	12403
926.352	12304
926.459	12513
926.566	12471
926.673	12357
926.779	12296
926.886	12273
926.993	12041
927.099	12038
927.206	12026
927.312	11980
927.419	12053
927.525	11973
927.631	12167
927.737	12011
927.843	11824
927.95	11756
928.056	11866
928.162	11904
928.267	11969
928.373	12555
928.479	11958
928.585	11638
928.69	11760
928.796	11870
928.901	11668
929.007	11634
929.112	11783
929.218	11680
929.323	11573
929.428	11570
929.533	11726
929.638	11440
929.743	11665
929.848	11577
929.953	11604
930.058	11448
930.163	11330
930.267	11345
930.372	11398
930.477	11292
930.581	11589
930.685	11353
930.79	11250
930.894	11277
930.998	11166
931.103	11315
931.207	10942
931.311	10908
931.415	10820
931.519	10641
931.623	10561
