Data from test_V78500241_406.txt Node
Date: Fri Mar 25 15:12:41 CST 2022
User: usil
Spectrometer: V785-0024
Trigger mode: 0
Integration Time (sec): 4.000000E-1
Scans to average: 1
Nonlinearity correction enabled: false
Boxcar width: 0
Storing dark spectrum: false
XAxis mode: Wavelengths
Number of Pixels in Spectrum: 1024
>>>>>Begin Spectral Data<<<<<
801.071	26975
801.214	26792
801.356	26678
801.499	26564
801.641	26541
801.783	26587
801.926	26701
802.068	26583
802.211	26480
802.353	26556
802.496	26374
802.638	26339
802.78	26073
802.923	26183
803.065	26081
803.208	26084
803.35	26149
803.492	26278
803.635	26271
803.777	26267
803.919	26423
804.061	26743
804.204	26404
804.346	26396
804.488	26286
804.63	26377
804.773	26263
804.915	26305
805.057	26473
805.199	26328
805.341	26400
805.483	26526
805.626	26503
805.768	26256
805.91	26408
806.052	26438
806.194	26408
806.336	26587
806.478	26549
806.62	26385
806.762	26549
806.904	26686
807.046	26975
807.188	26872
807.33	26895
807.472	26982
807.614	26762
807.756	26769
807.898	26712
808.04	26518
808.182	26583
808.324	26670
808.465	26609
808.607	26708
808.749	26956
808.891	27043
809.033	27036
809.174	27199
809.316	27066
809.458	27032
809.6	26940
809.741	27169
809.883	27142
810.025	27214
810.166	27313
810.308	27249
810.45	27237
810.591	27150
810.733	27017
810.875	27077
811.016	27108
811.158	26937
811.299	27077
811.441	27089
811.582	27127
811.724	26929
811.865	26902
812.007	26963
812.148	26994
812.29	26979
812.431	27157
812.573	27241
812.714	27439
812.855	27583
812.997	27690
813.138	27720
813.279	27667
813.421	27545
813.562	27325
813.703	27405
813.845	27199
813.986	26807
814.127	26815
814.268	26629
814.41	26743
814.551	26682
814.692	26750
814.833	26537
814.974	26727
815.115	26682
815.256	26560
815.397	26590
815.539	26427
815.68	26499
815.821	26514
815.962	26526
816.103	26457
816.244	26195
816.385	26164
816.526	26092
816.666	26077
816.807	25909
816.948	26035
817.089	26221
817.23	26035
817.371	25940
817.512	25966
817.653	25955
817.793	25845
817.934	25879
818.075	25868
818.216	25982
818.356	25978
818.497	25951
818.638	25689
818.778	25670
818.919	25647
819.06	25826
819.2	25906
819.341	25928
819.481	25959
819.622	26062
819.762	26206
819.903	26187
820.043	26054
820.184	26157
820.324	26001
820.465	26050
820.605	26016
820.746	26157
820.886	25864
821.026	26035
821.167	26012
821.307	26054
821.447	25864
821.588	25811
821.728	25715
821.868	25647
822.008	25438
822.149	25331
822.289	25384
822.429	24996
822.569	24973
822.709	24935
822.849	24973
822.99	24901
823.13	24787
823.27	24833
823.41	24673
823.55	24642
823.69	24844
823.83	24783
823.97	24688
824.11	24441
824.25	24464
824.389	24494
824.529	24654
824.669	24555
824.809	24578
824.949	24608
825.089	24547
825.228	24578
825.368	24357
825.508	24315
825.648	24452
825.787	24418
825.927	24559
826.067	24410
826.206	24403
826.346	24357
826.485	24486
826.625	24327
826.765	24483
826.904	24372
827.044	24174
827.183	24133
827.323	24079
827.462	24121
827.601	24106
827.741	24239
827.88	24235
828.02	24072
828.159	23954
828.298	24060
828.437	24125
828.577	24064
828.716	24254
828.855	24072
828.994	23954
829.134	23794
829.273	23897
829.412	23847
829.551	23916
829.69	23817
829.829	23840
829.968	23851
830.107	23882
830.246	23836
830.385	23661
830.524	23710
830.663	23611
830.802	23676
830.941	23440
831.08	23505
831.219	23608
831.357	23547
831.496	23608
831.635	23531
831.774	23398
831.913	23303
832.051	23212
832.19	23349
832.329	23368
832.467	23200
832.606	23022
832.744	23105
832.883	23044
833.022	23140
833.16	23121
833.299	23193
833.437	23174
833.576	23235
833.714	23242
833.852	23265
833.991	23303
834.129	23242
834.267	23292
834.406	23185
834.544	23311
834.682	23200
834.821	23105
834.959	23296
835.097	23147
835.235	23231
835.373	23204
835.511	23220
835.65	22976
835.788	23079
835.926	22885
836.064	22904
836.202	22831
836.34	23155
836.478	23121
836.615	23014
836.753	23124
836.891	23181
837.029	23083
837.167	22946
837.305	23094
837.443	22854
837.58	22801
837.718	23014
837.856	23029
837.993	22835
838.131	22961
838.269	22797
838.406	22858
838.544	22634
838.681	22523
838.819	22546
838.956	22398
839.094	22371
839.231	22455
839.369	22679
839.506	22736
839.643	22618
839.781	22341
839.918	22322
840.055	22432
840.193	22356
840.33	22265
840.467	22333
840.604	22360
840.742	22527
840.879	22253
841.016	22314
841.153	22188
841.29	22398
841.427	22356
841.564	22375
841.701	22280
841.838	22268
841.975	22185
842.112	22246
842.249	22105
842.385	22013
842.522	22303
842.659	22021
842.796	21968
842.933	22257
843.069	22116
843.206	21956
843.343	22135
843.479	22025
843.616	22097
843.752	21876
843.889	21945
844.025	21892
844.162	21854
844.298	21850
844.435	21941
844.571	21842
844.708	21850
844.844	22063
844.98	22032
845.117	21918
845.253	21743
845.389	21751
845.525	21816
845.661	21656
845.798	21633
845.934	21644
846.07	21587
846.206	21686
846.342	21671
846.478	21606
846.614	21466
846.75	21336
846.886	21207
847.022	21462
847.158	21439
847.294	21393
847.429	21359
847.565	21370
847.701	21564
847.837	21028
847.972	21039
848.108	21218
848.244	21207
848.379	20986
848.515	20979
848.65	20929
848.786	20960
848.921	20990
849.057	21013
849.192	21062
849.328	20960
849.463	20971
849.598	21070
849.734	20792
849.869	20777
850.004	20826
850.14	20746
850.275	20731
850.41	20701
850.545	20606
850.68	20545
850.815	20746
850.95	20636
851.085	20872
851.22	20796
851.355	20754
851.49	20670
851.625	20598
851.76	20625
851.895	20689
852.03	20549
852.165	20739
852.299	20769
852.434	20739
852.569	20777
852.703	20625
852.838	20853
852.973	20857
853.107	20815
853.242	20549
853.376	20579
853.511	20351
853.645	20434
853.78	20648
853.914	20514
854.048	20507
854.183	20446
854.317	20461
854.451	20655
854.585	20446
854.72	20579
854.854	20541
854.988	20396
855.122	20427
855.256	20450
855.39	20454
855.524	20609
855.658	20522
855.792	20511
855.926	20568
856.06	20579
856.194	20564
856.327	20511
856.461	20469
856.595	20579
856.729	20476
856.862	20632
856.996	20526
857.13	20583
857.263	20575
857.397	20640
857.53	20514
857.664	20545
857.797	20609
857.931	20564
858.064	20514
858.197	20613
858.331	20454
858.464	20575
858.597	20469
858.731	20507
858.864	20393
858.997	20473
859.13	20526
859.263	20731
859.396	20629
859.529	20537
859.662	20560
859.795	20549
859.928	20480
860.061	20712
860.194	20765
860.327	20533
860.46	20579
860.592	20648
860.725	20670
860.858	20609
860.99	20617
861.123	20503
861.256	20450
861.388	20488
861.521	21329
861.653	20434
861.786	20317
861.918	20381
862.05	20530
862.183	20400
862.315	20454
862.447	20571
862.58	20431
862.712	20259
862.844	20168
862.976	20431
863.108	20408
863.24	20712
863.372	20218
863.504	20229
863.636	20324
863.768	20278
863.9	20176
864.032	20134
864.164	20115
864.296	20278
864.428	20347
864.559	20298
864.691	20305
864.823	20210
864.954	20183
865.086	20358
865.217	20191
865.349	20176
865.48	20122
865.612	20183
865.743	20438
865.875	20183
866.006	20100
866.137	20191
866.269	20176
866.4	20153
866.531	20096
866.662	20096
866.793	20157
866.924	20119
867.055	20145
867.186	20088
867.317	20081
867.448	20027
867.579	19986
867.71	20096
867.841	20077
867.972	20126
868.103	20126
868.233	20016
868.364	20119
868.495	20122
868.625	20389
868.756	20571
868.886	20343
869.017	20336
869.147	20556
869.278	20571
869.408	20469
869.539	20404
869.669	20374
869.799	20328
869.929	20381
870.06	20594
870.19	20708
870.32	20568
870.45	20659
870.58	20765
870.71	20849
870.84	20727
870.97	20689
871.1	20804
871.23	20918
871.36	21001
871.489	20811
871.619	20994
871.749	20937
871.879	21028
872.008	21093
872.138	20902
872.267	21009
872.397	20815
872.526	20735
872.656	20606
872.785	20792
872.915	20880
873.044	21058
873.173	20880
873.303	20925
873.432	21135
873.561	20979
873.69	20960
873.819	20998
873.948	21096
874.077	21062
874.206	20967
874.335	20998
874.464	20960
874.593	21268
874.722	21245
874.851	21237
874.979	21329
875.108	21184
875.237	21199
875.365	21085
875.494	21252
875.623	21211
875.751	21135
875.88	21287
876.008	21325
876.136	21443
876.265	21587
876.393	21743
876.521	21698
876.65	21701
876.778	21770
876.906	21538
877.034	21500
877.162	21473
877.29	21542
877.418	21515
877.546	21660
877.674	21580
877.802	21454
877.93	21500
878.058	21564
878.185	21397
878.313	21561
878.441	21618
878.568	21370
878.696	21469
878.824	21622
878.951	21671
879.079	21724
879.206	21892
879.333	21842
879.461	21561
879.588	21732
879.715	21705
879.842	21816
879.97	21648
880.097	21428
880.224	21344
880.351	21416
880.478	21374
880.605	21340
880.732	21389
880.859	21538
880.986	21412
881.112	21408
881.239	21218
881.366	21123
881.493	21085
881.619	20952
881.746	21013
881.872	20914
881.999	20944
882.125	20872
882.252	20960
882.378	20937
882.505	21131
882.631	20872
882.757	20727
882.883	20758
883.01	20712
883.136	20556
883.262	20598
883.388	20560
883.514	20682
883.64	20804
883.766	20590
883.892	20461
884.018	20450
884.143	20514
884.269	20659
884.395	20381
884.52	20400
884.646	20370
884.772	20294
884.897	20161
885.023	20259
885.148	20358
885.274	20545
885.399	20465
885.524	20267
885.65	20385
885.775	20267
885.9	20347
886.025	20358
886.15	20393
886.275	20195
886.4	20252
886.525	20142
886.65	20225
886.775	20294
886.9	20381
887.025	20507
887.149	20389
887.274	20240
887.399	20157
887.523	19936
887.648	20012
887.773	20164
887.897	20233
888.021	20119
888.146	20054
888.27	20282
888.395	20267
888.519	20115
888.643	20278
888.767	20202
888.891	20027
889.015	19963
889.139	19989
889.263	19837
889.387	19955
889.511	20088
889.635	20027
889.759	19951
889.883	19864
890.006	20008
890.13	19890
890.254	19769
890.377	19715
890.501	19635
890.624	19616
890.748	19719
890.871	19693
890.995	19476
891.118	19316
891.241	19582
891.364	19449
891.488	19643
891.611	19468
891.734	19556
891.857	19563
891.98	19518
892.103	19537
892.226	19499
892.349	19499
892.471	19285
892.594	19449
892.717	19476
892.839	19392
892.962	19396
893.085	19556
893.207	19400
893.33	19312
893.452	19285
893.575	19537
893.697	19441
893.819	19506
893.941	19605
894.064	19624
894.186	19384
894.308	19525
894.43	19483
894.552	19590
894.674	19449
894.796	19373
894.918	19487
895.04	19266
895.161	19521
895.283	19537
895.405	19422
895.526	19434
895.648	19438
895.769	19460
895.891	19438
896.012	19491
896.134	19430
896.255	19476
896.376	19407
896.498	19525
896.619	19506
896.74	19362
896.861	19563
896.982	19818
897.103	19928
897.224	19742
897.345	19609
897.466	19651
897.587	19635
897.708	19811
897.828	19689
897.949	19628
898.07	19445
898.19	19685
898.311	19776
898.431	19537
898.552	19677
898.672	19696
898.792	19712
898.913	19731
899.033	19514
899.153	19381
899.273	19373
899.393	19327
899.513	19384
899.633	19422
899.753	19350
899.873	19270
899.993	19495
900.113	19373
900.232	19365
900.352	19324
900.472	19297
900.591	19099
900.711	19274
900.83	19183
900.95	19339
901.069	19251
901.189	19156
901.308	18856
901.427	18837
901.546	18833
901.665	18863
901.784	18700
901.904	18646
902.023	18582
902.141	18254
902.26	18384
902.379	18365
902.498	18270
902.617	18281
902.735	18258
902.854	18262
902.973	18243
903.091	17942
903.21	17973
903.328	17977
903.446	17916
903.565	17866
903.683	17771
903.801	17653
903.919	17783
904.038	17653
904.156	17615
904.274	17684
904.392	17524
904.51	17532
904.627	17600
904.745	17623
904.863	17634
904.981	17383
905.098	17231
905.216	17292
905.334	17292
905.451	17254
905.569	17307
905.686	17189
905.803	17220
905.921	17010
906.038	17151
906.155	17147
906.272	16934
906.389	17071
906.506	16793
906.623	16892
906.74	16755
906.857	16755
906.974	16740
907.091	16961
907.208	16942
907.324	16812
907.441	16618
907.557	16470
907.674	16569
907.79	16493
907.907	16489
908.023	16329
908.139	16535
908.256	16485
908.372	16325
908.488	16394
908.604	16375
908.72	16234
908.836	16287
908.952	16333
909.068	16204
909.184	16341
909.3	16246
909.415	16394
909.531	16230
909.647	16021
909.762	16032
909.878	15892
909.993	15934
910.108	15918
910.224	15953
910.339	15880
910.454	15857
910.57	15804
910.685	15663
910.8	15945
910.915	16044
911.03	15739
911.145	15644
911.259	15614
911.374	15648
911.489	15454
911.604	15492
911.718	15325
911.833	15294
911.947	15188
912.062	15146
912.176	15298
912.291	15348
912.405	15340
912.519	15477
912.633	15469
912.748	15420
912.862	15298
912.976	15218
913.09	15017
913.204	15085
913.318	15127
913.431	15146
913.545	15203
913.659	15252
913.772	15070
913.886	14944
914	14906
914.113	15074
914.226	15017
914.34	14990
914.453	14785
914.566	14921
914.68	14872
914.793	14800
914.906	14575
915.019	14571
915.132	14457
915.245	14549
915.358	14651
915.47	14545
915.583	14606
915.696	14655
915.809	14579
915.921	14693
916.034	14537
916.146	14389
916.259	14396
916.371	14446
916.483	14545
916.595	14431
916.708	14336
916.82	14450
916.932	14419
917.044	14423
917.156	14336
917.268	14168
917.38	14370
917.491	14278
917.603	14123
917.715	14374
917.826	14286
917.938	14153
918.049	14092
918.161	14119
918.272	14454
918.384	14408
918.495	14130
918.606	14077
918.717	14016
918.828	14016
918.939	14016
919.05	13875
919.161	13940
919.272	13826
919.383	13955
919.494	14084
919.604	14214
919.715	14043
919.826	13887
919.936	13928
920.047	13947
920.157	13997
920.267	14142
920.378	14096
920.488	13986
920.598	14161
920.708	14301
920.818	14084
920.928	14081
921.038	14252
921.148	14298
921.258	13997
921.368	13871
921.477	13788
921.587	13837
921.697	13651
921.806	13765
921.916	13571
922.025	13480
922.134	13411
922.244	13308
922.353	13301
922.462	13251
922.571	13244
922.68	13057
922.789	13000
922.898	13095
923.007	12958
923.116	13072
923.224	12970
923.333	12962
923.442	12852
923.55	12795
923.659	12886
923.767	12863
923.876	12852
923.984	12852
924.092	12749
924.201	12798
924.309	12772
924.417	12730
924.525	12692
924.633	12726
924.741	13677
924.849	12608
924.956	12673
925.064	12426
925.172	12445
925.279	12437
925.387	12547
925.494	12536
925.602	12635
925.709	12521
925.816	12410
925.924	12441
926.031	12498
926.138	12399
926.245	12509
926.352	12334
926.459	12513
926.566	12502
926.673	12327
926.779	12251
926.886	12167
926.993	12117
927.099	11999
927.206	12121
927.312	11992
927.419	12087
927.525	11988
927.631	12083
927.737	11874
927.843	11901
927.95	11832
928.056	11855
928.162	11870
928.267	11961
928.373	12570
928.479	11965
928.585	11688
928.69	11885
928.796	11882
928.901	11767
929.007	11585
929.112	11726
929.218	11764
929.323	11611
929.428	11688
929.533	11805
929.638	11554
929.743	11596
929.848	11619
929.953	11562
930.058	11383
930.163	11220
930.267	11311
930.372	11383
930.477	11277
930.581	11539
930.685	11379
930.79	11246
930.894	11239
930.998	11140
931.103	11326
931.207	11067
931.311	10927
931.415	10774
931.519	10622
931.623	10618
