Data from test_V78500241_1780.txt Node
Date: Fri Mar 25 15:22:14 CST 2022
User: usil
Spectrometer: V785-0024
Trigger mode: 0
Integration Time (sec): 4.000000E-1
Scans to average: 1
Nonlinearity correction enabled: false
Boxcar width: 0
Storing dark spectrum: false
XAxis mode: Wavelengths
Number of Pixels in Spectrum: 1024
>>>>>Begin Spectral Data<<<<<
801.071	28032
801.214	27956
801.356	27595
801.499	27523
801.641	27466
801.783	27549
801.926	27663
802.068	27439
802.211	27367
802.353	27447
802.496	27165
802.638	27184
802.78	27294
802.923	27272
803.065	27062
803.208	27100
803.35	27062
803.492	27302
803.635	27310
803.777	27176
803.919	27408
804.061	27629
804.204	27439
804.346	27241
804.488	27321
804.63	27462
804.773	27294
804.915	27447
805.057	27348
805.199	27302
805.341	27473
805.483	27477
805.626	27462
805.768	27321
805.91	27618
806.052	27713
806.194	27329
806.336	27694
806.478	27557
806.62	27568
806.762	27469
806.904	27785
807.046	27987
807.188	27884
807.33	27949
807.472	27945
807.614	27781
807.756	27926
807.898	27709
808.04	27686
808.182	27755
808.324	27907
808.465	27983
808.607	27895
808.749	28082
808.891	28082
809.033	28219
809.174	28158
809.316	28002
809.458	28048
809.6	28086
809.741	28150
809.883	28276
810.025	28379
810.166	28322
810.308	28367
810.45	28367
810.591	28276
810.733	28070
810.875	28063
811.016	28021
811.158	27911
811.299	28124
811.441	28169
811.582	28322
811.724	28135
811.865	27869
812.007	28021
812.148	28021
812.29	28078
812.431	28344
812.573	28436
812.714	28653
812.855	28786
812.997	28687
813.138	28809
813.279	28733
813.421	28660
813.562	28645
813.703	28394
813.845	28333
813.986	27998
814.127	27953
814.268	27899
814.41	27888
814.551	27823
814.692	27838
814.833	27709
814.974	27709
815.115	27865
815.256	27728
815.397	27652
815.539	27705
815.68	27603
815.821	27633
815.962	27739
816.103	27618
816.244	27519
816.385	27363
816.526	27504
816.666	27370
816.807	27058
816.948	27093
817.089	27252
817.23	27089
817.371	27233
817.512	27051
817.653	27093
817.793	27173
817.934	27074
818.075	27070
818.216	27047
818.356	27017
818.497	26918
818.638	26708
818.778	26861
818.919	26982
819.06	26788
819.2	26994
819.341	27066
819.481	27108
819.622	27218
819.762	27427
819.903	27245
820.043	27188
820.184	27241
820.324	27089
820.465	27332
820.605	27203
820.746	27302
820.886	27146
821.026	27252
821.167	27100
821.307	27291
821.447	27093
821.588	27074
821.728	27001
821.868	26617
822.008	26590
822.149	26651
822.289	26457
822.429	26309
822.569	26221
822.709	26225
822.849	26035
822.99	26183
823.13	25982
823.27	25940
823.41	25864
823.55	25822
823.69	25966
823.83	25902
823.97	25970
824.11	25696
824.25	25757
824.389	25753
824.529	25887
824.669	25769
824.809	25883
824.949	25898
825.089	25772
825.228	25906
825.368	25605
825.508	25605
825.648	25590
825.787	25635
825.927	25727
826.067	25578
826.206	25628
826.346	25632
826.485	25594
826.625	25643
826.765	25540
826.904	25582
827.044	25483
827.183	25304
827.323	25263
827.462	25476
827.601	25232
827.741	25354
827.88	25358
828.02	25156
828.159	25335
828.298	25354
828.437	25297
828.577	25225
828.716	25457
828.855	25240
828.994	25122
829.134	25034
829.273	25160
829.412	25004
829.551	24977
829.69	24867
829.829	25027
829.968	25152
830.107	25072
830.246	25046
830.385	24951
830.524	24856
830.663	24897
830.802	24677
830.941	24513
831.08	24665
831.219	24620
831.357	24741
831.496	24882
831.635	24642
831.774	24547
831.913	24547
832.051	24582
832.19	24372
832.329	24410
832.467	24277
832.606	24232
832.744	24285
832.883	24300
833.022	24281
833.16	24410
833.299	24300
833.437	24304
833.576	24319
833.714	24311
833.852	24433
833.991	24490
834.129	24517
834.267	24509
834.406	24471
834.544	24426
834.682	24418
834.821	24426
834.959	24646
835.097	24304
835.235	24388
835.373	24380
835.511	24273
835.65	24262
835.788	24216
835.926	24182
836.064	23882
836.202	24197
836.34	24220
836.478	24258
836.615	24285
836.753	24308
836.891	24258
837.029	24232
837.167	24163
837.305	24114
837.443	24095
837.58	24136
837.718	24106
837.856	24232
837.993	24091
838.131	24045
838.269	23843
838.406	23984
838.544	23786
838.681	23714
838.819	23707
838.956	23505
839.094	23501
839.231	23642
839.369	23794
839.506	23984
839.643	23855
839.781	23554
839.918	23490
840.055	23596
840.193	23531
840.33	23497
840.467	23486
840.604	23608
840.742	23676
840.879	23269
841.016	23318
841.153	23307
841.29	23600
841.427	23395
841.564	23421
841.701	23455
841.838	23482
841.975	23448
842.112	23425
842.249	23220
842.385	23265
842.522	23398
842.659	23296
842.796	23193
842.933	23246
843.069	23250
843.206	23033
843.343	23341
843.479	23250
843.616	23334
843.752	23098
843.889	23010
844.025	23143
844.162	22987
844.298	23067
844.435	23041
844.571	22877
844.708	23060
844.844	23208
844.98	23086
845.117	23132
845.253	22953
845.389	22835
845.525	22900
845.661	22915
845.798	22561
845.934	22797
846.07	22672
846.206	22797
846.342	22797
846.478	22759
846.614	22428
846.75	22417
846.886	22504
847.022	22489
847.158	22557
847.294	22394
847.429	22569
847.565	22382
847.701	22816
847.837	22272
847.972	22139
848.108	22280
848.244	22375
848.379	22177
848.515	22010
848.65	22078
848.786	22097
848.921	22120
849.057	22204
849.192	22230
849.328	22090
849.463	21994
849.598	22036
849.734	21979
849.869	21945
850.004	21861
850.14	21679
850.275	21911
850.41	21770
850.545	21671
850.68	21709
850.815	21797
850.95	21819
851.085	21922
851.22	21778
851.355	21831
851.49	21934
851.625	21800
851.76	21739
851.895	21743
852.03	21633
852.165	21827
852.299	21751
852.434	21907
852.569	21850
852.703	21903
852.838	21838
852.973	21945
853.107	21869
853.242	21736
853.376	21667
853.511	21488
853.645	21591
853.78	21766
853.914	21583
854.048	21599
854.183	21622
854.317	21610
854.451	21774
854.585	21492
854.72	21682
854.854	21747
854.988	21648
855.122	21633
855.256	21507
855.39	21690
855.524	21743
855.658	21595
855.792	21724
855.926	21644
856.06	21698
856.194	21736
856.327	21595
856.461	21515
856.595	21526
856.729	21599
856.862	21720
856.996	21717
857.13	21743
857.263	21785
857.397	21808
857.53	21625
857.664	21812
857.797	21694
857.931	21755
858.064	21698
858.197	21656
858.331	21686
858.464	21679
858.597	21523
858.731	21568
858.864	21633
858.997	21523
859.13	21625
859.263	21614
859.396	21694
859.529	21648
859.662	21504
859.795	21656
859.928	21610
860.061	21629
860.194	21846
860.327	21660
860.46	21549
860.592	21698
860.725	21698
860.858	21846
860.99	21641
861.123	21507
861.256	21663
861.388	21549
861.521	22440
861.653	21561
861.786	21526
861.918	21473
862.05	21504
862.183	21526
862.315	21618
862.447	21709
862.58	21530
862.712	21332
862.844	21291
862.976	21401
863.108	21428
863.24	21698
863.372	21329
863.504	21287
863.636	21283
863.768	21473
863.9	21389
864.032	21222
864.164	21195
864.296	21302
864.428	21405
864.559	21447
864.691	21420
864.823	21306
864.954	21405
865.086	21401
865.217	21256
865.349	21192
865.48	21093
865.612	21310
865.743	21351
865.875	21230
866.006	21157
866.137	21157
866.269	21214
866.4	21252
866.531	21081
866.662	21116
866.793	21176
866.924	21192
867.055	21146
867.186	21169
867.317	21085
867.448	21188
867.579	21154
867.71	20963
867.841	21249
867.972	21233
868.103	21142
868.233	21256
868.364	21108
868.495	21416
868.625	21447
868.756	21572
868.886	21192
869.017	21355
869.147	21462
869.278	21469
869.408	21469
869.539	21279
869.669	21530
869.799	21405
869.929	21507
870.06	21587
870.19	21679
870.32	21698
870.45	21679
870.58	21793
870.71	21975
870.84	21911
870.97	21850
871.1	21865
871.23	21941
871.36	22044
871.489	21827
871.619	22021
871.749	22021
871.879	22090
872.008	21979
872.138	22048
872.267	21949
872.397	21911
872.526	21857
872.656	21960
872.785	21823
872.915	21960
873.044	22109
873.173	22120
873.303	22204
873.432	22036
873.561	22135
873.69	22158
873.819	22051
873.948	22074
874.077	21972
874.206	21899
874.335	22006
874.464	22192
874.593	22253
874.722	22185
874.851	22318
874.979	22238
875.108	22318
875.237	22109
875.365	22063
875.494	22249
875.623	22196
875.751	22166
875.88	22223
876.008	22215
876.136	22474
876.265	22584
876.393	22607
876.521	22786
876.65	22797
876.778	22618
876.906	22565
877.034	22516
877.162	22599
877.29	22645
877.418	22649
877.546	22531
877.674	22611
877.802	22474
877.93	22531
878.058	22500
878.185	22462
878.313	22531
878.441	22706
878.568	22508
878.696	22596
878.824	22557
878.951	22710
879.079	22801
879.206	22809
879.333	22767
879.461	22550
879.588	22683
879.715	22820
879.842	22892
879.97	22713
880.097	22405
880.224	22352
880.351	22382
880.478	22421
880.605	22382
880.732	22386
880.859	22554
880.986	22569
881.112	22527
881.239	22398
881.366	22082
881.493	22101
881.619	22055
881.746	22036
881.872	21915
881.999	21983
882.125	21880
882.252	22074
882.378	21960
882.505	22078
882.631	21911
882.757	21686
882.883	21911
883.01	21682
883.136	21599
883.262	21576
883.388	21473
883.514	21667
883.64	21671
883.766	21660
883.892	21443
884.018	21469
884.143	21728
884.269	21656
884.395	21393
884.52	21378
884.646	21275
884.772	21241
884.897	21154
885.023	21249
885.148	21424
885.274	21466
885.399	21389
885.524	21241
885.65	21260
885.775	21260
885.9	21306
886.025	21435
886.15	21355
886.275	21252
886.4	21157
886.525	21397
886.65	21116
886.775	21138
886.9	21496
887.025	21477
887.149	21287
887.274	21169
887.399	21062
887.523	21096
887.648	21009
887.773	20975
887.897	21085
888.021	21131
888.146	21036
888.27	21150
888.395	21169
888.519	21077
888.643	21180
888.767	21150
888.891	21074
889.015	20902
889.139	20887
889.263	20960
889.387	21001
889.511	21020
889.635	20914
889.759	20758
889.883	20895
890.006	20861
890.13	21036
890.254	20762
890.377	20910
890.501	20708
890.624	20583
890.748	20590
890.871	20480
890.995	20503
891.118	20442
891.241	20492
891.364	20469
891.488	20594
891.611	20423
891.734	20412
891.857	20484
891.98	20415
892.103	20396
892.226	20499
892.349	20370
892.471	20214
892.594	20427
892.717	20374
892.839	20385
892.962	20229
893.085	20339
893.207	20396
893.33	20218
893.452	20263
893.575	20492
893.697	20305
893.819	20495
893.941	20408
894.064	20484
894.186	20077
894.308	20229
894.43	20427
894.552	20552
894.674	20385
894.796	20240
894.918	20358
895.04	20332
895.161	20355
895.283	20355
895.405	20267
895.526	20206
895.648	20377
895.769	20404
895.891	20206
896.012	20511
896.134	20419
896.255	20301
896.376	20206
896.498	20301
896.619	20434
896.74	20244
896.861	20328
896.982	20537
897.103	20838
897.224	20568
897.345	20583
897.466	20503
897.587	20640
897.708	20613
897.828	20579
897.949	20393
898.07	20404
898.19	20575
898.311	20613
898.431	20495
898.552	20526
898.672	20560
898.792	20606
898.913	20518
899.033	20457
899.153	20393
899.273	20317
899.393	20347
899.513	20396
899.633	20412
899.753	20244
899.873	20142
899.993	20278
900.113	20138
900.232	20343
900.352	20172
900.472	20035
900.591	20001
900.711	20005
900.83	20062
900.95	20084
901.069	20122
901.189	19947
901.308	19712
901.427	19635
901.546	19651
901.665	19609
901.784	19620
901.904	19491
902.023	19457
902.141	19194
902.26	19187
902.379	19293
902.498	19179
902.617	19065
902.735	19164
902.854	19027
902.973	19000
903.091	18871
903.21	18867
903.328	18772
903.446	18779
903.565	18745
903.683	18623
903.801	18486
903.919	18570
904.038	18441
904.156	18407
904.274	18414
904.392	18471
904.51	18357
904.627	18281
904.745	18403
904.863	18338
904.981	18292
905.098	18106
905.216	18007
905.334	18060
905.451	18079
905.569	17973
905.686	18064
905.803	17965
905.921	17870
906.038	17984
906.155	17817
906.272	17851
906.389	17657
906.506	17668
906.623	17665
906.74	17528
906.857	17509
906.974	17421
907.091	17695
907.208	17726
907.324	17604
907.441	17573
907.557	17273
907.674	17242
907.79	17246
907.907	17280
908.023	17322
908.139	17372
908.256	17288
908.372	17273
908.488	17223
908.604	16995
908.72	16984
908.836	17041
908.952	16953
909.068	16980
909.184	17109
909.3	17075
909.415	17029
909.531	16942
909.647	16752
909.762	16725
909.878	16721
909.993	16653
910.108	16717
910.224	16782
910.339	16569
910.454	16577
910.57	16596
910.685	16470
910.8	16774
910.915	16637
911.03	16630
911.145	16386
911.259	16337
911.374	16352
911.489	16185
911.604	16188
911.718	16051
911.833	16090
911.947	16017
912.062	15854
912.176	16063
912.291	16013
912.405	16025
912.519	16310
912.633	16169
912.748	16036
912.862	16006
912.976	15827
913.09	15720
913.204	15789
913.318	15831
913.431	15907
913.545	15983
913.659	15884
913.772	15907
913.886	15698
914	15728
914.113	15808
914.226	15732
914.34	15736
914.453	15618
914.566	15682
914.68	15591
914.793	15534
914.906	15321
915.019	15393
915.132	15165
915.245	15302
915.358	15359
915.47	15283
915.583	15374
915.696	15294
915.809	15355
915.921	15348
916.034	15161
916.146	15066
916.259	15093
916.371	15321
916.483	15173
916.595	15055
916.708	15104
916.82	15017
916.932	15055
917.044	15116
917.156	15077
917.268	14857
917.38	14899
917.491	14941
917.603	14842
917.715	14998
917.826	15024
917.938	14868
918.049	14785
918.161	14883
918.272	15017
918.384	14986
918.495	14887
918.606	14705
918.717	14727
918.828	14697
918.939	14667
919.05	14632
919.161	14674
919.272	14488
919.383	14587
919.494	14629
919.604	14872
919.715	14613
919.826	14514
919.936	14701
920.047	14731
920.157	14686
920.267	14853
920.378	14712
920.488	14511
920.598	14693
920.708	14914
920.818	14815
920.928	14796
921.038	14872
921.148	14887
921.258	14602
921.368	14473
921.477	14404
921.587	14400
921.697	14202
921.806	14339
921.916	14256
922.025	14050
922.134	14046
922.244	13936
922.353	14138
922.462	13879
922.571	13803
922.68	13814
922.789	13723
922.898	13670
923.007	13658
923.116	13715
923.224	13693
923.333	13548
923.442	13594
923.55	13491
923.659	13483
923.767	13609
923.876	13472
923.984	13533
924.092	13365
924.201	13350
924.309	13422
924.417	13441
924.525	13312
924.633	13392
924.741	14294
924.849	13118
924.956	13225
925.064	13061
925.172	13149
925.279	13072
925.387	13107
925.494	13023
925.602	13183
925.709	13175
925.816	12985
925.924	12935
926.031	13118
926.138	13004
926.245	13061
926.352	12890
926.459	13080
926.566	13042
926.673	12913
926.779	12897
926.886	12738
926.993	12654
927.099	12700
927.206	12589
927.312	12593
927.419	12707
927.525	12639
927.631	12544
927.737	12528
927.843	12559
927.95	12441
928.056	12544
928.162	12452
928.267	12544
928.373	13065
928.479	12559
928.585	12323
928.69	12456
928.796	12452
928.901	12334
929.007	12213
929.112	12353
929.218	12251
929.323	12171
929.428	12148
929.533	12330
929.638	12155
929.743	12102
929.848	12228
929.953	12216
930.058	12079
930.163	11912
930.267	11916
930.372	12091
930.477	11840
930.581	12098
930.685	11920
930.79	11714
930.894	11843
930.998	11680
931.103	11878
931.207	11551
931.311	11414
931.415	11372
931.519	11223
931.623	11083
