Data from test_V78500241_3518.txt Node
Date: Fri Mar 25 15:34:21 CST 2022
User: usil
Spectrometer: V785-0024
Trigger mode: 0
Integration Time (sec): 4.000000E-1
Scans to average: 1
Nonlinearity correction enabled: false
Boxcar width: 0
Storing dark spectrum: false
XAxis mode: Wavelengths
Number of Pixels in Spectrum: 1024
>>>>>Begin Spectral Data<<<<<
801.071	27268
801.214	27302
801.356	27108
801.499	27100
801.641	27005
801.783	26929
801.926	26952
802.068	26906
802.211	26876
802.353	26883
802.496	26701
802.638	26541
802.78	26473
802.923	26552
803.065	26427
803.208	26480
803.35	26545
803.492	26670
803.635	26796
803.777	26701
803.919	26861
804.061	27005
804.204	26807
804.346	26693
804.488	26651
804.63	26579
804.773	26644
804.915	26785
805.057	26830
805.199	26727
805.341	26568
805.483	26785
805.626	26830
805.768	26800
805.91	26819
806.052	26853
806.194	26712
806.336	26868
806.478	26792
806.62	26960
806.762	26940
806.904	27036
807.046	27313
807.188	27230
807.33	27256
807.472	27329
807.614	27127
807.756	27184
807.898	27081
808.04	27024
808.182	27047
808.324	27074
808.465	27154
808.607	27264
808.749	27435
808.891	27450
809.033	27568
809.174	27523
809.316	27389
809.458	27317
809.6	27447
809.741	27610
809.883	27587
810.025	27660
810.166	27751
810.308	27660
810.45	27709
810.591	27587
810.733	27526
810.875	27488
811.016	27306
811.158	27157
811.299	27488
811.441	27606
811.582	27473
811.724	27405
811.865	27549
812.007	27306
812.148	27370
812.29	27431
812.431	27351
812.573	27671
812.714	27857
812.855	27876
812.997	27945
813.138	28078
813.279	28086
813.421	27941
813.562	27854
813.703	27724
813.845	27713
813.986	27313
814.127	27180
814.268	27093
814.41	27119
814.551	27058
814.692	27108
814.833	27062
814.974	26929
815.115	27089
815.256	26921
815.397	27051
815.539	27009
815.68	26864
815.821	26902
815.962	26838
816.103	26773
816.244	26743
816.385	26701
816.526	26636
816.666	26381
816.807	26305
816.948	26480
817.089	26412
817.23	26400
817.371	26389
817.512	26301
817.653	26305
817.793	26191
817.934	26294
818.075	26465
818.216	26358
818.356	26328
818.497	26256
818.638	26039
818.778	26100
818.919	26157
819.06	26115
819.2	26122
819.341	26298
819.481	26381
819.622	26412
819.762	26579
819.903	26629
820.043	26480
820.184	26473
820.324	26503
820.465	26499
820.605	26396
820.746	26408
820.886	26317
821.026	26362
821.167	26313
821.307	26564
821.447	26187
821.588	26176
821.728	26138
821.868	25871
822.008	25772
822.149	25708
822.289	25715
822.429	25464
822.569	25529
822.709	25411
822.849	25365
822.99	25244
823.13	25388
823.27	25213
823.41	25053
823.55	25133
823.69	25171
823.83	25278
823.97	25008
824.11	24973
824.25	24890
824.389	24928
824.529	25019
824.669	24932
824.809	25084
824.949	25160
825.089	25141
825.228	25042
825.368	24787
825.508	24730
825.648	24776
825.787	24878
825.927	24848
826.067	24814
826.206	24844
826.346	25053
826.485	24924
826.625	24863
826.765	25088
826.904	24962
827.044	24601
827.183	24612
827.323	24650
827.462	24639
827.601	24578
827.741	24563
827.88	24597
828.02	24532
828.159	24426
828.298	24696
828.437	24574
828.577	24616
828.716	24582
828.855	24616
828.994	24353
829.134	24178
829.273	24315
829.412	24216
829.551	24235
829.69	24342
829.829	24391
829.968	24350
830.107	24323
830.246	24308
830.385	24251
830.524	24152
830.663	24121
830.802	24133
830.941	23866
831.08	23843
831.219	24091
831.357	24152
831.496	24163
831.635	23942
831.774	23790
831.913	23809
832.051	23893
832.19	23665
832.329	23668
832.467	23570
832.606	23665
832.744	23524
832.883	23554
833.022	23573
833.16	23558
833.299	23630
833.437	23562
833.576	23710
833.714	23668
833.852	23756
833.991	23699
834.129	23817
834.267	23676
834.406	23691
834.544	23726
834.682	23615
834.821	23573
834.959	23748
835.097	23687
835.235	23737
835.373	23668
835.511	23623
835.65	23452
835.788	23471
835.926	23421
836.064	23178
836.202	23402
836.34	23547
836.478	23562
836.615	23516
836.753	23425
836.891	23577
837.029	23463
837.167	23604
837.305	23467
837.443	23417
837.58	23280
837.718	23376
837.856	23391
837.993	23330
838.131	23349
838.269	23178
838.406	23273
838.544	23246
838.681	23060
838.819	22995
838.956	22885
839.094	22869
839.231	22774
839.369	22991
839.506	23250
839.643	23109
839.781	22850
839.918	22911
840.055	22885
840.193	22824
840.33	22786
840.467	22721
840.604	22869
840.742	23006
840.879	22603
841.016	22637
841.153	22710
841.29	22881
841.427	22729
841.564	22831
841.701	22721
841.838	22687
841.975	22778
842.112	22611
842.249	22577
842.385	22550
842.522	22812
842.659	22523
842.796	22542
842.933	22466
843.069	22611
843.206	22519
843.343	22664
843.479	22443
843.616	22531
843.752	22219
843.889	22341
844.025	22447
844.162	22246
844.298	22352
844.435	22253
844.571	22272
844.708	22299
844.844	22466
844.98	22394
845.117	22371
845.253	22116
845.389	22074
845.525	22261
845.661	22154
845.798	22128
845.934	22086
846.07	21945
846.206	22063
846.342	22185
846.478	22051
846.614	21850
846.75	21732
846.886	21652
847.022	21838
847.158	21785
847.294	21762
847.429	21846
847.565	21816
847.701	21994
847.837	21519
847.972	21519
848.108	21644
848.244	21542
848.379	21405
848.515	21272
848.65	21279
848.786	21397
848.921	21389
849.057	21469
849.192	21401
849.328	21348
849.463	21363
849.598	21313
849.734	21264
849.869	21142
850.004	21245
850.14	21131
850.275	21165
850.41	21146
850.545	21055
850.68	21058
850.815	21161
850.95	21108
851.085	21298
851.22	21260
851.355	21218
851.49	21058
851.625	21081
851.76	21043
851.895	21081
852.03	21135
852.165	21127
852.299	21165
852.434	21260
852.569	21112
852.703	21096
852.838	21104
852.973	21241
853.107	21298
853.242	21074
853.376	20948
853.511	20838
853.645	20990
853.78	21036
853.914	20933
854.048	20906
854.183	20975
854.317	21100
854.451	21184
854.585	20906
854.72	20895
854.854	21009
854.988	20918
855.122	20967
855.256	20952
855.39	20986
855.524	21039
855.658	21013
855.792	21028
855.926	20994
856.06	20975
856.194	20902
856.327	20880
856.461	20785
856.595	20891
856.729	20975
856.862	21020
856.996	21020
857.13	20883
857.263	21108
857.397	21096
857.53	20960
857.664	21093
857.797	21043
857.931	21047
858.064	21047
858.197	21043
858.331	20914
858.464	20990
858.597	20876
858.731	20883
858.864	20895
858.997	20804
859.13	20941
859.263	20952
859.396	21036
859.529	20925
859.662	20845
859.795	20781
859.928	20967
860.061	21116
860.194	21226
860.327	21020
860.46	20982
860.592	21104
860.725	21154
860.858	21096
860.99	20834
861.123	20838
861.256	20868
861.388	21036
861.521	21720
861.653	20746
861.786	20781
861.918	20838
862.05	20872
862.183	21020
862.315	20967
862.447	20891
862.58	20842
862.712	20758
862.844	20632
862.976	20826
863.108	20823
863.24	21020
863.372	20663
863.504	20686
863.636	20583
863.768	20785
863.9	20651
864.032	20545
864.164	20579
864.296	20727
864.428	20864
864.559	20830
864.691	20754
864.823	20632
864.954	20575
865.086	20746
865.217	20632
865.349	20469
865.48	20503
865.612	20583
865.743	20727
865.875	20613
866.006	20636
866.137	20465
866.269	20511
866.4	20545
866.531	20594
866.662	20427
866.793	20484
866.924	20419
867.055	20571
867.186	20484
867.317	20450
867.448	20431
867.579	20351
867.71	20362
867.841	20355
867.972	20488
868.103	20465
868.233	20503
868.364	20545
868.495	20579
868.625	20769
868.756	20853
868.886	20743
869.017	20830
869.147	20746
869.278	20796
869.408	20762
869.539	20678
869.669	20819
869.799	20735
869.929	20956
870.06	20804
870.19	21116
870.32	21123
870.45	20979
870.58	21192
870.71	21291
870.84	21222
870.97	21195
871.1	21116
871.23	21340
871.36	21359
871.489	21142
871.619	21306
871.749	21389
871.879	21382
872.008	21485
872.138	21325
872.267	21351
872.397	21161
872.526	21252
872.656	21188
872.785	21237
872.915	21340
873.044	21431
873.173	21412
873.303	21462
873.432	21378
873.561	21485
873.69	21336
873.819	21310
873.948	21530
874.077	21477
874.206	21245
874.335	21287
874.464	21496
874.593	21717
874.722	21545
874.851	21622
874.979	21618
875.108	21572
875.237	21576
875.365	21454
875.494	21701
875.623	21728
875.751	21549
875.88	21660
876.008	21686
876.136	21823
876.265	22078
876.393	22200
876.521	22169
876.65	22143
876.778	22128
876.906	21979
877.034	21941
877.162	21899
877.29	21979
877.418	21915
877.546	22002
877.674	21850
877.802	21831
877.93	21884
878.058	22036
878.185	21861
878.313	21838
878.441	21797
878.568	21781
878.696	21945
878.824	21922
878.951	22048
879.079	22143
879.206	22322
879.333	21964
879.461	22112
879.588	21991
879.715	22139
879.842	22223
879.97	22055
880.097	21789
880.224	21926
880.351	21865
880.478	21785
880.605	21732
880.732	21789
880.859	21888
880.986	21842
881.112	21816
881.239	21568
881.366	21660
881.493	21401
881.619	21450
881.746	21466
881.872	21321
881.999	21298
882.125	21344
882.252	21363
882.378	21363
882.505	21416
882.631	21310
882.757	21150
882.883	21100
883.01	21058
883.136	20998
883.262	20937
883.388	20902
883.514	21214
883.64	21138
883.766	21058
883.892	20819
884.018	20781
884.143	20937
884.269	21116
884.395	20758
884.52	20762
884.646	20708
884.772	20613
884.897	20564
885.023	20724
885.148	20750
885.274	20804
885.399	20765
885.524	20674
885.65	20663
885.775	20750
885.9	20731
886.025	20868
886.15	20781
886.275	20712
886.4	20629
886.525	20667
886.65	20629
886.775	20674
886.9	20762
887.025	20804
887.149	20743
887.274	20469
887.399	20492
887.523	20549
887.648	20450
887.773	20343
887.897	20503
888.021	20621
888.146	20400
888.27	20594
888.395	20594
888.519	20484
888.643	20533
888.767	20571
888.891	20438
889.015	20290
889.139	20412
889.263	20244
889.387	20362
889.511	20514
889.635	20488
889.759	20473
889.883	20233
890.006	20259
890.13	20339
890.254	20229
890.377	20286
890.501	20058
890.624	19989
890.748	20043
890.871	20016
890.995	19864
891.118	19917
891.241	19841
891.364	19974
891.488	19940
891.611	19883
891.734	19871
891.857	19947
891.98	19845
892.103	19898
892.226	19909
892.349	19852
892.471	19693
892.594	19849
892.717	19807
892.839	19814
892.962	19864
893.085	19898
893.207	19765
893.33	19715
893.452	19727
893.575	19818
893.697	19731
893.819	19898
893.941	19898
894.064	19887
894.186	19731
894.308	19712
894.43	19830
894.552	19906
894.674	19826
894.796	19788
894.918	19807
895.04	19750
895.161	19856
895.283	19887
895.405	19826
895.526	19746
895.648	19731
895.769	19772
895.891	19902
896.012	19852
896.134	19734
896.255	19772
896.376	19757
896.498	19757
896.619	19753
896.74	19826
896.861	19909
896.982	20092
897.103	20214
897.224	20062
897.345	19875
897.466	20005
897.587	19982
897.708	20275
897.828	20065
897.949	20001
898.07	19887
898.19	19890
898.311	20142
898.431	19940
898.552	19864
898.672	20153
898.792	20005
898.913	20065
899.033	19967
899.153	19868
899.273	19807
899.393	19734
899.513	19685
899.633	19662
899.753	19849
899.873	19780
899.993	19753
900.113	19753
900.232	19715
900.352	19552
900.472	19605
900.591	19559
900.711	19502
900.83	19354
900.95	19647
901.069	19696
901.189	19381
901.308	19240
901.427	19042
901.546	19042
901.665	19080
901.784	19027
901.904	19015
902.023	18951
902.141	18669
902.26	18601
902.379	18829
902.498	18810
902.617	18593
902.735	18715
902.854	18521
902.973	18646
903.091	18247
903.21	18292
903.328	18334
903.446	18270
903.565	18136
903.683	18220
903.801	18003
903.919	18159
904.038	18049
904.156	17980
904.274	17920
904.392	17836
904.51	17779
904.627	17836
904.745	17969
904.863	17904
904.981	17699
905.098	17551
905.216	17539
905.334	17604
905.451	17585
905.569	17417
905.686	17558
905.803	17627
905.921	17311
906.038	17364
906.155	17288
906.272	17227
906.389	17356
906.506	17083
906.623	17181
906.74	17045
906.857	17014
906.974	17136
907.091	17170
907.208	17227
907.324	17052
907.441	16995
907.557	16858
907.674	16881
907.79	16759
907.907	16771
908.023	16877
908.139	16809
908.256	16809
908.372	16744
908.488	16725
908.604	16554
908.72	16538
908.836	16599
908.952	16531
909.068	16656
909.184	16698
909.3	16569
909.415	16512
909.531	16558
909.647	16405
909.762	16246
909.878	16272
909.993	16314
910.108	16238
910.224	16128
910.339	16234
910.454	16169
910.57	16006
910.685	16059
910.8	16303
910.915	16253
911.03	16017
911.145	15983
911.259	15808
911.374	15892
911.489	15842
911.604	15816
911.718	15568
911.833	15686
911.947	15557
912.062	15416
912.176	15576
912.291	15614
912.405	15534
912.519	15835
912.633	15816
912.748	15660
912.862	15667
912.976	15431
913.09	15336
913.204	15447
913.318	15603
913.431	15500
913.545	15462
913.659	15526
913.772	15443
913.886	15310
914	15291
914.113	15283
914.226	15313
914.34	15173
914.453	15127
914.566	15226
914.68	15173
914.793	15150
914.906	15028
915.019	14899
915.132	14830
915.245	14807
915.358	14864
915.47	14864
915.583	14910
915.696	14891
915.809	14948
915.921	14891
916.034	14800
916.146	14853
916.259	14750
916.371	14902
916.483	14773
916.595	14678
916.708	14765
916.82	14670
916.932	14560
917.044	14678
917.156	14610
917.268	14518
917.38	14518
917.491	14400
917.603	14556
917.715	14587
917.826	14549
917.938	14461
918.049	14355
918.161	14511
918.272	14705
918.384	14488
918.495	14396
918.606	14301
918.717	14233
918.828	14271
918.939	14286
919.05	14161
919.161	14214
919.272	14119
919.383	14214
919.494	14298
919.604	14442
919.715	14233
919.826	14195
919.936	14259
920.047	14324
920.157	14278
920.267	14484
920.378	14237
920.488	14149
920.598	14389
920.708	14606
920.818	14298
920.928	14347
921.038	14507
921.148	14537
921.258	14214
921.368	14107
921.477	13986
921.587	13887
921.697	13936
921.806	13921
921.916	13879
922.025	13674
922.134	13655
922.244	13548
922.353	13734
922.462	13480
922.571	13365
922.68	13289
922.789	13247
922.898	13301
923.007	13198
923.116	13396
923.224	13266
923.333	13331
923.442	13247
923.55	13095
923.659	13152
923.767	13160
923.876	12966
923.984	13057
924.092	13008
924.201	13000
924.309	13015
924.417	13019
924.525	12852
924.633	12939
924.741	13776
924.849	12825
924.956	12798
925.064	12806
925.172	12593
925.279	12741
925.387	12719
925.494	12715
925.602	12913
925.709	12821
925.816	12612
925.924	12696
926.031	12768
926.138	12623
926.245	12601
926.352	12498
926.459	12662
926.566	12753
926.673	12589
926.779	12456
926.886	12441
926.993	12384
927.099	12308
927.206	12251
927.312	12224
927.419	12418
927.525	12311
927.631	12319
927.737	12114
927.843	12133
927.95	11920
928.056	12125
928.162	12159
928.267	12125
928.373	12658
928.479	12106
928.585	11942
928.69	12053
928.796	12026
928.901	11999
929.007	11832
929.112	11992
929.218	11946
929.323	11771
929.428	11817
929.533	12003
929.638	11817
929.743	11737
929.848	11775
929.953	11847
930.058	11573
930.163	11581
930.267	11551
930.372	11649
930.477	11425
930.581	11809
930.685	11448
930.79	11398
930.894	11398
930.998	11372
931.103	11532
931.207	11181
931.311	11117
931.415	11033
931.519	10866
931.623	10725
