Data from test_V78500241_1155.txt Node
Date: Fri Mar 25 15:17:53 CST 2022
User: usil
Spectrometer: V785-0024
Trigger mode: 0
Integration Time (sec): 4.000000E-1
Scans to average: 1
Nonlinearity correction enabled: false
Boxcar width: 0
Storing dark spectrum: false
XAxis mode: Wavelengths
Number of Pixels in Spectrum: 1024
>>>>>Begin Spectral Data<<<<<
801.071	28348
801.214	28261
801.356	28036
801.499	27945
801.641	27857
801.783	27918
801.926	27937
802.068	27892
802.211	27835
802.353	27831
802.496	27652
802.638	27614
802.78	27610
802.923	27591
803.065	27462
803.208	27595
803.35	27675
803.492	27694
803.635	27720
803.777	27766
803.919	27812
804.061	28226
804.204	27918
804.346	27591
804.488	27713
804.63	27804
804.773	27774
804.915	27998
805.057	27930
805.199	27709
805.341	27968
805.483	27914
805.626	27869
805.768	27812
805.91	28074
806.052	27838
806.194	27857
806.336	28215
806.478	27861
806.62	28055
806.762	27994
806.904	28261
807.046	28508
807.188	28367
807.33	28360
807.472	28470
807.614	28508
807.756	28215
807.898	28314
808.04	28230
808.182	28158
808.324	28101
808.465	28268
808.607	28424
808.749	28637
808.891	28733
809.033	28721
809.174	28660
809.316	28694
809.458	28611
809.6	28519
809.741	28698
809.883	28592
810.025	28888
810.166	28938
810.308	28733
810.45	28873
810.591	28881
810.733	28554
810.875	28599
811.016	28504
811.158	28561
811.299	28668
811.441	28752
811.582	28782
811.724	28565
811.865	28565
812.007	28550
812.148	28611
812.29	28561
812.431	28759
812.573	28987
812.714	28919
812.855	29181
812.997	29277
813.138	29490
813.279	29185
813.421	29299
813.562	29208
813.703	29006
813.845	28873
813.986	28615
814.127	28493
814.268	28466
814.41	28367
814.551	28303
814.692	28436
814.833	28287
814.974	28322
815.115	28344
815.256	28200
815.397	28246
815.539	28002
815.68	28124
815.821	28097
815.962	28147
816.103	28101
816.244	28051
816.385	27808
816.526	27846
816.666	27781
816.807	27564
816.948	27576
817.089	27625
817.23	27739
817.371	27595
817.512	27629
817.653	27667
817.793	27614
817.934	27599
818.075	27819
818.216	27656
818.356	27701
818.497	27530
818.638	27382
818.778	27523
818.919	27386
819.06	27488
819.2	27382
819.341	27515
819.481	27591
819.622	27789
819.762	28025
819.903	27869
820.043	27876
820.184	27899
820.324	27625
820.465	27804
820.605	27743
820.746	27797
820.886	27717
821.026	27698
821.167	27671
821.307	27785
821.447	27675
821.588	27709
821.728	27530
821.868	27332
822.008	27146
822.149	27218
822.289	27104
822.429	26811
822.569	26845
822.709	26868
822.849	26636
822.99	26594
823.13	26552
823.27	26564
823.41	26571
823.55	26324
823.69	26549
823.83	26484
823.97	26366
824.11	26233
824.25	26313
824.389	26377
824.529	26499
824.669	26328
824.809	26499
824.949	26240
825.089	26434
825.228	26419
825.368	26187
825.508	26210
825.648	26206
825.787	26187
825.927	26278
826.067	26195
826.206	26183
826.346	26130
826.485	26294
826.625	26168
826.765	26225
826.904	26282
827.044	26024
827.183	25871
827.323	25879
827.462	25963
827.601	25852
827.741	25913
827.88	25909
828.02	25807
828.159	25875
828.298	25871
828.437	25966
828.577	25833
828.716	26031
828.855	25845
828.994	25521
829.134	25696
829.273	25734
829.412	25586
829.551	25582
829.69	25597
829.829	25685
829.968	25666
830.107	25693
830.246	25567
830.385	25476
830.524	25563
830.663	25476
830.802	25320
830.941	25187
831.08	25255
831.219	25346
831.357	25377
831.496	25438
831.635	25187
831.774	25148
831.913	25183
832.051	25088
832.19	24962
832.329	24966
832.467	24973
832.606	24768
832.744	24852
832.883	24863
833.022	24924
833.16	24897
833.299	24970
833.437	25015
833.576	25107
833.714	24905
833.852	24996
833.991	25160
834.129	24939
834.267	25175
834.406	24996
834.544	25232
834.682	25095
834.821	24916
834.959	25042
835.097	24905
835.235	25015
835.373	24928
835.511	25031
835.65	24897
835.788	24829
835.926	24684
836.064	24669
836.202	24604
836.34	24916
836.478	24890
836.615	24821
836.753	24715
836.891	24909
837.029	24829
837.167	24726
837.305	24650
837.443	24623
837.58	24536
837.718	24844
837.856	24654
837.993	24563
838.131	24616
838.269	24414
838.406	24483
838.544	24388
838.681	24289
838.819	24270
838.956	24311
839.094	24076
839.231	24270
839.369	24304
839.506	24608
839.643	24369
839.781	24159
839.918	24079
840.055	24072
840.193	24133
840.33	23973
840.467	24072
840.604	24018
840.742	24155
840.879	23870
841.016	23999
841.153	23942
841.29	24102
841.427	24117
841.564	23988
841.701	24068
841.838	23805
841.975	23923
842.112	23863
842.249	23824
842.385	23840
842.522	23984
842.659	23893
842.796	23790
842.933	23771
843.069	23714
843.206	23805
843.343	23824
843.479	23843
843.616	23756
843.752	23581
843.889	23611
844.025	23634
844.162	23535
844.298	23745
844.435	23589
844.571	23512
844.708	23581
844.844	23745
844.98	23767
845.117	23668
845.253	23524
845.389	23398
845.525	23410
845.661	23406
845.798	23277
845.934	23315
846.07	23318
846.206	23197
846.342	23440
846.478	23307
846.614	23029
846.75	23029
846.886	22972
847.022	22991
847.158	22873
847.294	23204
847.429	22968
847.565	23018
847.701	23159
847.837	22873
847.972	22759
848.108	22782
848.244	22713
848.379	22588
848.515	22653
848.65	22607
848.786	22660
848.921	22603
849.057	22801
849.192	22702
849.328	22668
849.463	22500
849.598	22637
849.734	22554
849.869	22550
850.004	22409
850.14	22478
850.275	22519
850.41	22276
850.545	22284
850.68	22318
850.815	22375
850.95	22485
851.085	22466
851.22	22531
851.355	22504
851.49	22459
851.625	22394
851.76	22409
851.895	22356
852.03	22261
852.165	22481
852.299	22394
852.434	22485
852.569	22402
852.703	22329
852.838	22489
852.973	22557
853.107	22527
853.242	22348
853.376	22158
853.511	22154
853.645	22188
853.78	22424
853.914	22162
854.048	22246
854.183	22249
854.317	22265
854.451	22428
854.585	22253
854.72	22173
854.854	22318
854.988	22074
855.122	22200
855.256	22173
855.39	22272
855.524	22154
855.658	22211
855.792	22318
855.926	22333
856.06	22238
856.194	22261
856.327	22219
856.461	22169
856.595	22078
856.729	22192
856.862	22318
856.996	22234
857.13	22318
857.263	22341
857.397	22280
857.53	22219
857.664	22169
857.797	22303
857.931	22322
858.064	22242
858.197	22325
858.331	22200
858.464	22295
858.597	22101
858.731	22090
858.864	22162
858.997	22086
859.13	22196
859.263	22299
859.396	22284
859.529	22257
859.662	22101
859.795	22219
859.928	22166
860.061	22402
860.194	22481
860.327	22303
860.46	22291
860.592	22341
860.725	22424
860.858	22344
860.99	22177
861.123	22101
861.256	22215
861.388	22268
861.521	22953
861.653	22105
861.786	22093
861.918	22021
862.05	22067
862.183	22101
862.315	22204
862.447	22169
862.58	22116
862.712	21968
862.844	21892
862.976	22048
863.108	21972
863.24	22272
863.372	21892
863.504	21880
863.636	21953
863.768	21941
863.9	21876
864.032	21945
864.164	21873
864.296	21899
864.428	21968
864.559	21956
864.691	21975
864.823	21850
864.954	21915
865.086	21983
865.217	21808
865.349	21793
865.48	21797
865.612	21755
865.743	22029
865.875	21869
866.006	21751
866.137	21679
866.269	21812
866.4	21880
866.531	21633
866.662	21781
866.793	21663
866.924	21709
867.055	21728
867.186	21606
867.317	21644
867.448	21705
867.579	21671
867.71	21759
867.841	21591
867.972	21755
868.103	21800
868.233	21698
868.364	21667
868.495	21831
868.625	21987
868.756	22128
868.886	21991
869.017	21899
869.147	22135
869.278	22116
869.408	21991
869.539	21915
869.669	22109
869.799	21915
869.929	22147
870.06	22063
870.19	22196
870.32	22375
870.45	22253
870.58	22268
870.71	22474
870.84	22504
870.97	22363
871.1	22402
871.23	22424
871.36	22462
871.489	22516
871.619	22432
871.749	22584
871.879	22550
872.008	22736
872.138	22573
872.267	22546
872.397	22462
872.526	22386
872.656	22409
872.785	22306
872.915	22474
873.044	22668
873.173	22672
873.303	22634
873.432	22607
873.561	22618
873.69	22713
873.819	22653
873.948	22546
874.077	22698
874.206	22649
874.335	22485
874.464	22733
874.593	22778
874.722	22797
874.851	22858
874.979	22881
875.108	22698
875.237	22767
875.365	22702
875.494	22755
875.623	22873
875.751	22778
875.88	22942
876.008	22889
876.136	22862
876.265	23166
876.393	23345
876.521	23193
876.65	23132
876.778	23223
876.906	23128
877.034	23052
877.162	23170
877.29	23143
877.418	23185
877.546	23250
877.674	23094
877.802	23029
877.93	23083
878.058	23060
878.185	23018
878.313	23010
878.441	23132
878.568	22965
878.696	23075
878.824	23204
878.951	23239
879.079	23265
879.206	23364
879.333	23322
879.461	23197
879.588	23258
879.715	23155
879.842	23414
879.97	23162
880.097	23025
880.224	22934
880.351	22957
880.478	23006
880.605	22896
880.732	22790
880.859	23174
880.986	23003
881.112	23003
881.239	22774
881.366	22634
881.493	22694
881.619	22588
881.746	22569
881.872	22428
881.999	22432
882.125	22478
882.252	22573
882.378	22394
882.505	22694
882.631	22451
882.757	22211
882.883	22303
883.01	22310
883.136	22135
883.262	22120
883.388	21994
883.514	22105
883.64	22116
883.766	22139
883.892	21941
884.018	22055
884.143	22090
884.269	22124
884.395	21945
884.52	21831
884.646	21915
884.772	21709
884.897	21800
885.023	21793
885.148	21911
885.274	21941
885.399	21964
885.524	21895
885.65	21835
885.775	21816
885.9	21838
886.025	21899
886.15	21865
886.275	21690
886.4	21705
886.525	21876
886.65	21770
886.775	21816
886.9	21899
887.025	22063
887.149	21762
887.274	21648
887.399	21591
887.523	21599
887.648	21553
887.773	21603
887.897	21595
888.021	21663
888.146	21416
888.27	21637
888.395	21610
888.519	21610
888.643	21564
888.767	21667
888.891	21481
889.015	21230
889.139	21332
889.263	21469
889.387	21526
889.511	21576
889.635	21496
889.759	21329
889.883	21374
890.006	21348
890.13	21549
890.254	21207
890.377	21272
890.501	21108
890.624	21047
890.748	21165
890.871	20895
890.995	20811
891.118	20777
891.241	20857
891.364	20899
891.488	21081
891.611	20937
891.734	20872
891.857	21089
891.98	20925
892.103	21051
892.226	20819
892.349	20842
892.471	20724
892.594	20834
892.717	20807
892.839	20800
892.962	20834
893.085	20868
893.207	20921
893.33	20712
893.452	20754
893.575	20891
893.697	20845
893.819	21039
893.941	21058
894.064	20807
894.186	20758
894.308	20727
894.43	20853
894.552	20861
894.674	20914
894.796	20800
894.918	20773
895.04	20804
895.161	20967
895.283	20876
895.405	20834
895.526	20811
895.648	20796
895.769	20815
895.891	20872
896.012	20838
896.134	20758
896.255	20891
896.376	20845
896.498	20746
896.619	20963
896.74	20880
896.861	20819
896.982	21081
897.103	21256
897.224	21032
897.345	21058
897.466	20921
897.587	21051
897.708	21161
897.828	21089
897.949	20963
898.07	20834
898.19	20956
898.311	21043
898.431	20902
898.552	21058
898.672	21077
898.792	21070
898.913	21032
899.033	20937
899.153	20769
899.273	20674
899.393	20743
899.513	20826
899.633	20815
899.753	20724
899.873	20663
899.993	20777
900.113	20651
900.232	20678
900.352	20537
900.472	20518
900.591	20488
900.711	20530
900.83	20427
900.95	20602
901.069	20522
901.189	20298
901.308	20115
901.427	20062
901.546	20043
901.665	20119
901.784	20073
901.904	19974
902.023	19856
902.141	19685
902.26	19575
902.379	19681
902.498	19605
902.617	19510
902.735	19613
902.854	19472
902.973	19563
903.091	19240
903.21	19175
903.328	19255
903.446	19228
903.565	19000
903.683	18954
903.801	18875
903.919	18909
904.038	18920
904.156	18867
904.274	18932
904.392	18894
904.51	18726
904.627	18730
904.745	18814
904.863	18894
904.981	18692
905.098	18460
905.216	18483
905.334	18517
905.451	18490
905.569	18342
905.686	18578
905.803	18429
905.921	18262
906.038	18353
906.155	18395
906.272	18159
906.389	18121
906.506	17965
906.623	18083
906.74	17965
906.857	17965
906.974	17904
907.091	18095
907.208	18121
907.324	17916
907.441	17942
907.557	17741
907.674	17767
907.79	17722
907.907	17665
908.023	17714
908.139	17630
908.256	17627
908.372	17657
908.488	17581
908.604	17486
908.72	17417
908.836	17493
908.952	17417
909.068	17467
909.184	17589
909.3	17387
909.415	17474
909.531	17330
909.647	17216
909.762	17288
909.878	17083
909.993	17033
910.108	17174
910.224	17056
910.339	17121
910.454	17006
910.57	16953
910.685	16885
910.8	17083
910.915	17086
911.03	16858
911.145	16809
911.259	16736
911.374	16733
911.489	16588
911.604	16596
911.718	16474
911.833	16451
911.947	16440
912.062	16265
912.176	16504
912.291	16276
912.405	16432
912.519	16588
912.633	16565
912.748	16443
912.862	16497
912.976	16291
913.09	16196
913.204	16162
913.318	16382
913.431	16390
913.545	16329
913.659	16322
913.772	16150
913.886	16051
914	15930
914.113	16188
914.226	16131
914.34	15972
914.453	15778
914.566	16032
914.68	16025
914.793	15949
914.906	15713
915.019	15572
915.132	15618
915.245	15462
915.358	15644
915.47	15652
915.583	15618
915.696	15656
915.809	15705
915.921	15686
916.034	15618
916.146	15568
916.259	15469
916.371	15633
916.483	15488
916.595	15454
916.708	15466
916.82	15488
916.932	15359
917.044	15424
917.156	15298
917.268	15230
917.38	15233
917.491	15241
917.603	15214
917.715	15405
917.826	15355
917.938	15214
918.049	15062
918.161	15260
918.272	15420
918.384	15325
918.495	15279
918.606	15085
918.717	15062
918.828	15036
918.939	15039
919.05	14937
919.161	15058
919.272	14819
919.383	14910
919.494	15085
919.604	15256
919.715	14982
919.826	14982
919.936	14876
920.047	15074
920.157	15081
920.267	15161
920.378	14910
920.488	14963
920.598	15131
920.708	15359
920.818	15081
920.928	15127
921.038	15203
921.148	15283
921.258	14929
921.368	14887
921.477	14785
921.587	14765
921.697	14571
921.806	14689
921.916	14583
922.025	14438
922.134	14324
922.244	14301
922.353	14191
922.462	14214
922.571	14275
922.68	14046
922.789	14016
922.898	14024
923.007	13928
923.116	14027
923.224	13955
923.333	13883
923.442	13818
923.55	13795
923.659	13799
923.767	13833
923.876	13700
923.984	13769
924.092	13616
924.201	13795
924.309	13715
924.417	13696
924.525	13715
924.633	13632
924.741	14549
924.849	13460
924.956	13540
925.064	13472
925.172	13324
925.279	13324
925.387	13304
925.494	13335
925.602	13460
925.709	13419
925.816	13168
925.924	13274
926.031	13308
926.138	13259
926.245	13400
926.352	13263
926.459	13434
926.566	13365
926.673	13247
926.779	13038
926.886	13084
926.993	12875
927.099	12958
927.206	12890
927.312	12764
927.419	12897
927.525	12817
927.631	13031
927.737	12806
927.843	12734
927.95	12566
928.056	12673
928.162	12719
928.267	12741
928.373	13346
928.479	12802
928.585	12547
928.69	12665
928.796	12688
928.901	12601
929.007	12475
929.112	12604
929.218	12490
929.323	12555
929.428	12426
929.533	12593
929.638	12365
929.743	12437
929.848	12433
929.953	12403
930.058	12209
930.163	12064
930.267	12102
930.372	12201
930.477	12110
930.581	12266
930.685	12178
930.79	12060
930.894	11954
930.998	11980
931.103	12064
931.207	11703
931.311	11604
931.415	11516
931.519	11414
931.623	11322
