Data from test_V78500241_2078.txt Node
Date: Fri Mar 25 15:24:19 CST 2022
User: usil
Spectrometer: V785-0024
Trigger mode: 0
Integration Time (sec): 4.000000E-1
Scans to average: 1
Nonlinearity correction enabled: false
Boxcar width: 0
Storing dark spectrum: false
XAxis mode: Wavelengths
Number of Pixels in Spectrum: 1024
>>>>>Begin Spectral Data<<<<<
801.071	27808
801.214	27789
801.356	27348
801.499	27439
801.641	27443
801.783	27245
801.926	27397
802.068	27348
802.211	27287
802.353	27188
802.496	27062
802.638	27058
802.78	26960
802.923	26937
803.065	26940
803.208	26921
803.35	27017
803.492	27051
803.635	27199
803.777	27233
803.919	27226
804.061	27511
804.204	27127
804.346	27131
804.488	27161
804.63	27374
804.773	27138
804.915	27203
805.057	27310
805.199	27085
805.341	27268
805.483	27367
805.626	27298
805.768	27173
805.91	27272
806.052	27397
806.194	27207
806.336	27454
806.478	27348
806.62	27382
806.762	27355
806.904	27576
807.046	27774
807.188	27755
807.33	27720
807.472	27732
807.614	27637
807.756	27808
807.898	27591
808.04	27679
808.182	27618
808.324	27747
808.465	27629
808.607	27827
808.749	27888
808.891	27911
809.033	28116
809.174	27934
809.316	27869
809.458	27907
809.6	28006
809.741	28082
809.883	28093
810.025	28246
810.166	28181
810.308	28230
810.45	28223
810.591	28105
810.733	27930
810.875	27804
811.016	27762
811.158	27724
811.299	27873
811.441	27968
811.582	28048
811.724	27865
811.865	27869
812.007	27831
812.148	27876
812.29	27880
812.431	28082
812.573	28280
812.714	28363
812.855	28516
812.997	28634
813.138	28584
813.279	28508
813.421	28455
813.562	28432
813.703	28188
813.845	28124
813.986	27899
814.127	27823
814.268	27648
814.41	27545
814.551	27534
814.692	27675
814.833	27553
814.974	27534
815.115	27511
815.256	27564
815.397	27507
815.539	27496
815.68	27378
815.821	27317
815.962	27386
816.103	27447
816.244	27325
816.385	27268
816.526	27135
816.666	27043
816.807	26944
816.948	27028
817.089	27070
817.23	26948
817.371	26948
817.512	26735
817.653	26845
817.793	26857
817.934	26804
818.075	26914
818.216	26921
818.356	26952
818.497	26655
818.638	26640
818.778	26743
818.919	26556
819.06	26541
819.2	26785
819.341	26940
819.481	26891
819.622	27169
819.762	27279
819.903	27173
820.043	26990
820.184	27131
820.324	27100
820.465	27214
820.605	27028
820.746	27051
820.886	27028
821.026	26899
821.167	26910
821.307	27001
821.447	26815
821.588	26902
821.728	26632
821.868	26514
822.008	26404
822.149	26343
822.289	26317
822.429	26069
822.569	26115
822.709	26058
822.849	25868
822.99	25906
823.13	25871
823.27	25852
823.41	25670
823.55	25772
823.69	25662
823.83	25571
823.97	25628
824.11	25415
824.25	25472
824.389	25457
824.529	25548
824.669	25479
824.809	25632
824.949	25533
825.089	25662
825.228	25628
825.368	25312
825.508	25396
825.648	25282
825.787	25422
825.927	25552
826.067	25232
826.206	25430
826.346	25411
826.485	25384
826.625	25232
826.765	25567
826.904	25388
827.044	25156
827.183	25046
827.323	25061
827.462	25133
827.601	25236
827.741	25008
827.88	25095
828.02	25061
828.159	25019
828.298	25034
828.437	25175
828.577	25042
828.716	25148
828.855	24901
828.994	24821
829.134	24791
829.273	24711
829.412	24726
829.551	24787
829.69	24779
829.829	24696
829.968	24882
830.107	24886
830.246	24738
830.385	24707
830.524	24677
830.663	24669
830.802	24551
830.941	24395
831.08	24308
831.219	24452
831.357	24395
831.496	24677
831.635	24433
831.774	24319
831.913	24194
832.051	24216
832.19	24190
832.329	24300
832.467	24068
832.606	23916
832.744	24152
832.883	23984
833.022	24049
833.16	24072
833.299	24003
833.437	24045
833.576	24076
833.714	24133
833.852	24277
833.991	24110
834.129	24186
834.267	24102
834.406	24095
834.544	24114
834.682	24125
834.821	24091
834.959	24178
835.097	24072
835.235	24220
835.373	24057
835.511	24148
835.65	23996
835.788	23927
835.926	23798
836.064	23767
836.202	23760
836.34	23859
836.478	24095
836.615	23954
836.753	23954
836.891	24030
837.029	23866
837.167	23870
837.305	23733
837.443	23843
837.58	23828
837.718	23878
837.856	23893
837.993	23718
838.131	23832
838.269	23638
838.406	23771
838.544	23653
838.681	23463
838.819	23284
838.956	23311
839.094	23356
839.231	23353
839.369	23433
839.506	23794
839.643	23493
839.781	23231
839.918	23197
840.055	23277
840.193	23258
840.33	23185
840.467	23083
840.604	23208
840.742	23410
840.879	23044
841.016	23052
841.153	23044
841.29	23296
841.427	23227
841.564	23280
841.701	23140
841.838	23166
841.975	23124
842.112	22984
842.249	22911
842.385	22774
842.522	23056
842.659	23006
842.796	22911
842.933	22942
843.069	22862
843.206	22835
843.343	23067
843.479	22987
843.616	22862
843.752	22725
843.889	22759
844.025	22816
844.162	22710
844.298	22786
844.435	22752
844.571	22615
844.708	22679
844.844	22923
844.98	22885
845.117	22721
845.253	22637
845.389	22462
845.525	22531
845.661	22523
845.798	22485
845.934	22580
846.07	22333
846.206	22489
846.342	22538
846.478	22462
846.614	22181
846.75	22200
846.886	22101
847.022	22261
847.158	22147
847.294	22192
847.429	22177
847.565	22120
847.701	22356
847.837	21846
847.972	21960
848.108	21972
848.244	21892
848.379	21751
848.515	21701
848.65	21675
848.786	21854
848.921	21755
849.057	21907
849.192	21842
849.328	21854
849.463	21873
849.598	21717
849.734	21755
849.869	21504
850.004	21644
850.14	21599
850.275	21606
850.41	21477
850.545	21447
850.68	21545
850.815	21450
850.95	21542
851.085	21641
851.22	21709
851.355	21523
851.49	21519
851.625	21492
851.76	21458
851.895	21530
852.03	21378
852.165	21538
852.299	21561
852.434	21488
852.569	21587
852.703	21504
852.838	21595
852.973	21648
853.107	21660
853.242	21534
853.376	21401
853.511	21245
853.645	21321
853.78	21428
853.914	21340
854.048	21298
854.183	21325
854.317	21370
854.451	21561
854.585	21332
854.72	21340
854.854	21348
854.988	21291
855.122	21389
855.256	21207
855.39	21336
855.524	21424
855.658	21485
855.792	21329
855.926	21321
856.06	21374
856.194	21473
856.327	21340
856.461	21332
856.595	21256
856.729	21302
856.862	21511
856.996	21340
857.13	21378
857.263	21488
857.397	21511
857.53	21306
857.664	21291
857.797	21389
857.931	21515
858.064	21336
858.197	21405
858.331	21313
858.464	21192
858.597	21165
858.731	21348
858.864	21249
858.997	21272
859.13	21355
859.263	21313
859.396	21538
859.529	21359
859.662	21332
859.795	21336
859.928	21203
860.061	21447
860.194	21576
860.327	21359
860.46	21344
860.592	21473
860.725	21572
860.858	21466
860.99	21405
861.123	21283
861.256	21317
861.388	21207
861.521	21884
861.653	21264
861.786	21081
861.918	21275
862.05	21165
862.183	21233
862.315	21287
862.447	21321
862.58	21093
862.712	21081
862.844	21047
862.976	21150
863.108	21024
863.24	21340
863.372	20929
863.504	21077
863.636	20990
863.768	21074
863.9	20982
864.032	21058
864.164	20975
864.296	21081
864.428	21081
864.559	21123
864.691	21146
864.823	20998
864.954	21001
865.086	20948
865.217	20937
865.349	20758
865.48	20929
865.612	21047
865.743	21009
865.875	20952
866.006	20967
866.137	20857
866.269	21005
866.4	20956
866.531	20857
866.662	20925
866.793	20868
866.924	20864
867.055	20929
867.186	20887
867.317	20948
867.448	20701
867.579	20902
867.71	20800
867.841	20724
867.972	20937
868.103	20891
868.233	20857
868.364	20845
868.495	20952
868.625	21081
868.756	21157
868.886	20883
869.017	21058
869.147	21195
869.278	21279
869.408	21233
869.539	21199
869.669	21138
869.799	21081
869.929	21279
870.06	21252
870.19	21367
870.32	21408
870.45	21428
870.58	21515
870.71	21629
870.84	21652
870.97	21488
871.1	21473
871.23	21694
871.36	21660
871.489	21656
871.619	21637
871.749	21724
871.879	21739
872.008	21838
872.138	21736
872.267	21595
872.397	21553
872.526	21652
872.656	21580
872.785	21488
872.915	21682
873.044	21713
873.173	21755
873.303	21732
873.432	21804
873.561	21827
873.69	21705
873.819	21922
873.948	21816
874.077	21728
874.206	21747
874.335	21766
874.464	21945
874.593	21972
874.722	21846
874.851	22010
874.979	21998
875.108	21934
875.237	21960
875.365	21960
875.494	22063
875.623	22101
875.751	21998
875.88	21968
876.008	22120
876.136	22040
876.265	22329
876.393	22459
876.521	22451
876.65	22432
876.778	22409
876.906	22390
877.034	22257
877.162	22238
877.29	22181
877.418	22390
877.546	22287
877.674	22337
877.802	22268
877.93	22382
878.058	22143
878.185	22143
878.313	22333
878.441	22284
878.568	22162
878.696	22181
878.824	22363
878.951	22440
879.079	22523
879.206	22538
879.333	22455
879.461	22390
879.588	22398
879.715	22493
879.842	22546
879.97	22394
880.097	22143
880.224	22158
880.351	22124
880.478	22185
880.605	21987
880.732	22143
880.859	22363
880.986	22154
881.112	22192
881.239	21892
881.366	21808
881.493	21781
881.619	21736
881.746	21785
881.872	21713
881.999	21778
882.125	21553
882.252	21641
882.378	21747
882.505	21751
882.631	21568
882.757	21408
882.883	21530
883.01	21378
883.136	21355
883.262	21389
883.388	21226
883.514	21363
883.64	21488
883.766	21397
883.892	21218
884.018	21252
884.143	21283
884.269	21462
884.395	21203
884.52	21089
884.646	21032
884.772	20914
884.897	20925
885.023	21150
885.148	21150
885.274	21154
885.399	21100
885.524	21058
885.65	21173
885.775	21100
885.9	21070
886.025	21062
886.15	21100
886.275	21020
886.4	20986
886.525	20971
886.65	20880
886.775	20956
886.9	21195
887.025	21310
887.149	21028
887.274	20838
887.399	20739
887.523	20762
887.648	20708
887.773	20632
887.897	20925
888.021	20883
888.146	20842
888.27	20849
888.395	20975
888.519	20902
888.643	20834
888.767	20887
888.891	20849
889.015	20708
889.139	20667
889.263	20484
889.387	20804
889.511	20804
889.635	20701
889.759	20587
889.883	20613
890.006	20651
890.13	20667
890.254	20579
890.377	20609
890.501	20317
890.624	20320
890.748	20412
890.871	20252
890.995	20202
891.118	20138
891.241	20210
891.364	20237
891.488	20183
891.611	20210
891.734	20115
891.857	20161
891.98	20149
892.103	20252
892.226	20130
892.349	20111
892.471	20046
892.594	20043
892.717	20092
892.839	20081
892.962	20084
893.085	20180
893.207	20130
893.33	19947
893.452	19986
893.575	20058
893.697	19986
893.819	20138
893.941	20263
894.064	20149
894.186	20016
894.308	20031
894.43	20225
894.552	20210
894.674	20199
894.796	20069
894.918	20084
895.04	19967
895.161	20183
895.283	20122
895.405	20012
895.526	20024
895.648	20092
895.769	20081
895.891	20161
896.012	20221
896.134	20119
896.255	20145
896.376	20088
896.498	20142
896.619	20065
896.74	20119
896.861	20191
896.982	20355
897.103	20499
897.224	20385
897.345	20328
897.466	20317
897.587	20362
897.708	20404
897.828	20396
897.949	20290
898.07	20172
898.19	20305
898.311	20278
898.431	20244
898.552	20267
898.672	20336
898.792	20358
898.913	20320
899.033	20233
899.153	20202
899.273	20069
899.393	20145
899.513	20149
899.633	20138
899.753	19989
899.873	20142
899.993	20096
900.113	19970
900.232	20092
900.352	19849
900.472	19906
900.591	19894
900.711	19894
900.83	19795
900.95	19841
901.069	19879
901.189	19784
901.308	19571
901.427	19464
901.546	19548
901.665	19506
901.784	19594
901.904	19293
902.023	19198
902.141	19103
902.26	19061
902.379	19057
902.498	18901
902.617	18932
902.735	18890
902.854	18924
902.973	18859
903.091	18684
903.21	18760
903.328	18646
903.446	18627
903.565	18528
903.683	18422
903.801	18410
903.919	18372
904.038	18388
904.156	18163
904.274	18262
904.392	18140
904.51	18247
904.627	18190
904.745	18220
904.863	18289
904.981	17897
905.098	17722
905.216	17756
905.334	17885
905.451	17901
905.569	17828
905.686	17863
905.803	17779
905.921	17695
906.038	17794
906.155	17657
906.272	17604
906.389	17520
906.506	17311
906.623	17376
906.74	17433
906.857	17280
906.974	17360
907.091	17471
907.208	17463
907.324	17482
907.441	17326
907.557	17052
907.674	17071
907.79	17064
907.907	17197
908.023	17185
908.139	17189
908.256	17014
908.372	17200
908.488	17037
908.604	16847
908.72	16797
908.836	16839
908.952	16748
909.068	16946
909.184	16938
909.3	16946
909.415	16869
909.531	16854
909.647	16565
909.762	16653
909.878	16603
909.993	16561
910.108	16527
910.224	16584
910.339	16500
910.454	16440
910.57	16303
910.685	16272
910.8	16550
910.915	16531
911.03	16280
911.145	16215
911.259	16105
911.374	16215
911.489	16074
911.604	16006
911.718	15926
911.833	15880
911.947	15747
912.062	15686
912.176	15789
912.291	15873
912.405	15903
912.519	15975
912.633	15941
912.748	15873
912.862	15842
912.976	15774
913.09	15667
913.204	15675
913.318	15751
913.431	15827
913.545	15785
913.659	15884
913.772	15800
913.886	15599
914	15485
914.113	15641
914.226	15561
914.34	15595
914.453	15351
914.566	15526
914.68	15370
914.793	15287
914.906	15203
915.019	15142
915.132	15146
915.245	15097
915.358	15047
915.47	15230
915.583	15123
915.696	15138
915.809	15260
915.921	15283
916.034	15039
916.146	15077
916.259	15066
916.371	15089
916.483	15093
916.595	14986
916.708	14948
916.82	14853
916.932	14876
917.044	14842
917.156	14948
917.268	14765
917.38	14853
917.491	14800
917.603	14823
917.715	14781
917.826	14883
917.938	14670
918.049	14686
918.161	14754
918.272	14853
918.384	14857
918.495	14701
918.606	14507
918.717	14461
918.828	14533
918.939	14693
919.05	14419
919.161	14454
919.272	14286
919.383	14492
919.494	14587
919.604	14750
919.715	14610
919.826	14358
919.936	14503
920.047	14598
920.157	14457
920.267	14636
920.378	14552
920.488	14473
920.598	14644
920.708	14750
920.818	14659
920.928	14587
921.038	14785
921.148	14705
921.258	14495
921.368	14393
921.477	14218
921.587	14240
921.697	14096
921.806	14256
921.916	14073
922.025	13944
922.134	13898
922.244	13750
922.353	13932
922.462	13776
922.571	13655
922.68	13552
922.789	13502
922.898	13559
923.007	13499
923.116	13487
923.224	13396
923.333	13476
923.442	13304
923.55	13346
923.659	13449
923.767	13487
923.876	13354
923.984	13388
924.092	13289
924.201	13259
924.309	13339
924.417	13304
924.525	13175
924.633	13160
924.741	13951
924.849	12939
924.956	13129
925.064	12954
925.172	12848
925.279	12958
925.387	12966
925.494	12958
925.602	12996
925.709	13012
925.816	12779
925.924	12920
926.031	12943
926.138	12943
926.245	12920
926.352	12840
926.459	12924
926.566	12954
926.673	12810
926.779	12673
926.886	12741
926.993	12517
927.099	12570
927.206	12452
927.312	12467
927.419	12498
927.525	12597
927.631	12528
927.737	12361
927.843	12357
927.95	12304
928.056	12304
928.162	12357
928.267	12422
928.373	12894
928.479	12388
928.585	12159
928.69	12361
928.796	12357
928.901	12216
929.007	12136
929.112	12182
929.218	12129
929.323	12026
929.428	12087
929.533	12167
929.638	11916
929.743	12022
929.848	12038
929.953	12019
930.058	11984
930.163	11741
930.267	11767
930.372	11847
930.477	11726
930.581	11923
930.685	11851
930.79	11604
930.894	11638
930.998	11608
931.103	11802
931.207	11299
931.311	11307
931.415	11170
931.519	10991
931.623	10957
