Data from test_V78500241_2172.txt Node
Date: Fri Mar 25 15:24:58 CST 2022
User: usil
Spectrometer: V785-0024
Trigger mode: 0
Integration Time (sec): 4.000000E-1
Scans to average: 1
Nonlinearity correction enabled: false
Boxcar width: 0
Storing dark spectrum: false
XAxis mode: Wavelengths
Number of Pixels in Spectrum: 1024
>>>>>Begin Spectral Data<<<<<
801.071	27698
801.214	27675
801.356	27412
801.499	27538
801.641	27268
801.783	27207
801.926	27291
802.068	27370
802.211	27245
802.353	27287
802.496	26933
802.638	26868
802.78	26921
802.923	26804
803.065	26887
803.208	26975
803.35	26975
803.492	27047
803.635	27195
803.777	26918
803.919	27112
804.061	27344
804.204	27108
804.346	27055
804.488	27058
804.63	27112
804.773	27020
804.915	27032
805.057	27180
805.199	27154
805.341	27192
805.483	27272
805.626	27195
805.768	27070
805.91	27306
806.052	27275
806.194	27184
806.336	27511
806.478	27211
806.62	27199
806.762	27260
806.904	27606
807.046	27789
807.188	27610
807.33	27720
807.472	27667
807.614	27648
807.756	27545
807.898	27519
808.04	27458
808.182	27386
808.324	27633
808.465	27682
808.607	27873
808.749	27987
808.891	27994
809.033	27964
809.174	27945
809.316	27907
809.458	27884
809.6	27926
809.741	27956
809.883	27972
810.025	28048
810.166	28139
810.308	28101
810.45	28109
810.591	28105
810.733	27998
810.875	27945
811.016	27766
811.158	27743
811.299	27956
811.441	28074
811.582	28002
811.724	27880
811.865	27835
812.007	27835
812.148	27743
812.29	27751
812.431	28135
812.573	28063
812.714	28428
812.855	28413
812.997	28554
813.138	28653
813.279	28493
813.421	28405
813.562	28379
813.703	28215
813.845	28086
813.986	27884
814.127	27728
814.268	27454
814.41	27648
814.551	27576
814.692	27625
814.833	27469
814.974	27542
815.115	27500
815.256	27401
815.397	27507
815.539	27344
815.68	27317
815.821	27325
815.962	27329
816.103	27287
816.244	27298
816.385	27116
816.526	27180
816.666	26979
816.807	26777
816.948	26937
817.089	26838
817.23	26902
817.371	26944
817.512	26872
817.653	26724
817.793	26724
817.934	26921
818.075	26864
818.216	26765
818.356	26785
818.497	26769
818.638	26667
818.778	26667
818.919	26617
819.06	26701
819.2	26804
819.341	26937
819.481	26876
819.622	27020
819.762	27161
819.903	27089
820.043	26914
820.184	27032
820.324	26940
820.465	26853
820.605	26998
820.746	26967
820.886	26743
821.026	26834
821.167	26975
821.307	26880
821.447	26777
821.588	26750
821.728	26674
821.868	26564
822.008	26355
822.149	26267
822.289	26332
822.429	26172
822.569	25970
822.709	25871
822.849	25845
822.99	25890
823.13	25845
823.27	25788
823.41	25586
823.55	25491
823.69	25601
823.83	25727
823.97	25537
824.11	25327
824.25	25426
824.389	25377
824.529	25689
824.669	25476
824.809	25476
824.949	25556
825.089	25434
825.228	25544
825.368	25304
825.508	25289
825.648	25346
825.787	25373
825.927	25308
826.067	25285
826.206	25213
826.346	25297
826.485	25373
826.625	25278
826.765	25304
826.904	25297
827.044	25031
827.183	25129
827.323	25046
827.462	25015
827.601	25038
827.741	24859
827.88	25103
828.02	24913
828.159	24939
828.298	24943
828.437	25099
828.577	24989
828.716	25076
828.855	24962
828.994	24757
829.134	24719
829.273	24859
829.412	24669
829.551	24597
829.69	24711
829.829	24700
829.968	24753
830.107	24738
830.246	24719
830.385	24540
830.524	24658
830.663	24426
830.802	24433
830.941	24251
831.08	24384
831.219	24441
831.357	24452
831.496	24574
831.635	24182
831.774	24300
831.913	24167
832.051	24030
832.19	24015
832.329	24182
832.467	24026
832.606	23908
832.744	23870
832.883	24034
833.022	23904
833.16	24018
833.299	24045
833.437	24007
833.576	24095
833.714	24053
833.852	24087
833.991	24106
834.129	24140
834.267	24068
834.406	24007
834.544	24068
834.682	24057
834.821	24057
834.959	24178
835.097	23973
835.235	24098
835.373	24125
835.511	23999
835.65	23836
835.788	23961
835.926	23703
836.064	23722
836.202	23733
836.34	23771
836.478	23992
836.615	23901
836.753	23775
836.891	23958
837.029	23821
837.167	23916
837.305	23786
837.443	23722
837.58	23745
837.718	23745
837.856	23699
837.993	23687
838.131	23775
838.269	23516
838.406	23596
838.544	23543
838.681	23391
838.819	23360
838.956	23083
839.094	23189
839.231	23204
839.369	23322
839.506	23585
839.643	23383
839.781	23147
839.918	23029
840.055	23189
840.193	22984
840.33	23102
840.467	23121
840.604	23060
840.742	23220
840.879	22942
841.016	23029
841.153	23003
841.29	23155
841.427	23075
841.564	23067
841.701	23162
841.838	22995
841.975	22961
842.112	22854
842.249	22828
842.385	22626
842.522	23014
842.659	22835
842.796	22809
842.933	22847
843.069	22774
843.206	22752
843.343	22934
843.479	22900
843.616	22869
843.752	22497
843.889	22710
844.025	22786
844.162	22687
844.298	22656
844.435	22588
844.571	22622
844.708	22710
844.844	22702
844.98	22702
845.117	22660
845.253	22516
845.389	22538
845.525	22504
845.661	22508
845.798	22291
845.934	22504
846.07	22322
846.206	22272
846.342	22348
846.478	22352
846.614	22226
846.75	22010
846.886	22063
847.022	22150
847.158	22090
847.294	22078
847.429	22116
847.565	22112
847.701	22246
847.837	21911
847.972	21755
848.108	21895
848.244	21827
848.379	21644
848.515	21724
848.65	21530
848.786	21663
848.921	21614
849.057	21736
849.192	21793
849.328	21622
849.463	21637
849.598	21591
849.734	21511
849.869	21492
850.004	21500
850.14	21523
850.275	21511
850.41	21496
850.545	21386
850.68	21454
850.815	21447
850.95	21431
851.085	21545
851.22	21553
851.355	21401
851.49	21439
851.625	21519
851.76	21466
851.895	21287
852.03	21291
852.165	21355
852.299	21344
852.434	21641
852.569	21462
852.703	21428
852.838	21458
852.973	21599
853.107	21572
853.242	21370
853.376	21367
853.511	21127
853.645	21226
853.78	21412
853.914	21207
854.048	21233
854.183	21161
854.317	21321
854.451	21393
854.585	21211
854.72	21176
854.854	21256
854.988	21169
855.122	21211
855.256	21138
855.39	21298
855.524	21245
855.658	21260
855.792	21249
855.926	21272
856.06	21230
856.194	21439
856.327	21241
856.461	21237
856.595	21233
856.729	21310
856.862	21393
856.996	21287
857.13	21252
857.263	21317
857.397	21313
857.53	21195
857.664	21310
857.797	21249
857.931	21283
858.064	21233
858.197	21268
858.331	21192
858.464	21237
858.597	21100
858.731	21096
858.864	21199
858.997	21195
859.13	21260
859.263	21321
859.396	21329
859.529	21192
859.662	21195
859.795	21161
859.928	21226
860.061	21428
860.194	21393
860.327	21329
860.46	21275
860.592	21287
860.725	21454
860.858	21188
860.99	21344
861.123	21256
861.256	21062
861.388	21226
861.521	21937
861.653	21146
861.786	20990
861.918	21165
862.05	21199
862.183	21093
862.315	21237
862.447	21287
862.58	21142
862.712	21005
862.844	20868
862.976	20952
863.108	21009
863.24	21317
863.372	20967
863.504	20914
863.636	20982
863.768	21043
863.9	20960
864.032	20906
864.164	20956
864.296	20998
864.428	21123
864.559	20914
864.691	21157
864.823	20986
864.954	20819
865.086	20876
865.217	20963
865.349	20781
865.48	20819
865.612	20720
865.743	20960
865.875	20823
866.006	20750
866.137	20861
866.269	20960
866.4	20773
866.531	20765
866.662	20781
866.793	20678
866.924	20720
867.055	20864
867.186	20845
867.317	20712
867.448	20693
867.579	20777
867.71	20845
867.841	20705
867.972	20792
868.103	20830
868.233	20720
868.364	20788
868.495	20883
868.625	20990
868.756	21108
868.886	21001
869.017	21028
869.147	20994
869.278	21127
869.408	21039
869.539	20925
869.669	21138
869.799	21017
869.929	21211
870.06	20956
870.19	21313
870.32	21306
870.45	21351
870.58	21378
870.71	21454
870.84	21583
870.97	21420
871.1	21374
871.23	21587
871.36	21523
871.489	21477
871.619	21587
871.749	21610
871.879	21633
872.008	21743
872.138	21564
872.267	21652
872.397	21500
872.526	21473
872.656	21389
872.785	21397
872.915	21622
873.044	21648
873.173	21747
873.303	21587
873.432	21778
873.561	21724
873.69	21614
873.819	21553
873.948	21739
874.077	21603
874.206	21698
874.335	21416
874.464	21736
874.593	21797
874.722	21812
874.851	21964
874.979	21903
875.108	21941
875.237	21838
875.365	21854
875.494	21812
875.623	21895
875.751	21785
875.88	21991
876.008	22010
876.136	22025
876.265	22253
876.393	22344
876.521	22314
876.65	22394
876.778	22158
876.906	22166
877.034	22207
877.162	22173
877.29	22067
877.418	22394
877.546	22257
877.674	22173
877.802	22268
877.93	22230
878.058	22185
878.185	22059
878.313	22055
878.441	22200
878.568	21945
878.696	22154
878.824	22265
878.951	22295
879.079	22474
879.206	22508
879.333	22432
879.461	22261
879.588	22261
879.715	22478
879.842	22588
879.97	22257
880.097	22086
880.224	22086
880.351	21964
880.478	22131
880.605	21994
880.732	21972
880.859	22325
880.986	21972
881.112	22097
881.239	21876
881.366	21812
881.493	21679
881.619	21606
881.746	21739
881.872	21606
881.999	21686
882.125	21511
882.252	21652
882.378	21648
882.505	21736
882.631	21481
882.757	21287
882.883	21424
883.01	21226
883.136	21199
883.262	21085
883.388	21188
883.514	21302
883.64	21370
883.766	21226
883.892	21150
884.018	21169
884.143	21268
884.269	21329
884.395	20986
884.52	20944
884.646	21017
884.772	20864
884.897	20811
885.023	20883
885.148	21032
885.274	21005
885.399	21116
885.524	20998
885.65	21009
885.775	20986
885.9	21058
886.025	21009
886.15	21104
886.275	20868
886.4	20769
886.525	20724
886.65	20876
886.775	20895
886.9	21116
887.025	21039
887.149	20956
887.274	20720
887.399	20743
887.523	20682
887.648	20632
887.773	20522
887.897	20678
888.021	20815
888.146	20720
888.27	20644
888.395	20731
888.519	20777
888.643	20769
888.767	20792
888.891	20697
889.015	20415
889.139	20651
889.263	20503
889.387	20575
889.511	20815
889.635	20674
889.759	20427
889.883	20613
890.006	20431
890.13	20545
890.254	20328
890.377	20427
890.501	20282
890.624	20168
890.748	20286
890.871	20130
890.995	20084
891.118	20058
891.241	20142
891.364	20035
891.488	20199
891.611	20027
891.734	20111
891.857	20191
891.98	20168
892.103	20054
892.226	19967
892.349	20001
892.471	19849
892.594	19978
892.717	19909
892.839	19864
892.962	20039
893.085	20081
893.207	20069
893.33	19902
893.452	19868
893.575	20062
893.697	19925
893.819	20088
893.941	20164
894.064	20145
894.186	20050
894.308	19795
894.43	20092
894.552	20020
894.674	20039
894.796	19887
894.918	19898
895.04	19955
895.161	20111
895.283	20012
895.405	19982
895.526	19871
895.648	20081
895.769	19913
895.891	19959
896.012	19993
896.134	20054
896.255	19936
896.376	20016
896.498	20027
896.619	20035
896.74	19940
896.861	20039
896.982	20317
897.103	20396
897.224	20149
897.345	20199
897.466	20225
897.587	20263
897.708	20415
897.828	20168
897.949	20225
898.07	20084
898.19	20149
898.311	20278
898.431	20176
898.552	20142
898.672	20271
898.792	20290
898.913	20237
899.033	20153
899.153	20043
899.273	19967
899.393	20031
899.513	20043
899.633	19928
899.753	19967
899.873	19890
899.993	20077
900.113	19921
900.232	19993
900.352	19887
900.472	19791
900.591	19670
900.711	19822
900.83	19658
900.95	19822
901.069	19841
901.189	19582
901.308	19312
901.427	19209
901.546	19339
901.665	19266
901.784	19346
901.904	19183
902.023	19027
902.141	18894
902.26	18856
902.379	18795
902.498	18833
902.617	18863
902.735	18749
902.854	18829
902.973	18738
903.091	18467
903.21	18513
903.328	18551
903.446	18414
903.565	18292
903.683	18422
903.801	18258
903.919	18273
904.038	18281
904.156	18155
904.274	18216
904.392	18091
904.51	17988
904.627	18076
904.745	18228
904.863	18133
904.981	17904
905.098	17786
905.216	17760
905.334	17809
905.451	17840
905.569	17752
905.686	17729
905.803	17684
905.921	17611
906.038	17707
906.155	17657
906.272	17505
906.389	17482
906.506	17311
906.623	17341
906.74	17349
906.857	17200
906.974	17204
907.091	17425
907.208	17372
907.324	17421
907.441	17284
907.557	17052
907.674	16934
907.79	16938
907.907	16930
908.023	17121
908.139	17003
908.256	16934
908.372	16972
908.488	16858
908.604	16713
908.72	16744
908.836	16820
908.952	16599
909.068	16683
909.184	16942
909.3	16759
909.415	16850
909.531	16736
909.647	16421
909.762	16417
909.878	16470
909.993	16523
910.108	16417
910.224	16428
910.339	16398
910.454	16352
910.57	16284
910.685	16207
910.8	16504
910.915	16386
911.03	16226
911.145	16055
911.259	16010
911.374	15915
911.489	16044
911.604	15953
911.718	15823
911.833	15785
911.947	15629
912.062	15686
912.176	15812
912.291	15774
912.405	15682
912.519	15934
912.633	15884
912.748	15819
912.862	15751
912.976	15595
913.09	15473
913.204	15469
913.318	15682
913.431	15652
913.545	15667
913.659	15641
913.772	15587
913.886	15412
914	15359
914.113	15519
914.226	15500
914.34	15370
914.453	15348
914.566	15405
914.68	15291
914.793	15287
914.906	15032
915.019	14982
915.132	14849
915.245	14948
915.358	15104
915.47	15039
915.583	15020
915.696	15142
915.809	15081
915.921	15176
916.034	14975
916.146	14918
916.259	14887
916.371	14921
916.483	14941
916.595	14823
916.708	14925
916.82	14857
916.932	14834
917.044	14773
917.156	14769
917.268	14659
917.38	14648
917.491	14674
917.603	14708
917.715	14705
917.826	14739
917.938	14594
918.049	14537
918.161	14636
918.272	14746
918.384	14724
918.495	14613
918.606	14442
918.717	14400
918.828	14480
918.939	14431
919.05	14336
919.161	14389
919.272	14210
919.383	14271
919.494	14385
919.604	14560
919.715	14400
919.826	14347
919.936	14358
920.047	14461
920.157	14412
920.267	14537
920.378	14457
920.488	14362
920.598	14575
920.708	14750
920.818	14568
920.928	14514
921.038	14613
921.148	14598
921.258	14389
921.368	14263
921.477	14092
921.587	14111
921.697	14073
921.806	14107
921.916	14058
922.025	13776
922.134	13769
922.244	13670
922.353	13791
922.462	13651
922.571	13582
922.68	13449
922.789	13384
922.898	13430
923.007	13339
923.116	13339
923.224	13434
923.333	13403
923.442	13213
923.55	13259
923.659	13324
923.767	13293
923.876	13149
923.984	13266
924.092	13213
924.201	13232
924.309	13126
924.417	13164
924.525	13099
924.633	13133
924.741	13852
924.849	12943
924.956	12996
925.064	12878
925.172	12863
925.279	12814
925.387	12871
925.494	12878
925.602	12981
925.709	12935
925.816	12730
925.924	12821
926.031	12825
926.138	12722
926.245	12783
926.352	12688
926.459	12890
926.566	12935
926.673	12757
926.779	12681
926.886	12551
926.993	12574
927.099	12422
927.206	12380
927.312	12342
927.419	12555
927.525	12346
927.631	12437
927.737	12399
927.843	12209
927.95	12190
928.056	12178
928.162	12319
928.267	12304
928.373	12852
928.479	12239
928.585	12053
928.69	12182
928.796	12213
928.901	12228
929.007	11954
929.112	12136
929.218	12060
929.323	12045
929.428	11904
929.533	11999
929.638	11931
929.743	11973
929.848	11969
929.953	11908
930.058	11783
930.163	11604
930.267	11657
930.372	11695
930.477	11604
930.581	11756
930.685	11737
930.79	11566
930.894	11486
930.998	11429
931.103	11646
931.207	11292
931.311	11258
931.415	11098
931.519	10949
931.623	10919
