Data from test_V78500241_3070.txt Node
Date: Fri Mar 25 15:31:14 CST 2022
User: usil
Spectrometer: V785-0024
Trigger mode: 0
Integration Time (sec): 4.000000E-1
Scans to average: 1
Nonlinearity correction enabled: false
Boxcar width: 0
Storing dark spectrum: false
XAxis mode: Wavelengths
Number of Pixels in Spectrum: 1024
>>>>>Begin Spectral Data<<<<<
801.071	27359
801.214	27252
801.356	26918
801.499	26921
801.641	26956
801.783	26823
801.926	26849
802.068	26861
802.211	26708
802.353	26773
802.496	26541
802.638	26453
802.78	26385
802.923	26381
803.065	26412
803.208	26396
803.35	26347
803.492	26564
803.635	26568
803.777	26476
803.919	26560
804.061	26826
804.204	26579
804.346	26552
804.488	26438
804.63	26556
804.773	26518
804.915	26537
805.057	26807
805.199	26476
805.341	26636
805.483	26853
805.626	26484
805.768	26617
805.91	26602
806.052	26701
806.194	26602
806.336	26777
806.478	26735
806.62	26735
806.762	26708
806.904	27009
807.046	27157
807.188	27070
807.33	27135
807.472	27222
807.614	26994
807.756	27100
807.898	26990
808.04	26883
808.182	26796
808.324	26956
808.465	27089
808.607	27096
808.749	27325
808.891	27397
809.033	27416
809.174	27401
809.316	27272
809.458	27169
809.6	27302
809.741	27397
809.883	27545
810.025	27618
810.166	27568
810.308	27694
810.45	27553
810.591	27477
810.733	27367
810.875	27260
811.016	27165
811.158	27302
811.299	27408
811.441	27405
811.582	27401
811.724	27367
811.865	27310
812.007	27252
812.148	27287
812.29	27325
812.431	27408
812.573	27435
812.714	27641
812.855	27732
812.997	27743
813.138	28013
813.279	27869
813.421	27880
813.562	27861
813.703	27545
813.845	27488
813.986	27264
814.127	26940
814.268	26861
814.41	26960
814.551	26891
814.692	27013
814.833	26785
814.974	26948
815.115	27055
815.256	26819
815.397	26864
815.539	26838
815.68	26762
815.821	26705
815.962	26937
816.103	26705
816.244	26568
816.385	26549
816.526	26427
816.666	26423
816.807	26229
816.948	26233
817.089	26282
817.23	26107
817.371	26290
817.512	26221
817.653	26039
817.793	26111
817.934	26271
818.075	26195
818.216	26320
818.356	26126
818.497	25982
818.638	25856
818.778	25940
818.919	26046
819.06	26065
819.2	26027
819.341	26248
819.481	26073
819.622	26370
819.762	26606
819.903	26571
820.043	26324
820.184	26317
820.324	26229
820.465	26495
820.605	26309
820.746	26229
820.886	26126
821.026	26233
821.167	26309
821.307	26381
821.447	26256
821.588	26039
821.728	26054
821.868	25833
822.008	25803
822.149	25624
822.289	25750
822.429	25346
822.569	25369
822.709	25449
822.849	25152
822.99	25194
823.13	25069
823.27	25099
823.41	25019
823.55	24981
823.69	25088
823.83	25027
823.97	24913
824.11	24795
824.25	24825
824.389	24817
824.529	24814
824.669	24795
824.809	24966
824.949	24863
825.089	24924
825.228	24886
825.368	24593
825.508	24730
825.648	24661
825.787	24707
825.927	24738
826.067	24536
826.206	24730
826.346	24795
826.485	24711
826.625	24654
826.765	24715
826.904	24722
827.044	24467
827.183	24426
827.323	24369
827.462	24597
827.601	24395
827.741	24296
827.88	24399
828.02	24213
828.159	24273
828.298	24311
828.437	24471
828.577	24213
828.716	24494
828.855	24388
828.994	24068
829.134	24087
829.273	24224
829.412	24015
829.551	24030
829.69	24087
829.829	24140
829.968	24129
830.107	24159
830.246	24144
830.385	23843
830.524	23824
830.663	23977
830.802	23927
830.941	23737
831.08	23646
831.219	23904
831.357	23859
831.496	23885
831.635	23649
831.774	23649
831.913	23581
832.051	23490
832.19	23433
832.329	23558
832.467	23417
832.606	23322
832.744	23254
832.883	23307
833.022	23440
833.16	23303
833.299	23421
833.437	23341
833.576	23448
833.714	23524
833.852	23547
833.991	23577
834.129	23608
834.267	23455
834.406	23486
834.544	23452
834.682	23501
834.821	23353
834.959	23661
835.097	23376
835.235	23474
835.373	23444
835.511	23448
835.65	23364
835.788	23269
835.926	23220
836.064	22934
836.202	23105
836.34	23303
836.478	23353
836.615	23318
836.753	23185
836.891	23383
837.029	23307
837.167	23322
837.305	23006
837.443	23200
837.58	23136
837.718	23155
837.856	23239
837.993	23086
838.131	23102
838.269	22999
838.406	23064
838.544	23037
838.681	22911
838.819	22869
838.956	22634
839.094	22607
839.231	22653
839.369	22790
839.506	23048
839.643	22881
839.781	22641
839.918	22542
840.055	22603
840.193	22516
840.33	22447
840.467	22694
840.604	22675
840.742	22717
840.879	22432
841.016	22519
841.153	22497
841.29	22588
841.427	22557
841.564	22489
841.701	22512
841.838	22504
841.975	22402
842.112	22455
842.249	22348
842.385	22341
842.522	22485
842.659	22375
842.796	22249
842.933	22318
843.069	22124
843.206	22166
843.343	22409
843.479	22337
843.616	22234
843.752	22086
843.889	22101
844.025	22207
844.162	22112
844.298	22139
844.435	21899
844.571	22051
844.708	22135
844.844	22219
844.98	22276
845.117	22253
845.253	22032
845.389	22036
845.525	22021
845.661	21945
845.798	21774
845.934	21876
846.07	21797
846.206	21838
846.342	21945
846.478	21732
846.614	21587
846.75	21420
846.886	21549
847.022	21618
847.158	21633
847.294	21515
847.429	21568
847.565	21507
847.701	21698
847.837	21249
847.972	21230
848.108	21325
848.244	21306
848.379	21116
848.515	21173
848.65	21256
848.786	21104
848.921	21184
849.057	21268
849.192	21233
849.328	21127
849.463	21211
849.598	21146
849.734	20952
849.869	20971
850.004	20849
850.14	20887
850.275	20921
850.41	20895
850.545	20800
850.68	20910
850.815	20994
850.95	20887
851.085	20990
851.22	20963
851.355	20857
851.49	20762
851.625	20902
851.76	20834
851.895	20853
852.03	20853
852.165	20899
852.299	21001
852.434	20956
852.569	20883
852.703	20948
852.838	20929
852.973	20979
853.107	21028
853.242	20883
853.376	20906
853.511	20583
853.645	20648
853.78	20830
853.914	20678
854.048	20663
854.183	20720
854.317	20731
854.451	20906
854.585	20743
854.72	20689
854.854	20872
854.988	20823
855.122	20823
855.256	20568
855.39	20663
855.524	20765
855.658	20716
855.792	20777
855.926	20724
856.06	20773
856.194	20849
856.327	20651
856.461	20758
856.595	20686
856.729	20689
856.862	20781
856.996	20811
857.13	20724
857.263	20739
857.397	20815
857.53	20716
857.664	20731
857.797	20792
857.931	20765
858.064	20849
858.197	20823
858.331	20701
858.464	20762
858.597	20587
858.731	20758
858.864	20689
858.997	20716
859.13	20712
859.263	20636
859.396	20819
859.529	20693
859.662	20724
859.795	20705
859.928	20796
860.061	20967
860.194	20921
860.327	20861
860.46	20842
860.592	20914
860.725	20807
860.858	20773
860.99	20686
861.123	20659
861.256	20617
861.388	20648
861.521	21237
861.653	20564
861.786	20530
861.918	20640
862.05	20552
862.183	20659
862.315	20651
862.447	20807
862.58	20606
862.712	20461
862.844	20404
862.976	20575
863.108	20495
863.24	20826
863.372	20362
863.504	20461
863.636	20419
863.768	20537
863.9	20427
864.032	20252
864.164	20358
864.296	20541
864.428	20476
864.559	20469
864.691	20522
864.823	20404
864.954	20442
865.086	20377
865.217	20495
865.349	20332
865.48	20351
865.612	20328
865.743	20469
865.875	20533
866.006	20332
866.137	20332
866.269	20332
866.4	20290
866.531	20290
866.662	20225
866.793	20259
866.924	20214
867.055	20275
867.186	20286
867.317	20214
867.448	20240
867.579	20202
867.71	20191
867.841	20313
867.972	20324
868.103	20317
868.233	20282
868.364	20282
868.495	20446
868.625	20511
868.756	20617
868.886	20488
869.017	20541
869.147	20533
869.278	20590
869.408	20450
869.539	20495
869.669	20541
869.799	20568
869.929	20712
870.06	20602
870.19	20876
870.32	20815
870.45	20918
870.58	20937
870.71	21020
870.84	20933
870.97	21001
871.1	20853
871.23	21108
871.36	21108
871.489	20967
871.619	21036
871.749	21142
871.879	21119
872.008	21340
872.138	21218
872.267	21104
872.397	21024
872.526	20925
872.656	20914
872.785	21001
872.915	21001
873.044	21195
873.173	21188
873.303	21085
873.432	21264
873.561	21085
873.69	21146
873.819	21222
873.948	21188
874.077	21230
874.206	21116
874.335	21116
874.464	21249
874.593	21332
874.722	21230
874.851	21450
874.979	21477
875.108	21507
875.237	21332
875.365	21310
875.494	21317
875.623	21420
875.751	21408
875.88	21310
876.008	21553
876.136	21519
876.265	21869
876.393	22006
876.521	21911
876.65	21956
876.778	21838
876.906	21778
877.034	21682
877.162	21686
877.29	21808
877.418	21705
877.546	21751
877.674	21709
877.802	21759
877.93	21709
878.058	21694
878.185	21549
878.313	21736
878.441	21751
878.568	21587
878.696	21663
878.824	21739
878.951	21850
879.079	21907
879.206	21960
879.333	21903
879.461	21641
879.588	21808
879.715	21846
879.842	21968
879.97	21759
880.097	21690
880.224	21694
880.351	21583
880.478	21709
880.605	21622
880.732	21515
880.859	21739
880.986	21671
881.112	21595
881.239	21481
881.366	21306
881.493	21218
881.619	21043
881.746	21165
881.872	21173
881.999	21142
882.125	21077
882.252	21138
882.378	21268
882.505	21203
882.631	21119
882.757	20895
882.883	20914
883.01	20937
883.136	20804
883.262	20720
883.388	20720
883.514	20857
883.64	20960
883.766	20727
883.892	20640
884.018	20769
884.143	20785
884.269	20861
884.395	20621
884.52	20533
884.646	20495
884.772	20484
884.897	20465
885.023	20556
885.148	20659
885.274	20602
885.399	20526
885.524	20492
885.65	20476
885.775	20476
885.9	20499
886.025	20484
886.15	20518
886.275	20454
886.4	20278
886.525	20492
886.65	20332
886.775	20514
886.9	20735
887.025	20724
887.149	20545
887.274	20278
887.399	20214
887.523	20275
887.648	20153
887.773	20096
887.897	20362
888.021	20400
888.146	20221
888.27	20393
888.395	20339
888.519	20370
888.643	20351
888.767	20309
888.891	20225
889.015	20130
889.139	20153
889.263	20031
889.387	20180
889.511	20290
889.635	20233
889.759	20027
889.883	20016
890.006	20153
890.13	20180
890.254	19944
890.377	19902
890.501	19925
890.624	19955
890.748	19868
890.871	19753
890.995	19681
891.118	19639
891.241	19624
891.364	19635
891.488	19746
891.611	19601
891.734	19662
891.857	19696
891.98	19651
892.103	19719
892.226	19731
892.349	19715
892.471	19537
892.594	19605
892.717	19510
892.839	19548
892.962	19586
893.085	19727
893.207	19529
893.33	19495
893.452	19502
893.575	19693
893.697	19620
893.819	19590
893.941	19879
894.064	19757
894.186	19529
894.308	19571
894.43	19685
894.552	19696
894.674	19620
894.796	19506
894.918	19533
895.04	19518
895.161	19742
895.283	19594
895.405	19651
895.526	19586
895.648	19632
895.769	19601
895.891	19556
896.012	19712
896.134	19559
896.255	19670
896.376	19445
896.498	19571
896.619	19487
896.74	19548
896.861	19552
896.982	19928
897.103	20096
897.224	19879
897.345	19788
897.466	19658
897.587	19734
897.708	19921
897.828	19902
897.949	19769
898.07	19601
898.19	19757
898.311	19784
898.431	19727
898.552	19814
898.672	19906
898.792	19830
898.913	19849
899.033	19674
899.153	19689
899.273	19628
899.393	19594
899.513	19601
899.633	19552
899.753	19613
899.873	19594
899.993	19483
900.113	19563
900.232	19677
900.352	19445
900.472	19434
900.591	19407
900.711	19327
900.83	19259
900.95	19453
901.069	19434
901.189	19335
901.308	18977
901.427	18886
901.546	19023
901.665	18886
901.784	18901
901.904	18814
902.023	18719
902.141	18532
902.26	18551
902.379	18483
902.498	18517
902.617	18467
902.735	18574
902.854	18365
902.973	18365
903.091	18194
903.21	18144
903.328	18087
903.446	18049
903.565	17965
903.683	17935
903.801	17904
903.919	17920
904.038	17950
904.156	17737
904.274	17874
904.392	17668
904.51	17684
904.627	17680
904.745	17802
904.863	17775
904.981	17543
905.098	17471
905.216	17433
905.334	17497
905.451	17433
905.569	17406
905.686	17288
905.803	17280
905.921	17117
906.038	17330
906.155	17197
906.272	17105
906.389	17064
906.506	16900
906.623	16915
906.74	16972
906.857	16900
906.974	16892
907.091	16991
907.208	17037
907.324	16946
907.441	16877
907.557	16615
907.674	16702
907.79	16649
907.907	16649
908.023	16653
908.139	16801
908.256	16672
908.372	16577
908.488	16577
908.604	16462
908.72	16386
908.836	16478
908.952	16303
909.068	16455
909.184	16398
909.3	16333
909.415	16466
909.531	16242
909.647	16169
909.762	16131
909.878	16109
909.993	16169
910.108	16017
910.224	16116
910.339	16120
910.454	15983
910.57	15926
910.685	15800
910.8	16063
910.915	16051
911.03	15945
911.145	15785
911.259	15637
911.374	15709
911.489	15584
911.604	15641
911.718	15439
911.833	15454
911.947	15340
912.062	15355
912.176	15538
912.291	15439
912.405	15408
912.519	15682
912.633	15534
912.748	15416
912.862	15443
912.976	15336
913.09	15199
913.204	15180
913.318	15291
913.431	15435
913.545	15344
913.659	15408
913.772	15195
913.886	15108
914	15009
914.113	15154
914.226	15233
914.34	15157
914.453	15032
914.566	15131
914.68	14914
914.793	14941
914.906	14785
915.019	14701
915.132	14705
915.245	14640
915.358	14663
915.47	14712
915.583	14556
915.696	14834
915.809	14811
915.921	14842
916.034	14606
916.146	14484
916.259	14598
916.371	14632
916.483	14648
916.595	14541
916.708	14488
916.82	14533
916.932	14431
917.044	14507
917.156	14442
917.268	14377
917.38	14450
917.491	14294
917.603	14381
917.715	14400
917.826	14454
917.938	14301
918.049	14142
918.161	14393
918.272	14423
918.384	14450
918.495	14240
918.606	14218
918.717	14134
918.828	14134
918.939	14191
919.05	13978
919.161	13955
919.272	13925
919.383	13947
919.494	14145
919.604	14328
919.715	14077
919.826	13963
919.936	13940
920.047	14202
920.157	14103
920.267	14199
920.378	14119
920.488	14001
920.598	14202
920.708	14320
920.818	14263
920.928	14286
921.038	14408
921.148	14320
921.258	14084
921.368	13963
921.477	13879
921.587	13803
921.697	13765
921.806	13875
921.916	13715
922.025	13529
922.134	13533
922.244	13548
922.353	13563
922.462	13419
922.571	13362
922.68	13225
922.789	13110
922.898	13160
923.007	13069
923.116	13110
923.224	13107
923.333	13091
923.442	12977
923.55	12928
923.659	13015
923.767	13008
923.876	12882
923.984	12951
924.092	12939
924.201	12947
924.309	12894
924.417	12878
924.525	12859
924.633	12852
924.741	13875
924.849	12665
924.956	12859
925.064	12585
925.172	12631
925.279	12566
925.387	12582
925.494	12555
925.602	12677
925.709	12696
925.816	12582
925.924	12555
926.031	12601
926.138	12559
926.245	12604
926.352	12509
926.459	12589
926.566	12620
926.673	12506
926.779	12395
926.886	12399
926.993	12239
927.099	12235
927.206	12190
927.312	12205
927.419	12247
927.525	12182
927.631	12289
927.737	12049
927.843	12022
927.95	11988
928.056	12015
928.162	12011
928.267	12038
928.373	12684
928.479	12220
928.585	11961
928.69	11935
928.796	11984
928.901	11920
929.007	11726
929.112	11901
929.218	11832
929.323	11821
929.428	11729
929.533	11893
929.638	11726
929.743	11619
929.848	11813
929.953	11752
930.058	11554
930.163	11391
930.267	11444
930.372	11501
930.477	11356
930.581	11642
930.685	11509
930.79	11410
930.894	11402
930.998	11341
931.103	11322
931.207	11025
931.311	10976
931.415	10976
931.519	10672
931.623	10755
