Data from test_V78500241_3222.txt Node
Date: Fri Mar 25 15:32:17 CST 2022
User: usil
Spectrometer: V785-0024
Trigger mode: 0
Integration Time (sec): 4.000000E-1
Scans to average: 1
Nonlinearity correction enabled: false
Boxcar width: 0
Storing dark spectrum: false
XAxis mode: Wavelengths
Number of Pixels in Spectrum: 1024
>>>>>Begin Spectral Data<<<<<
801.071	27211
801.214	27188
801.356	26967
801.499	26956
801.641	26724
801.783	26853
801.926	26842
802.068	26765
802.211	26686
802.353	26617
802.496	26564
802.638	26400
802.78	26389
802.923	26275
803.065	26385
803.208	26366
803.35	26396
803.492	26514
803.635	26609
803.777	26488
803.919	26556
804.061	26823
804.204	26670
804.346	26518
804.488	26446
804.63	26609
804.773	26244
804.915	26689
805.057	26796
805.199	26560
805.341	26674
805.483	26826
805.626	26636
805.768	26480
805.91	26769
806.052	26667
806.194	26503
806.336	26750
806.478	26746
806.62	26617
806.762	26830
806.904	26914
807.046	27123
807.188	27089
807.33	27138
807.472	27173
807.614	27055
807.756	26906
807.898	26826
808.04	26864
808.182	26861
808.324	26807
808.465	27047
808.607	27180
808.749	27203
808.891	27458
809.033	27466
809.174	27427
809.316	27287
809.458	27150
809.6	27249
809.741	27260
809.883	27397
810.025	27595
810.166	27519
810.308	27469
810.45	27462
810.591	27458
810.733	27203
810.875	27260
811.016	27154
811.158	27222
811.299	27397
811.441	27504
811.582	27458
811.724	27233
811.865	27203
812.007	27093
812.148	27207
812.29	27317
812.431	27317
812.573	27549
812.714	27625
812.855	27736
812.997	27823
813.138	27991
813.279	27972
813.421	27770
813.562	27724
813.703	27534
813.845	27530
813.986	27268
814.127	27066
814.268	26838
814.41	27009
814.551	26883
814.692	27028
814.833	26914
814.974	26933
815.115	27001
815.256	26891
815.397	26693
815.539	26701
815.68	26731
815.821	26537
815.962	26705
816.103	26632
816.244	26571
816.385	26480
816.526	26358
816.666	26263
816.807	26107
816.948	26294
817.089	26225
817.23	26172
817.371	26183
817.512	26290
817.653	26100
817.793	26214
817.934	26195
818.075	26301
818.216	26248
818.356	26176
818.497	26069
818.638	25852
818.778	25883
818.919	25986
819.06	26039
819.2	26149
819.341	26210
819.481	26187
819.622	26381
819.762	26552
819.903	26579
820.043	26400
820.184	26290
820.324	26267
820.465	26412
820.605	26305
820.746	26377
820.886	26046
821.026	26328
821.167	26164
821.307	26267
821.447	26157
821.588	26043
821.728	26081
821.868	25837
822.008	25590
822.149	25788
822.289	25761
822.429	25365
822.569	25533
822.709	25373
822.849	25285
822.99	25053
823.13	25141
823.27	25118
823.41	24954
823.55	24992
823.69	24985
823.83	25000
823.97	24791
824.11	24859
824.25	24757
824.389	24806
824.529	24829
824.669	24833
824.809	24947
824.949	24939
825.089	24776
825.228	24654
825.368	24669
825.508	24574
825.648	24700
825.787	24635
825.927	24764
826.067	24536
826.206	24681
826.346	24772
826.485	24738
826.625	24639
826.765	24734
826.904	24692
827.044	24391
827.183	24395
827.323	24258
827.462	24384
827.601	24437
827.741	24262
827.88	24505
828.02	24277
828.159	24178
828.298	24418
828.437	24437
828.577	24395
828.716	24414
828.855	24273
828.994	24155
829.134	24018
829.273	24270
829.412	23923
829.551	24026
829.69	24045
829.829	24095
829.968	24144
830.107	24117
830.246	24178
830.385	24026
830.524	24076
830.663	23863
830.802	23805
830.941	23634
831.08	23661
831.219	23745
831.357	23836
831.496	23927
831.635	23619
831.774	23653
831.913	23547
832.051	23490
832.19	23512
832.329	23558
832.467	23444
832.606	23250
832.744	23402
832.883	23269
833.022	23299
833.16	23360
833.299	23372
833.437	23379
833.576	23307
833.714	23326
833.852	23577
833.991	23520
834.129	23535
834.267	23516
834.406	23353
834.544	23349
834.682	23315
834.821	23387
834.959	23646
835.097	23535
835.235	23493
835.373	23474
835.511	23402
835.65	23322
835.788	23360
835.926	23223
836.064	23094
836.202	23075
836.34	23265
836.478	23273
836.615	23315
836.753	23277
836.891	23326
837.029	23261
837.167	23258
837.305	23227
837.443	23269
837.58	23227
837.718	23216
837.856	23147
837.993	23086
838.131	23174
838.269	23003
838.406	23060
838.544	23022
838.681	22809
838.819	22763
838.956	22607
839.094	22561
839.231	22687
839.369	22908
839.506	23079
839.643	22717
839.781	22672
839.918	22599
840.055	22493
840.193	22694
840.33	22504
840.467	22687
840.604	22653
840.742	22694
840.879	22409
841.016	22421
841.153	22443
841.29	22660
841.427	22577
841.564	22577
841.701	22531
841.838	22344
841.975	22493
842.112	22497
842.249	22276
842.385	22329
842.522	22546
842.659	22402
842.796	22314
842.933	22428
843.069	22215
843.206	22211
843.343	22314
843.479	22280
843.616	22306
843.752	22128
843.889	22025
844.025	22261
844.162	22074
844.298	22120
844.435	22055
844.571	22059
844.708	22272
844.844	22367
844.98	22211
845.117	22253
845.253	22029
845.389	21903
845.525	21892
845.661	21918
845.798	21911
845.934	21816
846.07	21785
846.206	21846
846.342	21949
846.478	21724
846.614	21629
846.75	21553
846.886	21576
847.022	21743
847.158	21633
847.294	21633
847.429	21587
847.565	21526
847.701	21804
847.837	21249
847.972	21283
848.108	21386
848.244	21340
848.379	21161
848.515	21112
848.65	21043
848.786	21123
848.921	21218
849.057	21226
849.192	21279
849.328	21287
849.463	21245
849.598	21009
849.734	20960
849.869	21005
850.004	20967
850.14	20883
850.275	20918
850.41	20857
850.545	20834
850.68	20864
850.815	20994
850.95	20921
851.085	21108
851.22	21024
851.355	20868
851.49	20796
851.625	20956
851.76	20864
851.895	20948
852.03	20868
852.165	20956
852.299	20914
852.434	21013
852.569	20914
852.703	20899
852.838	21013
852.973	21108
853.107	21062
853.242	20777
853.376	20853
853.511	20674
853.645	20640
853.78	20800
853.914	20811
854.048	20746
854.183	20712
854.317	20807
854.451	20925
854.585	20705
854.72	20674
854.854	20788
854.988	20640
855.122	20826
855.256	20617
855.39	20716
855.524	20853
855.658	20785
855.792	20746
855.926	20872
856.06	20724
856.194	20800
856.327	20575
856.461	20621
856.595	20769
856.729	20845
856.862	20899
856.996	20853
857.13	20857
857.263	20921
857.397	20792
857.53	20750
857.664	20819
857.797	20819
857.931	20807
858.064	20823
858.197	20891
858.331	20819
858.464	20613
858.597	20727
858.731	20579
858.864	20678
858.997	20667
859.13	20788
859.263	20800
859.396	20743
859.529	20693
859.662	20804
859.795	20758
859.928	20849
860.061	20944
860.194	20979
860.327	20815
860.46	20750
860.592	20925
860.725	20971
860.858	20853
860.99	20796
861.123	20629
861.256	20617
861.388	20693
861.521	21298
861.653	20632
861.786	20476
861.918	20682
862.05	20712
862.183	20689
862.315	20762
862.447	20777
862.58	20724
862.712	20457
862.844	20389
862.976	20526
863.108	20625
863.24	20895
863.372	20450
863.504	20442
863.636	20404
863.768	20385
863.9	20492
864.032	20408
864.164	20434
864.296	20431
864.428	20594
864.559	20568
864.691	20393
864.823	20613
864.954	20442
865.086	20446
865.217	20309
865.349	20328
865.48	20328
865.612	20347
865.743	20594
865.875	20393
866.006	20347
866.137	20473
866.269	20454
866.4	20339
866.531	20286
866.662	20298
866.793	20172
866.924	20286
867.055	20305
867.186	20256
867.317	20183
867.448	20366
867.579	20362
867.71	20282
867.841	20180
867.972	20256
868.103	20187
868.233	20320
868.364	20256
868.495	20347
868.625	20625
868.756	20625
868.886	20427
869.017	20503
869.147	20693
869.278	20590
869.408	20552
869.539	20602
869.669	20655
869.799	20583
869.929	20735
870.06	20693
870.19	20845
870.32	20769
870.45	20800
870.58	20963
870.71	20967
870.84	21028
870.97	20982
871.1	20948
871.23	21104
871.36	21112
871.489	21047
871.619	21146
871.749	21127
871.879	21272
872.008	21203
872.138	21112
872.267	21184
872.397	20971
872.526	21047
872.656	20975
872.785	20906
872.915	21184
873.044	21370
873.173	21218
873.303	21070
873.432	21233
873.561	21222
873.69	21131
873.819	21169
873.948	21249
874.077	21203
874.206	21195
874.335	21161
874.464	21287
874.593	21439
874.722	21332
874.851	21507
874.979	21481
875.108	21488
875.237	21458
875.365	21462
875.494	21530
875.623	21424
875.751	21382
875.88	21492
876.008	21686
876.136	21572
876.265	21880
876.393	21888
876.521	21854
876.65	21903
876.778	21838
876.906	21819
877.034	21819
877.162	21751
877.29	21663
877.418	21861
877.546	21747
877.674	21739
877.802	21690
877.93	21800
878.058	21724
878.185	21724
878.313	21762
878.441	21713
878.568	21504
878.696	21686
878.824	21800
878.951	21960
879.079	21907
879.206	22040
879.333	22105
879.461	21789
879.588	21861
879.715	21911
879.842	22097
879.97	21884
880.097	21614
880.224	21580
880.351	21667
880.478	21583
880.605	21671
880.732	21496
880.859	21747
880.986	21641
881.112	21641
881.239	21504
881.366	21332
881.493	21317
881.619	21135
881.746	21317
881.872	21233
881.999	21043
882.125	21184
882.252	21218
882.378	21195
882.505	21237
882.631	21085
882.757	20902
882.883	20982
883.01	20933
883.136	20746
883.262	20739
883.388	20590
883.514	20906
883.64	20982
883.766	20849
883.892	20678
884.018	20716
884.143	20804
884.269	20815
884.395	20594
884.52	20552
884.646	20674
884.772	20587
884.897	20377
885.023	20514
885.148	20625
885.274	20594
885.399	20613
885.524	20598
885.65	20594
885.775	20651
885.9	20465
886.025	20598
886.15	20625
886.275	20461
886.4	20396
886.525	20533
886.65	20442
886.775	20465
886.9	20590
887.025	20815
887.149	20568
887.274	20248
887.399	20286
887.523	20313
887.648	20248
887.773	20180
887.897	20396
888.021	20362
888.146	20256
888.27	20431
888.395	20324
888.519	20400
888.643	20332
888.767	20301
888.891	20317
889.015	20073
889.139	20168
889.263	20119
889.387	20290
889.511	20351
889.635	20100
889.759	20187
889.883	20084
890.006	20084
890.13	20206
890.254	19978
890.377	20005
890.501	19814
890.624	19845
890.748	19906
890.871	19750
890.995	19674
891.118	19666
891.241	19689
891.364	19685
891.488	19772
891.611	19734
891.734	19693
891.857	19708
891.98	19696
892.103	19662
892.226	19696
892.349	19616
892.471	19381
892.594	19723
892.717	19647
892.839	19582
892.962	19632
893.085	19727
893.207	19567
893.33	19563
893.452	19575
893.575	19643
893.697	19590
893.819	19662
893.941	19894
894.064	19814
894.186	19533
894.308	19445
894.43	19662
894.552	19811
894.674	19605
894.796	19434
894.918	19632
895.04	19502
895.161	19769
895.283	19594
895.405	19460
895.526	19548
895.648	19704
895.769	19597
895.891	19666
896.012	19826
896.134	19693
896.255	19586
896.376	19540
896.498	19635
896.619	19651
896.74	19544
896.861	19639
896.982	19917
897.103	20001
897.224	19860
897.345	19689
897.466	19830
897.587	19814
897.708	20001
897.828	19852
897.949	19753
898.07	19689
898.19	19731
898.311	19875
898.431	19772
898.552	19807
898.672	19955
898.792	19974
898.913	19830
899.033	19788
899.153	19594
899.273	19594
899.393	19575
899.513	19677
899.633	19483
899.753	19609
899.873	19468
899.993	19441
900.113	19609
900.232	19605
900.352	19480
900.472	19350
900.591	19316
900.711	19438
900.83	19247
900.95	19403
901.069	19449
901.189	19278
901.308	19099
901.427	18958
901.546	18947
901.665	18993
901.784	18943
901.904	18909
902.023	18722
902.141	18627
902.26	18498
902.379	18551
902.498	18540
902.617	18422
902.735	18456
902.854	18407
902.973	18323
903.091	18114
903.21	18117
903.328	18144
903.446	18095
903.565	18038
903.683	18049
903.801	17836
903.919	17950
904.038	17927
904.156	17775
904.274	17863
904.392	17718
904.51	17714
904.627	17767
904.745	17703
904.863	17745
904.981	17452
905.098	17337
905.216	17395
905.334	17379
905.451	17429
905.569	17391
905.686	17520
905.803	17474
905.921	17094
906.038	17277
906.155	17231
906.272	17105
906.389	16984
906.506	16976
906.623	17071
906.74	16927
906.857	16930
906.974	16820
907.091	17037
907.208	17064
907.324	16987
907.441	16999
907.557	16782
907.674	16706
907.79	16531
907.907	16611
908.023	16755
908.139	16767
908.256	16645
908.372	16599
908.488	16569
908.604	16512
908.72	16421
908.836	16394
908.952	16390
909.068	16394
909.184	16599
909.3	16360
909.415	16516
909.531	16363
909.647	16154
909.762	16181
909.878	16051
909.993	16116
910.108	15998
910.224	16025
910.339	16082
910.454	16025
910.57	15819
910.685	15880
910.8	16150
910.915	16143
911.03	15964
911.145	15762
911.259	15686
911.374	15747
911.489	15656
911.604	15507
911.718	15534
911.833	15545
911.947	15313
912.062	15298
912.176	15466
912.291	15523
912.405	15561
912.519	15641
912.633	15675
912.748	15481
912.862	15523
912.976	15245
913.09	15131
913.204	15249
913.318	15226
913.431	15367
913.545	15283
913.659	15412
913.772	15237
913.886	15066
914	15055
914.113	15154
914.226	15237
914.34	15081
914.453	15066
914.566	15104
914.68	14963
914.793	14929
914.906	14762
915.019	14640
915.132	14659
915.245	14674
915.358	14773
915.47	14682
915.583	14777
915.696	14735
915.809	14830
915.921	14853
916.034	14686
916.146	14667
916.259	14640
916.371	14644
916.483	14720
916.595	14518
916.708	14648
916.82	14579
916.932	14522
917.044	14545
917.156	14431
917.268	14278
917.38	14419
917.491	14305
917.603	14381
917.715	14343
917.826	14476
917.938	14408
918.049	14126
918.161	14328
918.272	14484
918.384	14408
918.495	14332
918.606	14176
918.717	14103
918.828	14138
918.939	14153
919.05	14065
919.161	14123
919.272	13947
919.383	14012
919.494	14134
919.604	14362
919.715	14187
919.826	14020
919.936	14123
920.047	14202
920.157	14164
920.267	14317
920.378	14142
920.488	14050
920.598	14225
920.708	14385
920.818	14164
920.928	14252
921.038	14423
921.148	14332
921.258	14126
921.368	13989
921.477	13898
921.587	13890
921.697	13715
921.806	13879
921.916	13704
922.025	13552
922.134	13495
922.244	13487
922.353	13533
922.462	13331
922.571	13289
922.68	13240
922.789	13160
922.898	13259
923.007	13095
923.116	13202
923.224	13088
923.333	13042
923.442	13061
923.55	13008
923.659	12924
923.767	13050
923.876	12905
923.984	13088
924.092	12867
924.201	13023
924.309	12821
924.417	12966
924.525	12882
924.633	12905
924.741	13742
924.849	12677
924.956	12810
925.064	12692
925.172	12509
925.279	12536
925.387	12627
925.494	12608
925.602	12669
925.709	12578
925.816	12513
925.924	12593
926.031	12631
926.138	12494
926.245	12593
926.352	12414
926.459	12555
926.566	12631
926.673	12528
926.779	12414
926.886	12334
926.993	12220
927.099	12117
927.206	12129
927.312	12079
927.419	12197
927.525	12125
927.631	12121
927.737	12144
927.843	11973
927.95	11942
928.056	11969
928.162	12019
928.267	12019
928.373	12696
928.479	11996
928.585	11832
928.69	11920
928.796	12026
928.901	11878
929.007	11748
929.112	11870
929.218	11859
929.323	11775
929.428	11775
929.533	11897
929.638	11653
929.743	11695
929.848	11840
929.953	11756
930.058	11562
930.163	11440
930.267	11425
930.372	11554
930.477	11349
930.581	11703
930.685	11452
930.79	11318
930.894	11349
930.998	11303
931.103	11425
931.207	11056
931.311	11010
931.415	10869
931.519	10717
931.623	10645
