Data from test_V78500241_2809.txt Node
Date: Fri Mar 25 15:29:25 CST 2022
User: usil
Spectrometer: V785-0024
Trigger mode: 0
Integration Time (sec): 4.000000E-1
Scans to average: 1
Nonlinearity correction enabled: false
Boxcar width: 0
Storing dark spectrum: false
XAxis mode: Wavelengths
Number of Pixels in Spectrum: 1024
>>>>>Begin Spectral Data<<<<<
801.071	27009
801.214	27157
801.356	26975
801.499	26788
801.641	26720
801.783	26640
801.926	26796
802.068	26743
802.211	26522
802.353	26632
802.496	26514
802.638	26370
802.78	26271
802.923	26317
803.065	26168
803.208	26237
803.35	26267
803.492	26438
803.635	26434
803.777	26298
803.919	26473
804.061	26769
804.204	26579
804.346	26305
804.488	26286
804.63	26492
804.773	26408
804.915	26347
805.057	26667
805.199	26362
805.341	26518
805.483	26583
805.626	26632
805.768	26488
805.91	26530
806.052	26670
806.194	26568
806.336	26689
806.478	26613
806.62	26651
806.762	26678
806.904	27017
807.046	27074
807.188	26990
807.33	27093
807.472	27013
807.614	26921
807.756	26967
807.898	27013
808.04	26868
808.182	26845
808.324	26883
808.465	26921
808.607	27119
808.749	27104
808.891	27306
809.033	27500
809.174	27157
809.316	27070
809.458	27142
809.6	27154
809.741	27275
809.883	27192
810.025	27386
810.166	27485
810.308	27504
810.45	27462
810.591	27348
810.733	27207
810.875	27081
811.016	27020
811.158	27287
811.299	27230
811.441	27477
811.582	27325
811.724	27226
811.865	27192
812.007	27119
812.148	27157
812.29	27268
812.431	27439
812.573	27492
812.714	27603
812.855	27667
812.997	27720
813.138	27926
813.279	27759
813.421	27667
813.562	27625
813.703	27462
813.845	27367
813.986	27104
814.127	26982
814.268	26918
814.41	26967
814.551	26693
814.692	26899
814.833	26815
814.974	26861
815.115	26891
815.256	26739
815.397	26796
815.539	26720
815.68	26731
815.821	26583
815.962	26701
816.103	26549
816.244	26453
816.385	26427
816.526	26252
816.666	26202
816.807	26168
816.948	26142
817.089	26218
817.23	26218
817.371	26199
817.512	26153
817.653	26142
817.793	26008
817.934	26199
818.075	26081
818.216	26111
818.356	26005
818.497	25993
818.638	25871
818.778	25879
818.919	25807
819.06	26046
819.2	26024
819.341	26065
819.481	26020
819.622	26214
819.762	26423
819.903	26336
820.043	26237
820.184	26210
820.324	26221
820.465	26301
820.605	26130
820.746	26233
820.886	25982
821.026	26218
821.167	26164
821.307	26142
821.447	26062
821.588	26020
821.728	25830
821.868	25704
822.008	25635
822.149	25597
822.289	25571
822.429	25392
822.569	25244
822.709	25266
822.849	25042
822.99	25095
823.13	25148
823.27	25133
823.41	24844
823.55	24738
823.69	24943
823.83	24989
823.97	24821
824.11	24772
824.25	24669
824.389	24601
824.529	24688
824.669	24707
824.809	24810
824.949	24730
825.089	24681
825.228	24665
825.368	24559
825.508	24566
825.648	24616
825.787	24597
825.927	24730
826.067	24509
826.206	24540
826.346	24426
826.485	24639
826.625	24597
826.765	24620
826.904	24525
827.044	24270
827.183	24319
827.323	24262
827.462	24205
827.601	24323
827.741	24235
827.88	24281
828.02	24247
828.159	24266
828.298	24376
828.437	24357
828.577	24232
828.716	24140
828.855	24079
828.994	24106
829.134	23912
829.273	23939
829.412	23878
829.551	23874
829.69	23935
829.829	24015
829.968	24095
830.107	23980
830.246	24083
830.385	23798
830.524	23920
830.663	23718
830.802	23756
830.941	23558
831.08	23486
831.219	23474
831.357	23634
831.496	23859
831.635	23589
831.774	23429
831.913	23353
832.051	23376
832.19	23303
832.329	23414
832.467	23223
832.606	23200
832.744	23181
832.883	23307
833.022	23170
833.16	23258
833.299	23372
833.437	23288
833.576	23292
833.714	23318
833.852	23303
833.991	23273
834.129	23379
834.267	23395
834.406	23292
834.544	23406
834.682	23273
834.821	23318
834.959	23520
835.097	23299
835.235	23376
835.373	23345
835.511	23303
835.65	23200
835.788	23170
835.926	22999
836.064	22995
836.202	22999
836.34	23113
836.478	23292
836.615	23105
836.753	23132
836.891	23079
837.029	23223
837.167	22987
837.305	23033
837.443	22995
837.58	22930
837.718	22927
837.856	23022
837.993	22908
838.131	22934
838.269	22763
838.406	22987
838.544	22664
838.681	22717
838.819	22569
838.956	22485
839.094	22462
839.231	22398
839.369	22618
839.506	22854
839.643	22653
839.781	22447
839.918	22417
840.055	22470
840.193	22379
840.33	22303
840.467	22459
840.604	22424
840.742	22717
840.879	22192
841.016	22356
841.153	22337
841.29	22421
841.427	22367
841.564	22447
841.701	22375
841.838	22253
841.975	22276
842.112	22306
842.249	22352
842.385	22139
842.522	22375
842.659	22394
842.796	22143
842.933	22246
843.069	22036
843.206	22070
843.343	22276
843.479	22143
843.616	22086
843.752	21911
843.889	21915
844.025	22036
844.162	21994
844.298	22070
844.435	21911
844.571	21854
844.708	21998
844.844	22135
844.98	22013
845.117	22093
845.253	21903
845.389	21724
845.525	21884
845.661	21781
845.798	21739
845.934	21587
846.07	21599
846.206	21690
846.342	21778
846.478	21686
846.614	21401
846.75	21424
846.886	21408
847.022	21466
847.158	21344
847.294	21424
847.429	21469
847.565	21348
847.701	21545
847.837	21173
847.972	21096
848.108	21294
848.244	21135
848.379	20952
848.515	21024
848.65	20975
848.786	20971
848.921	21001
849.057	21100
849.192	21028
849.328	21081
849.463	20963
849.598	20910
849.734	20941
849.869	20895
850.004	20758
850.14	20701
850.275	20853
850.41	20697
850.545	20762
850.68	20811
850.815	20750
850.95	20686
851.085	21001
851.22	20842
851.355	20830
851.49	20720
851.625	20682
851.76	20720
851.895	20838
852.03	20746
852.165	20689
852.299	20804
852.434	20868
852.569	20868
852.703	20872
852.838	20804
852.973	20891
853.107	20842
853.242	20701
853.376	20590
853.511	20385
853.645	20625
853.78	20678
853.914	20788
854.048	20522
854.183	20526
854.317	20579
854.451	20689
854.585	20590
854.72	20556
854.854	20625
854.988	20518
855.122	20648
855.256	20537
855.39	20682
855.524	20667
855.658	20693
855.792	20583
855.926	20575
856.06	20533
856.194	20746
856.327	20362
856.461	20556
856.595	20469
856.729	20488
856.862	20609
856.996	20716
857.13	20674
857.263	20731
857.397	20629
857.53	20613
857.664	20644
857.797	20609
857.931	20769
858.064	20632
858.197	20762
858.331	20454
858.464	20552
858.597	20545
858.731	20629
858.864	20636
858.997	20465
859.13	20606
859.263	20537
859.396	20651
859.529	20617
859.662	20507
859.795	20450
859.928	20579
860.061	20651
860.194	20720
860.327	20629
860.46	20495
860.592	20785
860.725	20644
860.858	20746
860.99	20549
861.123	20533
861.256	20484
861.388	20594
861.521	21135
861.653	20495
861.786	20404
861.918	20427
862.05	20457
862.183	20598
862.315	20495
862.447	20659
862.58	20427
862.712	20381
862.844	20400
862.976	20396
863.108	20381
863.24	20777
863.372	20259
863.504	20339
863.636	20301
863.768	20358
863.9	20305
864.032	20343
864.164	20282
864.296	20278
864.428	20408
864.559	20374
864.691	20393
864.823	20374
864.954	20248
865.086	20351
865.217	20164
865.349	20259
865.48	20161
865.612	20210
865.743	20370
865.875	20180
866.006	20210
866.137	20240
866.269	20138
866.4	20271
866.531	20271
866.662	20290
866.793	20065
866.924	20149
867.055	20298
867.186	20138
867.317	20187
867.448	20065
867.579	20157
867.71	20012
867.841	19993
867.972	20100
868.103	20035
868.233	20214
868.364	20233
868.495	20393
868.625	20374
868.756	20431
868.886	20332
869.017	20484
869.147	20590
869.278	20526
869.408	20339
869.539	20514
869.669	20450
869.799	20446
869.929	20552
870.06	20469
870.19	20602
870.32	20674
870.45	20834
870.58	20792
870.71	20910
870.84	20777
870.97	20925
871.1	20876
871.23	20952
871.36	20986
871.489	20948
871.619	20971
871.749	21142
871.879	21013
872.008	21085
872.138	20891
872.267	21032
872.397	20826
872.526	20849
872.656	20849
872.785	20815
872.915	21085
873.044	21066
873.173	20956
873.303	20971
873.432	20994
873.561	21081
873.69	20979
873.819	20956
873.948	21077
874.077	20982
874.206	20933
874.335	21096
874.464	21146
874.593	21275
874.722	21146
874.851	21367
874.979	21363
875.108	21245
875.237	21108
875.365	21313
875.494	21268
875.623	21279
875.751	21275
875.88	21256
876.008	21443
876.136	21408
876.265	21637
876.393	21789
876.521	21751
876.65	21778
876.778	21705
876.906	21572
877.034	21557
877.162	21622
877.29	21614
877.418	21644
877.546	21618
877.674	21816
877.802	21370
877.93	21580
878.058	21644
878.185	21481
878.313	21504
878.441	21576
878.568	21367
878.696	21526
878.824	21610
878.951	21637
879.079	21766
879.206	21857
879.333	21690
879.461	21641
879.588	21827
879.715	21679
879.842	21892
879.97	21561
880.097	21447
880.224	21393
880.351	21450
880.478	21511
880.605	21485
880.732	21496
880.859	21743
880.986	21408
881.112	21473
881.239	21268
881.366	21119
881.493	21146
881.619	21032
881.746	20998
881.872	21070
881.999	21055
882.125	20944
882.252	21028
882.378	20952
882.505	21032
882.631	20899
882.757	20826
882.883	20800
883.01	20762
883.136	20731
883.262	20613
883.388	20644
883.514	20674
883.64	20724
883.766	20598
883.892	20537
884.018	20568
884.143	20705
884.269	20701
884.395	20541
884.52	20396
884.646	20362
884.772	20347
884.897	20408
885.023	20374
885.148	20317
885.274	20575
885.399	20530
885.524	20389
885.65	20298
885.775	20377
885.9	20313
886.025	20560
886.15	20476
886.275	20446
886.4	20320
886.525	20309
886.65	20248
886.775	20381
886.9	20377
887.025	20549
887.149	20305
887.274	20130
887.399	20172
887.523	20122
887.648	20081
887.773	20111
887.897	20252
888.021	20111
888.146	20008
888.27	20187
888.395	20237
888.519	20168
888.643	20161
888.767	20115
888.891	19947
889.015	20054
889.139	20027
889.263	20062
889.387	20024
889.511	20149
889.635	20069
889.759	20020
889.883	19913
890.006	20073
890.13	20115
890.254	19837
890.377	19784
890.501	19769
890.624	19658
890.748	19734
890.871	19632
890.995	19571
891.118	19544
891.241	19518
891.364	19537
891.488	19738
891.611	19594
891.734	19499
891.857	19605
891.98	19533
892.103	19643
892.226	19491
892.349	19499
892.471	19327
892.594	19529
892.717	19430
892.839	19396
892.962	19400
893.085	19491
893.207	19483
893.33	19358
893.452	19373
893.575	19556
893.697	19381
893.819	19639
893.941	19616
894.064	19510
894.186	19331
894.308	19343
894.43	19483
894.552	19571
894.674	19559
894.796	19400
894.918	19464
895.04	19354
895.161	19464
895.283	19544
895.405	19487
895.526	19457
895.648	19445
895.769	19472
895.891	19502
896.012	19529
896.134	19491
896.255	19521
896.376	19407
896.498	19384
896.619	19434
896.74	19472
896.861	19590
896.982	19841
897.103	19906
897.224	19635
897.345	19700
897.466	19624
897.587	19582
897.708	19807
897.828	19731
897.949	19700
898.07	19620
898.19	19677
898.311	19685
898.431	19693
898.552	19647
898.672	19742
898.792	19750
898.913	19708
899.033	19552
899.153	19510
899.273	19419
899.393	19502
899.513	19548
899.633	19480
899.753	19537
899.873	19411
899.993	19586
900.113	19468
900.232	19449
900.352	19365
900.472	19293
900.591	19240
900.711	19255
900.83	19266
900.95	19354
901.069	19457
901.189	19015
901.308	18924
901.427	18802
901.546	18947
901.665	18783
901.784	18913
901.904	18753
902.023	18658
902.141	18460
902.26	18441
902.379	18475
902.498	18422
902.617	18395
902.735	18433
902.854	18285
902.973	18445
903.091	18022
903.21	18098
903.328	18133
903.446	17992
903.565	17897
903.683	17813
903.801	17805
903.919	17790
904.038	17752
904.156	17668
904.274	17699
904.392	17646
904.51	17710
904.627	17589
904.745	17638
904.863	17627
904.981	17482
905.098	17337
905.216	17265
905.334	17387
905.451	17258
905.569	17337
905.686	17311
905.803	17307
905.921	17128
906.038	17159
906.155	17067
906.272	17010
906.389	17029
906.506	16873
906.623	16889
906.74	16721
906.857	16763
906.974	16786
907.091	16877
907.208	16915
907.324	16854
907.441	16793
907.557	16516
907.674	16626
907.79	16500
907.907	16504
908.023	16428
908.139	16542
908.256	16447
908.372	16569
908.488	16436
908.604	16424
908.72	16234
908.836	16295
908.952	16177
909.068	16333
909.184	16440
909.3	16215
909.415	16325
909.531	16268
909.647	16074
909.762	15979
909.878	15979
909.993	15994
910.108	15876
910.224	15880
910.339	15941
910.454	15869
910.57	15816
910.685	15690
910.8	16006
910.915	15960
911.03	15759
911.145	15622
911.259	15694
911.374	15599
911.489	15462
911.604	15496
911.718	15397
911.833	15355
911.947	15329
912.062	15351
912.176	15431
912.291	15462
912.405	15363
912.519	15568
912.633	15599
912.748	15416
912.862	15294
912.976	15218
913.09	15074
913.204	15112
913.318	15230
913.431	15249
913.545	15272
913.659	15279
913.772	15150
913.886	15017
914	14914
914.113	15142
914.226	15188
914.34	15043
914.453	14910
914.566	15043
914.68	14876
914.793	14849
914.906	14629
915.019	14545
915.132	14564
915.245	14598
915.358	14590
915.47	14594
915.583	14541
915.696	14659
915.809	14731
915.921	14682
916.034	14602
916.146	14495
916.259	14499
916.371	14492
916.483	14610
916.595	14454
916.708	14431
916.82	14511
916.932	14423
917.044	14438
917.156	14415
917.268	14275
917.38	14263
917.491	14157
917.603	14237
917.715	14298
917.826	14358
917.938	14168
918.049	14218
918.161	14191
918.272	14343
918.384	14393
918.495	14267
918.606	14050
918.717	14031
918.828	13989
918.939	14206
919.05	14001
919.161	14035
919.272	13860
919.383	13818
919.494	14145
919.604	14263
919.715	14043
919.826	14008
919.936	14005
920.047	14111
920.157	13986
920.267	14233
920.378	14103
920.488	13997
920.598	14130
920.708	14347
920.818	14142
920.928	14218
921.038	14282
921.148	14176
921.258	13978
921.368	13925
921.477	13795
921.587	13632
921.697	13643
921.806	13719
921.916	13636
922.025	13445
922.134	13445
922.244	13457
922.353	13483
922.462	13362
922.571	13228
922.68	13122
922.789	13053
922.898	13118
923.007	13019
923.116	12985
923.224	13057
923.333	13027
923.442	12894
923.55	12932
923.659	12954
923.767	12958
923.876	12856
923.984	12897
924.092	12760
924.201	12791
924.309	12779
924.417	12856
924.525	12741
924.633	12772
924.741	13537
924.849	12631
924.956	12730
925.064	12502
925.172	12403
925.279	12445
925.387	12540
925.494	12506
925.602	12536
925.709	12578
925.816	12361
925.924	12464
926.031	12513
926.138	12452
926.245	12547
926.352	12365
926.459	12620
926.566	12490
926.673	12372
926.779	12384
926.886	12239
926.993	12171
927.099	12053
927.206	12015
927.312	12072
927.419	12144
927.525	12114
927.631	12133
927.737	11988
927.843	11992
927.95	11912
928.056	11973
928.162	11935
928.267	11996
928.373	12650
928.479	11920
928.585	11775
928.69	11843
928.796	11904
928.901	11790
929.007	11623
929.112	11855
929.218	11733
929.323	11783
929.428	11558
929.533	11688
929.638	11562
929.743	11615
929.848	11710
929.953	11668
930.058	11509
930.163	11402
930.267	11349
930.372	11551
930.477	11227
930.581	11520
930.685	11425
930.79	11231
930.894	11307
930.998	11151
931.103	11353
931.207	11010
931.311	10946
931.415	10862
931.519	10645
931.623	10702
