Data from test_V78500241_1065.txt Node
Date: Fri Mar 25 15:17:16 CST 2022
User: usil
Spectrometer: V785-0024
Trigger mode: 0
Integration Time (sec): 4.000000E-1
Scans to average: 1
Nonlinearity correction enabled: false
Boxcar width: 0
Storing dark spectrum: false
XAxis mode: Wavelengths
Number of Pixels in Spectrum: 1024
>>>>>Begin Spectral Data<<<<<
801.071	28139
801.214	28257
801.356	27789
801.499	27808
801.641	27701
801.783	27846
801.926	27797
802.068	27781
802.211	27759
802.353	27644
802.496	27576
802.638	27386
802.78	27359
802.923	27237
803.065	27386
803.208	27359
803.35	27481
803.492	27481
803.635	27679
803.777	27488
803.919	27652
804.061	28090
804.204	27625
804.346	27606
804.488	27443
804.63	27690
804.773	27660
804.915	27622
805.057	27641
805.199	27652
805.341	27667
805.483	27789
805.626	27759
805.768	27511
805.91	27785
806.052	27717
806.194	27705
806.336	27884
806.478	27770
806.62	27857
806.762	27857
806.904	27964
807.046	28299
807.188	28185
807.33	28109
807.472	28219
807.614	28192
807.756	28188
807.898	28067
808.04	28036
808.182	28059
808.324	28120
808.465	28078
808.607	28356
808.749	28116
808.891	28462
809.033	28603
809.174	28401
809.316	28356
809.458	28421
809.6	28363
809.741	28687
809.883	28607
810.025	28698
810.166	28694
810.308	28672
810.45	28637
810.591	28618
810.733	28508
810.875	28485
811.016	28356
811.158	28272
811.299	28478
811.441	28531
811.582	28554
811.724	28565
811.865	28382
812.007	28375
812.148	28443
812.29	28538
812.431	28516
812.573	28839
812.714	28850
812.855	28938
812.997	29014
813.138	29166
813.279	29105
813.421	29003
813.562	29037
813.703	28972
813.845	28672
813.986	28265
814.127	28322
814.268	28246
814.41	28230
814.551	28234
814.692	28219
814.833	27998
814.974	28211
815.115	28143
815.256	27972
815.397	28116
815.539	27964
815.68	27926
815.821	27831
815.962	27972
816.103	27880
816.244	27739
816.385	27850
816.526	27690
816.666	27576
816.807	27568
816.948	27660
817.089	27671
817.23	27325
817.371	27511
817.512	27447
817.653	27370
817.793	27313
817.934	27450
818.075	27454
818.216	27507
818.356	27481
818.497	27332
818.638	27161
818.778	27241
818.919	27165
819.06	27283
819.2	27431
819.341	27443
819.481	27405
819.622	27485
819.762	27793
819.903	27732
820.043	27637
820.184	27530
820.324	27625
820.465	27496
820.605	27519
820.746	27515
820.886	27477
821.026	27549
821.167	27515
821.307	27511
821.447	27450
821.588	27591
821.728	27287
821.868	27154
822.008	26971
822.149	26849
822.289	26861
822.429	26708
822.569	26461
822.709	26629
822.849	26446
822.99	26522
823.13	26362
823.27	26358
823.41	26351
823.55	26183
823.69	26233
823.83	26256
823.97	26233
824.11	26096
824.25	26202
824.389	26130
824.529	26149
824.669	26180
824.809	26229
824.949	26199
825.089	26229
825.228	26210
825.368	25936
825.508	25936
825.648	25894
825.787	25909
825.927	26024
826.067	25883
826.206	26043
826.346	26103
826.485	26005
826.625	25928
826.765	26183
826.904	26058
827.044	25719
827.183	25757
827.323	25738
827.462	25700
827.601	25712
827.741	25719
827.88	25746
828.02	25655
828.159	25632
828.298	25715
828.437	25715
828.577	25613
828.716	25734
828.855	25651
828.994	25521
829.134	25506
829.273	25453
829.412	25339
829.551	25434
829.69	25403
829.829	25479
829.968	25445
830.107	25411
830.246	25346
830.385	25247
830.524	25350
830.663	25156
830.802	25088
830.941	25034
831.08	24947
831.219	25061
831.357	25148
831.496	25168
831.635	25019
831.774	24958
831.913	24992
832.051	24909
832.19	24848
832.329	24878
832.467	24738
832.606	24703
832.744	24513
832.883	24730
833.022	24635
833.16	24741
833.299	24707
833.437	24749
833.576	24817
833.714	24677
833.852	24878
833.991	24802
834.129	24764
834.267	24958
834.406	24890
834.544	24795
834.682	24837
834.821	24722
834.959	24947
835.097	24848
835.235	24753
835.373	24753
835.511	24798
835.65	24658
835.788	24494
835.926	24494
836.064	24452
836.202	24445
836.34	24604
836.478	24574
836.615	24620
836.753	24719
836.891	24540
837.029	24612
837.167	24544
837.305	24563
837.443	24593
837.58	24418
837.718	24563
837.856	24528
837.993	24475
838.131	24448
838.269	24486
838.406	24304
838.544	24213
838.681	24076
838.819	23988
838.956	23954
839.094	23878
839.231	23942
839.369	24045
839.506	24441
839.643	24194
839.781	23882
839.918	23954
840.055	23927
840.193	23916
840.33	23824
840.467	23767
840.604	23836
840.742	23992
840.879	23775
841.016	23733
841.153	23737
841.29	23904
841.427	23783
841.564	23958
841.701	23821
841.838	23642
841.975	23710
842.112	23714
842.249	23653
842.385	23604
842.522	23828
842.659	23703
842.796	23512
842.933	23653
843.069	23455
843.206	23581
843.343	23691
843.479	23668
843.616	23524
843.752	23318
843.889	23395
844.025	23592
844.162	23277
844.298	23391
844.435	23288
844.571	23288
844.708	23345
844.844	23414
844.98	23474
845.117	23467
845.253	23280
845.389	23151
845.525	23265
845.661	23136
845.798	23117
845.934	23132
846.07	23052
846.206	22972
846.342	23189
846.478	23174
846.614	22850
846.75	22759
846.886	22824
847.022	22934
847.158	22801
847.294	22820
847.429	22793
847.565	22843
847.701	23048
847.837	22637
847.972	22607
848.108	22664
848.244	22569
848.379	22451
848.515	22421
848.65	22402
848.786	22447
848.921	22352
849.057	22485
849.192	22481
849.328	22497
849.463	22421
849.598	22504
849.734	22325
849.869	22147
850.004	22325
850.14	22284
850.275	22371
850.41	22200
850.545	22139
850.68	22177
850.815	22226
850.95	22246
851.085	22329
851.22	22226
851.355	22169
851.49	22169
851.625	22196
851.76	22128
851.895	22131
852.03	22166
852.165	22246
852.299	22188
852.434	22234
852.569	22078
852.703	22280
852.838	22219
852.973	22242
853.107	22192
853.242	22207
853.376	21975
853.511	21823
853.645	21964
853.78	22162
853.914	22074
854.048	21945
854.183	21949
854.317	22070
854.451	22192
854.585	22029
854.72	21972
854.854	22097
854.988	21915
855.122	22112
855.256	21823
855.39	21941
855.524	22177
855.658	22059
855.792	22010
855.926	22040
856.06	22101
856.194	22200
856.327	21956
856.461	21968
856.595	21804
856.729	22017
856.862	21915
856.996	21949
857.13	22086
857.263	21953
857.397	22226
857.53	22002
857.664	22055
857.797	22029
857.931	22059
858.064	21987
858.197	22192
858.331	22032
858.464	21850
858.597	21842
858.731	21926
858.864	21911
858.997	21930
859.13	22006
859.263	22090
859.396	22192
859.529	22010
859.662	21960
859.795	21876
859.928	22002
860.061	22143
860.194	22154
860.327	21964
860.46	22070
860.592	22017
860.725	22200
860.858	22223
860.99	22078
861.123	21918
861.256	21888
861.388	21934
861.521	22561
861.653	21766
861.786	21755
861.918	21739
862.05	21930
862.183	21869
862.315	21972
862.447	21911
862.58	21911
862.712	21614
862.844	21709
862.976	21831
863.108	21751
863.24	22219
863.372	21675
863.504	21682
863.636	21709
863.768	21739
863.9	21724
864.032	21603
864.164	21705
864.296	21698
864.428	21835
864.559	21800
864.691	21747
864.823	21701
864.954	21629
865.086	21694
865.217	21656
865.349	21530
865.48	21526
865.612	21618
865.743	21618
865.875	21481
866.006	21523
866.137	21561
866.269	21603
866.4	21530
866.531	21538
866.662	21500
866.793	21595
866.924	21500
867.055	21504
867.186	21595
867.317	21477
867.448	21458
867.579	21447
867.71	21450
867.841	21382
867.972	21492
868.103	21481
868.233	21496
868.364	21439
868.495	21686
868.625	21747
868.756	21701
868.886	21663
869.017	21732
869.147	21838
869.278	21736
869.408	21759
869.539	21637
869.669	21895
869.799	21816
869.929	21922
870.06	21728
870.19	22029
870.32	22120
870.45	22131
870.58	22196
870.71	22177
870.84	22192
870.97	22105
871.1	22090
871.23	22337
871.36	22318
871.489	22257
871.619	22295
871.749	22272
871.879	22322
872.008	22405
872.138	22405
872.267	22299
872.397	22143
872.526	22120
872.656	22192
872.785	22143
872.915	22432
873.044	22527
873.173	22249
873.303	22402
873.432	22500
873.561	22504
873.69	22436
873.819	22303
873.948	22322
874.077	22428
874.206	22333
874.335	22303
874.464	22474
874.593	22542
874.722	22565
874.851	22660
874.979	22752
875.108	22691
875.237	22630
875.365	22493
875.494	22512
875.623	22713
875.751	22489
875.88	22672
876.008	22637
876.136	22740
876.265	23029
876.393	23102
876.521	23090
876.65	22915
876.778	22934
876.906	22850
877.034	22843
877.162	22892
877.29	22831
877.418	22892
877.546	22915
877.674	22911
877.802	22938
877.93	22892
878.058	22896
878.185	22942
878.313	22755
878.441	22843
878.568	22649
878.696	22915
878.824	22869
878.951	22927
879.079	22991
879.206	23204
879.333	23094
879.461	22854
879.588	22915
879.715	23048
879.842	23231
879.97	22987
880.097	22854
880.224	22645
880.351	22748
880.478	22740
880.605	22713
880.732	22717
880.859	23079
880.986	22805
881.112	22809
881.239	22691
881.366	22489
881.493	22318
881.619	22382
881.746	22318
881.872	22242
881.999	22192
882.125	22253
882.252	22341
882.378	22394
882.505	22352
882.631	22143
882.757	21991
882.883	22082
883.01	21964
883.136	21998
883.262	21876
883.388	21831
883.514	21998
883.64	22093
883.766	21915
883.892	21751
884.018	21755
884.143	21975
884.269	21979
884.395	21789
884.52	21603
884.646	21739
884.772	21500
884.897	21511
885.023	21637
885.148	21911
885.274	21682
885.399	21720
885.524	21682
885.65	21667
885.775	21591
885.9	21572
886.025	21698
886.15	21743
886.275	21633
886.4	21511
886.525	21667
886.65	21587
886.775	21625
886.9	21778
887.025	21701
887.149	21690
887.274	21507
887.399	21443
887.523	21443
887.648	21359
887.773	21340
887.897	21393
888.021	21359
888.146	21367
888.27	21370
888.395	21389
888.519	21367
888.643	21496
888.767	21397
888.891	21363
889.015	21180
889.139	21203
889.263	21249
889.387	21313
889.511	21306
889.635	21313
889.759	21142
889.883	21066
890.006	21230
890.13	21214
890.254	21119
890.377	21127
890.501	20861
890.624	20842
890.748	20986
890.871	20857
890.995	20781
891.118	20781
891.241	20887
891.364	20781
891.488	20815
891.611	20750
891.734	20880
891.857	20811
891.98	20804
892.103	20807
892.226	20693
892.349	20708
892.471	20518
892.594	20674
892.717	20693
892.839	20587
892.962	20655
893.085	20792
893.207	20549
893.33	20511
893.452	20655
893.575	20632
893.697	20686
893.819	20826
893.941	20880
894.064	20648
894.186	20598
894.308	20697
894.43	20708
894.552	20788
894.674	20655
894.796	20602
894.918	20632
895.04	20602
895.161	20625
895.283	20697
895.405	20598
895.526	20648
895.648	20571
895.769	20571
895.891	20682
896.012	20769
896.134	20632
896.255	20644
896.376	20609
896.498	20682
896.619	20640
896.74	20655
896.861	20663
896.982	20914
897.103	21165
897.224	20910
897.345	20800
897.466	20743
897.587	20838
897.708	20815
897.828	20880
897.949	20758
898.07	20785
898.19	20746
898.311	20861
898.431	20811
898.552	20769
898.672	20948
898.792	20891
898.913	20746
899.033	20880
899.153	20640
899.273	20552
899.393	20609
899.513	20617
899.633	20454
899.753	20583
899.873	20480
899.993	20602
900.113	20469
900.232	20571
900.352	20450
900.472	20434
900.591	20320
900.711	20259
900.83	20256
900.95	20339
901.069	20400
901.189	20248
901.308	19849
901.427	19913
901.546	19932
901.665	19928
901.784	19909
901.904	19841
902.023	19791
902.141	19628
902.26	19472
902.379	19373
902.498	19453
902.617	19434
902.735	19396
902.854	19430
902.973	19384
903.091	19046
903.21	19137
903.328	19057
903.446	19027
903.565	18837
903.683	18989
903.801	18684
903.919	18757
904.038	19008
904.156	18608
904.274	18726
904.392	18627
904.51	18669
904.627	18593
904.745	18817
904.863	18696
904.981	18498
905.098	18369
905.216	18460
905.334	18327
905.451	18281
905.569	18247
905.686	18353
905.803	18422
905.921	18038
906.038	18224
906.155	18213
906.272	17965
906.389	18167
906.506	17923
906.623	17882
906.74	17954
906.857	17767
906.974	17863
907.091	17916
907.208	17980
907.324	17824
907.441	17718
907.557	17684
907.674	17589
907.79	17505
907.907	17596
908.023	17547
908.139	17585
908.256	17585
908.372	17467
908.488	17448
908.604	17311
908.72	17216
908.836	17360
908.952	17128
909.068	17178
909.184	17372
909.3	17223
909.415	17273
909.531	17349
909.647	16923
909.762	16972
909.878	16934
909.993	16889
910.108	16927
910.224	16984
910.339	16976
910.454	16915
910.57	16793
910.685	16790
910.8	17090
910.915	17018
911.03	16839
911.145	16622
911.259	16577
911.374	16561
911.489	16637
911.604	16470
911.718	16337
911.833	16382
911.947	16204
912.062	16188
912.176	16322
912.291	16261
912.405	16249
912.519	16493
912.633	16417
912.748	16356
912.862	16223
912.976	16074
913.09	16010
913.204	16006
913.318	16211
913.431	16147
913.545	16154
913.659	16257
913.772	16086
913.886	16067
914	15846
914.113	16074
914.226	15930
914.34	16090
914.453	15816
914.566	15759
914.68	15903
914.793	15686
914.906	15625
915.019	15553
915.132	15500
915.245	15367
915.358	15549
915.47	15496
915.583	15488
915.696	15568
915.809	15561
915.921	15606
916.034	15515
916.146	15405
916.259	15378
916.371	15515
916.483	15332
916.595	15355
916.708	15447
916.82	15249
916.932	15302
917.044	15260
917.156	15283
917.268	15313
917.38	15176
917.491	15192
917.603	15100
917.715	15195
917.826	15256
917.938	15047
918.049	14982
918.161	15089
918.272	15230
918.384	15241
918.495	15013
918.606	14895
918.717	14963
918.828	14906
918.939	14857
919.05	14906
919.161	14960
919.272	14743
919.383	14743
919.494	14918
919.604	15116
919.715	14815
919.826	14811
919.936	14826
920.047	14815
920.157	14895
920.267	15036
920.378	14895
920.488	14834
920.598	14986
920.708	15176
920.818	14906
920.928	15005
921.038	15169
921.148	15043
921.258	14769
921.368	14712
921.477	14526
921.587	14594
921.697	14484
921.806	14575
921.916	14362
922.025	14271
922.134	14263
922.244	14248
922.353	14221
922.462	14149
922.571	14035
922.68	13887
922.789	13856
922.898	13803
923.007	13788
923.116	13879
923.224	13864
923.333	13742
923.442	13803
923.55	13677
923.659	13765
923.767	13708
923.876	13616
923.984	13731
924.092	13563
924.201	13601
924.309	13540
924.417	13575
924.525	13483
924.633	13457
924.741	14381
924.849	13324
924.956	13521
925.064	13236
925.172	13190
925.279	13209
925.387	13289
925.494	13274
925.602	13438
925.709	13285
925.816	13080
925.924	13145
926.031	13206
926.138	13175
926.245	13255
926.352	13133
926.459	13175
926.566	13236
926.673	13168
926.779	13061
926.886	13012
926.993	12863
927.099	12859
927.206	12764
927.312	12768
927.419	12886
927.525	12772
927.631	12894
927.737	12658
927.843	12703
927.95	12483
928.056	12669
928.162	12589
928.267	12703
928.373	13171
928.479	12779
928.585	12422
928.69	12578
928.796	12681
928.901	12471
929.007	12315
929.112	12433
929.218	12467
929.323	12327
929.428	12399
929.533	12456
929.638	12201
929.743	12342
929.848	12369
929.953	12247
930.058	12133
930.163	11969
930.267	12053
930.372	12095
930.477	11999
930.581	12224
930.685	12102
930.79	11874
930.894	11965
930.998	11923
931.103	12053
931.207	11748
931.311	11653
931.415	11463
931.519	11353
931.623	11178
