Data from test_V78500241_3521.txt Node
Date: Fri Mar 25 15:34:22 CST 2022
User: usil
Spectrometer: V785-0024
Trigger mode: 0
Integration Time (sec): 4.000000E-1
Scans to average: 1
Nonlinearity correction enabled: false
Boxcar width: 0
Storing dark spectrum: false
XAxis mode: Wavelengths
Number of Pixels in Spectrum: 1024
>>>>>Begin Spectral Data<<<<<
801.071	27367
801.214	27313
801.356	27218
801.499	27146
801.641	26944
801.783	27001
801.926	26956
802.068	26952
802.211	26735
802.353	26800
802.496	26629
802.638	26606
802.78	26590
802.923	26396
803.065	26374
803.208	26492
803.35	26651
803.492	26602
803.635	26777
803.777	26613
803.919	26800
804.061	26937
804.204	26663
804.346	26705
804.488	26579
804.63	26769
804.773	26484
804.915	26864
805.057	26849
805.199	26697
805.341	26762
805.483	26880
805.626	26899
805.768	26788
805.91	26773
806.052	26921
806.194	26632
806.336	26940
806.478	26906
806.62	26925
806.762	26967
806.904	27157
807.046	27313
807.188	27302
807.33	27203
807.472	27329
807.614	26868
807.756	27214
807.898	27001
808.04	26975
808.182	27119
808.324	27093
808.465	27195
808.607	27214
808.749	27393
808.891	27496
809.033	27477
809.174	27462
809.316	27389
809.458	27378
809.6	27386
809.741	27519
809.883	27610
810.025	27675
810.166	27713
810.308	27625
810.45	27751
810.591	27599
810.733	27488
810.875	27378
811.016	27329
811.158	27313
811.299	27363
811.441	27523
811.582	27557
811.724	27462
811.865	27447
812.007	27291
812.148	27370
812.29	27389
812.431	27648
812.573	27648
812.714	27930
812.855	27869
812.997	28021
813.138	28086
813.279	28162
813.421	27979
813.562	27857
813.703	27698
813.845	27622
813.986	27306
814.127	27214
814.268	26971
814.41	27100
814.551	27112
814.692	27154
814.833	27116
814.974	27089
815.115	27233
815.256	26963
815.397	27024
815.539	27039
815.68	26940
815.821	26868
815.962	26887
816.103	26735
816.244	26663
816.385	26678
816.526	26712
816.666	26389
816.807	26324
816.948	26465
817.089	26336
817.23	26347
817.371	26374
817.512	26324
817.653	26381
817.793	26267
817.934	26381
818.075	26408
818.216	26450
818.356	26298
818.497	26214
818.638	26100
818.778	26043
818.919	26233
819.06	26157
819.2	26301
819.341	26328
819.481	26377
819.622	26514
819.762	26758
819.903	26686
820.043	26453
820.184	26457
820.324	26518
820.465	26522
820.605	26495
820.746	26564
820.886	26290
821.026	26286
821.167	26377
821.307	26412
821.447	26347
821.588	26294
821.728	26054
821.868	25921
822.008	25860
822.149	25906
822.289	25818
822.429	25590
822.569	25419
822.709	25491
822.849	25335
822.99	25327
823.13	25206
823.27	25400
823.41	25282
823.55	24989
823.69	25247
823.83	25152
823.97	25065
824.11	25008
824.25	24848
824.389	24951
824.529	25107
824.669	25019
824.809	25156
824.949	24970
825.089	25133
825.228	25061
825.368	24848
825.508	24787
825.648	24863
825.787	24863
825.927	24848
826.067	24882
826.206	24745
826.346	25034
826.485	24985
826.625	24734
826.765	24901
826.904	24954
827.044	24669
827.183	24726
827.323	24563
827.462	24593
827.601	24608
827.741	24532
827.88	24570
828.02	24505
828.159	24540
828.298	24494
828.437	24688
828.577	24494
828.716	24540
828.855	24547
828.994	24273
829.134	24247
829.273	24334
829.412	24270
829.551	24174
829.69	24365
829.829	24266
829.968	24372
830.107	24327
830.246	24270
830.385	24163
830.524	24285
830.663	24022
830.802	23999
830.941	23984
831.08	23847
831.219	23927
831.357	24076
831.496	24110
831.635	23851
831.774	23798
831.913	23874
832.051	23611
832.19	23680
832.329	23687
832.467	23672
832.606	23520
832.744	23547
832.883	23551
833.022	23497
833.16	23649
833.299	23630
833.437	23623
833.576	23672
833.714	23596
833.852	23771
833.991	23642
834.129	23649
834.267	23668
834.406	23634
834.544	23710
834.682	23703
834.821	23627
834.959	23798
835.097	23524
835.235	23630
835.373	23615
835.511	23672
835.65	23425
835.788	23547
835.926	23417
836.064	23250
836.202	23296
836.34	23452
836.478	23600
836.615	23395
836.753	23493
836.891	23596
837.029	23623
837.167	23452
837.305	23284
837.443	23353
837.58	23402
837.718	23398
837.856	23440
837.993	23216
838.131	23459
838.269	23223
838.406	23208
838.544	23105
838.681	23003
838.819	22911
838.956	22752
839.094	22809
839.231	22847
839.369	22987
839.506	23151
839.643	23029
839.781	22927
839.918	22801
840.055	22847
840.193	22763
840.33	22805
840.467	22771
840.604	22911
840.742	22957
840.879	22588
841.016	22683
841.153	22733
841.29	22790
841.427	22820
841.564	22942
841.701	22763
841.838	22691
841.975	22694
842.112	22656
842.249	22535
842.385	22512
842.522	22801
842.659	22683
842.796	22466
842.933	22550
843.069	22504
843.206	22447
843.343	22485
843.479	22603
843.616	22504
843.752	22333
843.889	22337
844.025	22428
844.162	22329
844.298	22375
844.435	22284
844.571	22261
844.708	22390
844.844	22436
844.98	22493
845.117	22341
845.253	22261
845.389	22196
845.525	22196
845.661	22128
845.798	22070
845.934	22074
846.07	22025
846.206	21983
846.342	22242
846.478	21983
846.614	21895
846.75	21682
846.886	21751
847.022	21755
847.158	21778
847.294	21789
847.429	21846
847.565	21793
847.701	21975
847.837	21492
847.972	21519
848.108	21557
848.244	21496
848.379	21294
848.515	21302
848.65	21359
848.786	21412
848.921	21294
849.057	21428
849.192	21485
849.328	21378
849.463	21443
849.598	21428
849.734	21161
849.869	21116
850.004	21176
850.14	21100
850.275	21154
850.41	20994
850.545	21028
850.68	21108
850.815	21165
850.95	21119
851.085	21370
851.22	21195
851.355	21085
851.49	21055
851.625	20979
851.76	21100
851.895	20998
852.03	21157
852.165	21070
852.299	21108
852.434	21256
852.569	21180
852.703	21245
852.838	21146
852.973	21127
853.107	21260
853.242	21047
853.376	21055
853.511	20781
853.645	20990
853.78	21013
853.914	20963
854.048	20796
854.183	20788
854.317	21005
854.451	21199
854.585	20933
854.72	20933
854.854	20994
854.988	20838
855.122	20895
855.256	20758
855.39	20929
855.524	21024
855.658	21020
855.792	20967
855.926	20906
856.06	20998
856.194	20979
856.327	20868
856.461	20845
856.595	20944
856.729	20937
856.862	21096
856.996	21047
857.13	21062
857.263	21077
857.397	21036
857.53	20948
857.664	20986
857.797	21058
857.931	21070
858.064	20952
858.197	21116
858.331	21055
858.464	20880
858.597	20830
858.731	20986
858.864	20876
858.997	20948
859.13	20914
859.263	20967
859.396	21077
859.529	20937
859.662	20971
859.795	20899
859.928	20952
860.061	21135
860.194	21176
860.327	20975
860.46	20914
860.592	21058
860.725	21070
860.858	21055
860.99	20990
861.123	20895
861.256	20880
861.388	20944
861.521	21694
861.653	20880
861.786	20739
861.918	20777
862.05	20830
862.183	20845
862.315	20887
862.447	21093
862.58	20762
862.712	20724
862.844	20686
862.976	20804
863.108	20811
863.24	21085
863.372	20648
863.504	20682
863.636	20678
863.768	20682
863.9	20651
864.032	20705
864.164	20640
864.296	20655
864.428	20678
864.559	20648
864.691	20667
864.823	20743
864.954	20663
865.086	20625
865.217	20568
865.349	20438
865.48	20484
865.612	20583
865.743	20670
865.875	20590
866.006	20670
866.137	20514
866.269	20492
866.4	20522
866.531	20476
866.662	20511
866.793	20461
866.924	20484
867.055	20465
867.186	20564
867.317	20533
867.448	20400
867.579	20419
867.71	20434
867.841	20461
867.972	20393
868.103	20484
868.233	20454
868.364	20518
868.495	20552
868.625	20621
868.756	20948
868.886	20636
869.017	20746
869.147	20880
869.278	20861
869.408	20697
869.539	20613
869.669	20823
869.799	20933
869.929	20857
870.06	20804
870.19	21009
870.32	20944
870.45	21180
870.58	21138
870.71	21317
870.84	21313
870.97	21142
871.1	21119
871.23	21336
871.36	21268
871.489	21298
871.619	21279
871.749	21340
871.879	21367
872.008	21580
872.138	21283
872.267	21256
872.397	21203
872.526	21184
872.656	21116
872.785	21131
872.915	21344
873.044	21477
873.173	21329
873.303	21382
873.432	21500
873.561	21534
873.69	21412
873.819	21447
873.948	21576
874.077	21367
874.206	21203
874.335	21439
874.464	21492
874.593	21507
874.722	21526
874.851	21549
874.979	21698
875.108	21713
875.237	21686
875.365	21450
875.494	21553
875.623	21728
875.751	21671
875.88	21648
876.008	21686
876.136	21831
876.265	22044
876.393	22139
876.521	22070
876.65	22128
876.778	21960
876.906	21949
877.034	21934
877.162	22109
877.29	21823
877.418	22017
877.546	22044
877.674	21880
877.802	22040
877.93	21930
878.058	21960
878.185	21819
878.313	21846
878.441	21960
878.568	21797
878.696	21903
878.824	21850
878.951	22070
879.079	22143
879.206	22386
879.333	22196
879.461	22013
879.588	22124
879.715	22131
879.842	22124
879.97	22074
880.097	21800
880.224	21728
880.351	21732
880.478	21812
880.605	21793
880.732	21831
880.859	22074
880.986	21713
881.112	21781
881.239	21648
881.366	21553
881.493	21401
881.619	21241
881.746	21344
881.872	21344
881.999	21332
882.125	21245
882.252	21561
882.378	21268
882.505	21504
882.631	21195
882.757	21013
882.883	21188
883.01	21112
883.136	21051
883.262	20853
883.388	20826
883.514	21058
883.64	21195
883.766	20979
883.892	20857
884.018	20876
884.143	20960
884.269	21142
884.395	20781
884.52	20739
884.646	20708
884.772	20697
884.897	20545
885.023	20568
885.148	20834
885.274	20830
885.399	20769
885.524	20712
885.65	20743
885.775	20762
885.9	20621
886.025	20796
886.15	20781
886.275	20693
886.4	20552
886.525	20575
886.65	20609
886.775	20560
886.9	20887
887.025	20872
887.149	20701
887.274	20560
887.399	20617
887.523	20518
887.648	20381
887.773	20488
887.897	20686
888.021	20541
888.146	20412
888.27	20609
888.395	20636
888.519	20587
888.643	20514
888.767	20473
888.891	20400
889.015	20358
889.139	20320
889.263	20195
889.387	20511
889.511	20598
889.635	20507
889.759	20244
889.883	20183
890.006	20233
890.13	20434
890.254	20225
890.377	20259
890.501	20054
890.624	19955
890.748	20149
890.871	19902
890.995	19909
891.118	19818
891.241	19811
891.364	19909
891.488	19932
891.611	19944
891.734	19803
891.857	20058
891.98	19936
892.103	19898
892.226	19890
892.349	19902
892.471	19651
892.594	19704
892.717	19784
892.839	19742
892.962	19818
893.085	19830
893.207	19776
893.33	19597
893.452	19750
893.575	19784
893.697	19757
893.819	19928
893.941	19898
894.064	19883
894.186	19841
894.308	19571
894.43	19856
894.552	19932
894.674	19795
894.796	19742
894.918	19696
895.04	19704
895.161	19845
895.283	19818
895.405	19715
895.526	19788
895.648	19753
895.769	19765
895.891	19913
896.012	19856
896.134	19841
896.255	19795
896.376	19700
896.498	19727
896.619	19909
896.74	19704
896.861	19902
896.982	19989
897.103	20206
897.224	20073
897.345	19974
897.466	19936
897.587	19993
897.708	20088
897.828	20043
897.949	19917
898.07	19890
898.19	20005
898.311	20081
898.431	19833
898.552	20058
898.672	20187
898.792	20103
898.913	20096
899.033	20031
899.153	19833
899.273	19651
899.393	19788
899.513	19890
899.633	19681
899.753	19776
899.873	19746
899.993	19666
900.113	19746
900.232	19742
900.352	19677
900.472	19594
900.591	19575
900.711	19460
900.83	19457
900.95	19483
901.069	19677
901.189	19415
901.308	19259
901.427	19137
901.546	19080
901.665	19057
901.784	19152
901.904	19091
902.023	18844
902.141	18688
902.26	18707
902.379	18802
902.498	18642
902.617	18551
902.735	18582
902.854	18593
902.973	18532
903.091	18243
903.21	18273
903.328	18315
903.446	18251
903.565	18038
903.683	18155
903.801	18019
903.919	17988
904.038	18079
904.156	17832
904.274	18026
904.392	17904
904.51	17821
904.627	17802
904.745	17923
904.863	18003
904.981	17653
905.098	17543
905.216	17634
905.334	17684
905.451	17608
905.569	17539
905.686	17691
905.803	17535
905.921	17398
906.038	17490
906.155	17364
906.272	17277
906.389	17315
906.506	17132
906.623	17140
906.74	17143
906.857	16991
906.974	17216
907.091	17147
907.208	17254
907.324	17181
907.441	17010
907.557	16778
907.674	16805
907.79	16763
907.907	16816
908.023	16866
908.139	16862
908.256	16774
908.372	16729
908.488	16630
908.604	16596
908.72	16516
908.836	16538
908.952	16561
909.068	16603
909.184	16607
909.3	16588
909.415	16599
909.531	16577
909.647	16291
909.762	16352
909.878	16291
909.993	16284
910.108	16242
910.224	16287
910.339	16249
910.454	16093
910.57	16021
910.685	16006
910.8	16253
910.915	16173
911.03	16010
911.145	15903
911.259	15899
911.374	15850
911.489	15690
911.604	15793
911.718	15759
911.833	15564
911.947	15515
912.062	15408
912.176	15618
912.291	15576
912.405	15641
912.519	15724
912.633	15705
912.748	15648
912.862	15648
912.976	15462
913.09	15389
913.204	15321
913.318	15340
913.431	15435
913.545	15492
913.659	15580
913.772	15473
913.886	15199
914	15241
914.113	15237
914.226	15351
914.34	15313
914.453	15127
914.566	15226
914.68	15089
914.793	15036
914.906	14929
915.019	14857
915.132	14811
915.245	14754
915.358	14868
915.47	14701
915.583	14906
915.696	14902
915.809	14967
915.921	14963
916.034	14785
916.146	14750
916.259	14678
916.371	14796
916.483	14773
916.595	14617
916.708	14712
916.82	14670
916.932	14678
917.044	14602
917.156	14560
917.268	14461
917.38	14552
917.491	14408
917.603	14434
917.715	14621
917.826	14670
917.938	14545
918.049	14320
918.161	14404
918.272	14579
918.384	14640
918.495	14469
918.606	14313
918.717	14172
918.828	14317
918.939	14305
919.05	14153
919.161	14252
919.272	14035
919.383	14096
919.494	14282
919.604	14469
919.715	14237
919.826	14191
919.936	14210
920.047	14229
920.157	14248
920.267	14457
920.378	14278
920.488	14233
920.598	14396
920.708	14533
920.818	14339
920.928	14412
921.038	14503
921.148	14438
921.258	14157
921.368	14005
921.477	14088
921.587	13978
921.697	13795
921.806	14035
921.916	13852
922.025	13731
922.134	13609
922.244	13525
922.353	13784
922.462	13529
922.571	13419
922.68	13266
922.789	13240
922.898	13354
923.007	13190
923.116	13266
923.224	13206
923.333	13206
923.442	13187
923.55	13110
923.659	13103
923.767	13198
923.876	13122
923.984	13141
924.092	13057
924.201	13072
924.309	12985
924.417	13012
924.525	12970
924.633	12951
924.741	13689
924.849	12711
924.956	12856
925.064	12878
925.172	12665
925.279	12650
925.387	12677
925.494	12700
925.602	12825
925.709	12696
925.816	12582
925.924	12673
926.031	12806
926.138	12692
926.245	12753
926.352	12589
926.459	12658
926.566	12719
926.673	12559
926.779	12486
926.886	12399
926.993	12369
927.099	12266
927.206	12308
927.312	12186
927.419	12296
927.525	12209
927.631	12235
927.737	12209
927.843	12148
927.95	12049
928.056	12087
928.162	12175
928.267	12190
928.373	12627
928.479	12186
928.585	12007
928.69	12038
928.796	12106
928.901	12022
929.007	11817
929.112	11965
929.218	11965
929.323	11840
929.428	11878
929.533	11847
929.638	11737
929.743	11809
929.848	11870
929.953	11767
930.058	11688
930.163	11543
930.267	11505
930.372	11714
930.477	11478
930.581	11680
930.685	11532
930.79	11490
930.894	11452
930.998	11353
931.103	11535
931.207	11162
931.311	11083
931.415	11003
931.519	10809
931.623	10824
