Data from test_V78500241_503.txt Node
Date: Fri Mar 25 15:13:21 CST 2022
User: usil
Spectrometer: V785-0024
Trigger mode: 0
Integration Time (sec): 4.000000E-1
Scans to average: 1
Nonlinearity correction enabled: false
Boxcar width: 0
Storing dark spectrum: false
XAxis mode: Wavelengths
Number of Pixels in Spectrum: 1024
>>>>>Begin Spectral Data<<<<<
801.071	27545
801.214	27336
801.356	27310
801.499	27161
801.641	27230
801.783	27119
801.926	27226
802.068	27013
802.211	27058
802.353	26979
802.496	26834
802.638	26727
802.78	26667
802.923	26511
803.065	26727
803.208	26743
803.35	26754
803.492	26940
803.635	26895
803.777	26861
803.919	26769
804.061	27256
804.204	26963
804.346	26921
804.488	26743
804.63	26819
804.773	26750
804.915	26868
805.057	26960
805.199	26952
805.341	27028
805.483	27055
805.626	26944
805.768	26925
805.91	26880
806.052	27013
806.194	26899
806.336	27055
806.478	27070
806.62	27062
806.762	27123
806.904	27214
807.046	27545
807.188	27336
807.33	27481
807.472	27374
807.614	27340
807.756	27367
807.898	27176
808.04	27272
808.182	27214
808.324	27135
808.465	27241
808.607	27515
808.749	27523
808.891	27732
809.033	27743
809.174	27679
809.316	27698
809.458	27583
809.6	27564
809.741	27679
809.883	27705
810.025	27926
810.166	27968
810.308	27884
810.45	27808
810.591	27850
810.733	27679
810.875	27625
811.016	27523
811.158	27485
811.299	27804
811.441	27869
811.582	27770
811.724	27606
811.865	27622
812.007	27481
812.148	27534
812.29	27618
812.431	27873
812.573	27983
812.714	28021
812.855	28143
812.997	28234
813.138	28352
813.279	28265
813.421	28078
813.562	28268
813.703	28090
813.845	27861
813.986	27675
814.127	27424
814.268	27412
814.41	27180
814.551	27222
814.692	27302
814.833	27176
814.974	27214
815.115	27268
815.256	27218
815.397	27154
815.539	27138
815.68	27157
815.821	26937
815.962	27184
816.103	27180
816.244	26940
816.385	26830
816.526	26918
816.666	26727
816.807	26571
816.948	26689
817.089	26758
817.23	26644
817.371	26598
817.512	26682
817.653	26609
817.793	26564
817.934	26560
818.075	26613
818.216	26598
818.356	26526
818.497	26560
818.638	26278
818.778	26328
818.919	26415
819.06	26347
819.2	26431
819.341	26514
819.481	26552
819.622	26655
819.762	26967
819.903	26872
820.043	26697
820.184	26708
820.324	26731
820.465	26765
820.605	26864
820.746	26689
820.886	26537
821.026	26651
821.167	26659
821.307	26781
821.447	26533
821.588	26480
821.728	26370
821.868	26263
822.008	26126
822.149	26031
822.289	25997
822.429	25833
822.569	25761
822.709	25734
822.849	25472
822.99	25540
823.13	25533
823.27	25460
823.41	25411
823.55	25171
823.69	25343
823.83	25324
823.97	25228
824.11	25129
824.25	25034
824.389	25145
824.529	25209
824.669	25126
824.809	25282
824.949	25289
825.089	25377
825.228	25228
825.368	25110
825.508	25065
825.648	25008
825.787	25091
825.927	24985
826.067	24890
826.206	25053
826.346	25012
826.485	25072
826.625	24947
826.765	25171
826.904	25198
827.044	24711
827.183	24707
827.323	24753
827.462	24783
827.601	24726
827.741	24730
827.88	24798
828.02	24620
828.159	24757
828.298	24688
828.437	24920
828.577	24688
828.716	24905
828.855	24658
828.994	24635
829.134	24486
829.273	24475
829.412	24410
829.551	24445
829.69	24509
829.829	24403
829.968	24460
830.107	24547
830.246	24563
830.385	24441
830.524	24418
830.663	24376
830.802	24216
830.941	24114
831.08	23984
831.219	24243
831.357	24254
831.496	24357
831.635	24186
831.774	24022
831.913	24068
832.051	23912
832.19	23923
832.329	23802
832.467	23794
832.606	23764
832.744	23733
832.883	23779
833.022	23608
833.16	23847
833.299	23802
833.437	23824
833.576	23851
833.714	23771
833.852	23790
833.991	23946
834.129	23942
834.267	23939
834.406	23859
834.544	23851
834.682	23813
834.821	23904
834.959	23999
835.097	23904
835.235	23859
835.373	23821
835.511	23737
835.65	23722
835.788	23611
835.926	23649
836.064	23376
836.202	23501
836.34	23809
836.478	23703
836.615	23741
836.753	23646
836.891	23661
837.029	23752
837.167	23695
837.305	23604
837.443	23653
837.58	23524
837.718	23581
837.856	23547
837.993	23531
838.131	23615
838.269	23379
838.406	23505
838.544	23356
838.681	23159
838.819	23132
838.956	22847
839.094	22991
839.231	23056
839.369	23174
839.506	23410
839.643	23242
839.781	23067
839.918	22965
840.055	23124
840.193	23006
840.33	22942
840.467	23029
840.604	22892
840.742	23162
840.879	22957
841.016	22816
841.153	22839
841.29	22930
841.427	22953
841.564	22984
841.701	22908
841.838	22961
841.975	22831
842.112	22805
842.249	22835
842.385	22664
842.522	22930
842.659	22706
842.796	22664
842.933	22786
843.069	22634
843.206	22740
843.343	22710
843.479	22649
843.616	22748
843.752	22618
843.889	22504
844.025	22489
844.162	22363
844.298	22634
844.435	22436
844.571	22516
844.708	22386
844.844	22573
844.98	22565
845.117	22500
845.253	22546
845.389	22428
845.525	22459
845.661	22280
845.798	22226
845.934	22246
846.07	22230
846.206	22215
846.342	22409
846.478	22196
846.614	22013
846.75	21926
846.886	21983
847.022	22025
847.158	21865
847.294	21911
847.429	22116
847.565	21846
847.701	22154
847.837	21690
847.972	21603
848.108	21759
848.244	21781
848.379	21564
848.515	21519
848.65	21477
848.786	21515
848.921	21553
849.057	21545
849.192	21595
849.328	21462
849.463	21485
849.598	21458
849.734	21435
849.869	21389
850.004	21382
850.14	21222
850.275	21431
850.41	21093
850.545	21199
850.68	21173
850.815	21260
850.95	21317
851.085	21564
851.22	21511
851.355	21169
851.49	21241
851.625	21218
851.76	21325
851.895	21161
852.03	21176
852.165	21169
852.299	21332
852.434	21294
852.569	21302
852.703	21363
852.838	21310
852.973	21408
853.107	21351
853.242	21260
853.376	21135
853.511	20925
853.645	21123
853.78	21173
853.914	21112
854.048	21009
854.183	21024
854.317	21119
854.451	21329
854.585	21009
854.72	21093
854.854	21230
854.988	21138
855.122	21154
855.256	20883
855.39	21085
855.524	21165
855.658	21233
855.792	21058
855.926	21119
856.06	21165
856.194	21211
856.327	21051
856.461	21020
856.595	21005
856.729	21104
856.862	21237
856.996	21077
857.13	21066
857.263	21192
857.397	21237
857.53	21157
857.664	21211
857.797	21184
857.931	21260
858.064	21199
858.197	21252
858.331	21070
858.464	21055
858.597	21013
858.731	21188
858.864	21028
858.997	21142
859.13	21020
859.263	21119
859.396	21222
859.529	21207
859.662	21093
859.795	21077
859.928	21169
860.061	21313
860.194	21302
860.327	21214
860.46	21169
860.592	21195
860.725	21203
860.858	21195
860.99	21211
861.123	21036
861.256	21062
861.388	21131
861.521	21873
861.653	20948
861.786	20758
861.918	21017
862.05	20975
862.183	21017
862.315	21104
862.447	21188
862.58	20967
862.712	20746
862.844	20826
862.976	20842
863.108	20960
863.24	21135
863.372	20830
863.504	20849
863.636	20895
863.768	20891
863.9	20769
864.032	20769
864.164	20705
864.296	20826
864.428	20994
864.559	20925
864.691	20963
864.823	20876
864.954	20941
865.086	20762
865.217	20861
865.349	20746
865.48	20716
865.612	20826
865.743	20838
865.875	20754
866.006	20834
866.137	20731
866.269	20568
866.4	20678
866.531	20579
866.662	20609
866.793	20511
866.924	20678
867.055	20526
867.186	20621
867.317	20552
867.448	20598
867.579	20583
867.71	20594
867.841	20568
867.972	20731
868.103	20629
868.233	20621
868.364	20693
868.495	20804
868.625	20994
868.756	20963
868.886	20883
869.017	20857
869.147	21070
869.278	21093
869.408	20979
869.539	20868
869.669	20937
869.799	20929
869.929	21036
870.06	21032
870.19	21226
870.32	21161
870.45	21195
870.58	21249
870.71	21329
870.84	21321
870.97	21344
871.1	21401
871.23	21458
871.36	21393
871.489	21332
871.619	21534
871.749	21492
871.879	21542
872.008	21641
872.138	21389
872.267	21496
872.397	21355
872.526	21351
872.656	21405
872.785	21370
872.915	21515
873.044	21610
873.173	21564
873.303	21538
873.432	21576
873.561	21660
873.69	21572
873.819	21599
873.948	21614
874.077	21583
874.206	21450
874.335	21405
874.464	21663
874.593	21739
874.722	21656
874.851	21713
874.979	21743
875.108	21846
875.237	21759
875.365	21614
875.494	21709
875.623	21895
875.751	21622
875.88	21759
876.008	21808
876.136	22044
876.265	22169
876.393	22246
876.521	22150
876.65	22135
876.778	22036
876.906	22044
877.034	22070
877.162	22200
877.29	22067
877.418	22185
877.546	22147
877.674	22173
877.802	22112
877.93	22173
878.058	22067
878.185	22021
878.313	22082
878.441	22150
878.568	21979
878.696	21888
878.824	22093
878.951	22173
879.079	22242
879.206	22352
879.333	22287
879.461	22158
879.588	22257
879.715	22253
879.842	22443
879.97	22204
880.097	21884
880.224	21941
880.351	21819
880.478	21888
880.605	21926
880.732	21915
880.859	22105
880.986	21979
881.112	21922
881.239	21770
881.366	21644
881.493	21534
881.619	21698
881.746	21599
881.872	21447
881.999	21496
882.125	21469
882.252	21595
882.378	21386
882.505	21511
882.631	21363
882.757	21211
882.883	21310
883.01	21283
883.136	21085
883.262	21116
883.388	21085
883.514	21146
883.64	21298
883.766	21070
883.892	21017
884.018	21081
884.143	21119
884.269	21264
884.395	20975
884.52	20895
884.646	20773
884.772	20743
884.897	20705
885.023	20853
885.148	20819
885.274	20876
885.399	20925
885.524	20876
885.65	20887
885.775	20781
885.9	20914
886.025	20960
886.15	20819
886.275	20754
886.4	20670
886.525	20769
886.65	20807
886.775	20811
886.9	20910
887.025	20925
887.149	20861
887.274	20678
887.399	20636
887.523	20674
887.648	20564
887.773	20465
887.897	20670
888.021	20621
888.146	20530
888.27	20762
888.395	20705
888.519	20648
888.643	20636
888.767	20667
888.891	20503
889.015	20454
889.139	20522
889.263	20389
889.387	20484
889.511	20765
889.635	20473
889.759	20358
889.883	20320
890.006	20385
890.13	20514
890.254	20377
890.377	20423
890.501	20176
890.624	20111
890.748	20225
890.871	20024
890.995	19970
891.118	19906
891.241	20100
891.364	19986
891.488	20119
891.611	20008
891.734	20092
891.857	19989
891.98	19974
892.103	20050
892.226	19967
892.349	19967
892.471	19818
892.594	19928
892.717	19959
892.839	19837
892.962	19898
893.085	19986
893.207	19902
893.33	19757
893.452	19708
893.575	19906
893.697	19849
893.819	20092
893.941	19970
894.064	20046
894.186	19921
894.308	19750
894.43	19898
894.552	19993
894.674	19833
894.796	19780
894.918	19883
895.04	19841
895.161	20031
895.283	19936
895.405	19799
895.526	19830
895.648	19928
895.769	19887
895.891	19852
896.012	20005
896.134	19940
896.255	19864
896.376	19689
896.498	19909
896.619	20062
896.74	19883
896.861	19993
896.982	20176
897.103	20336
897.224	20062
897.345	20092
897.466	20103
897.587	20145
897.708	20263
897.828	20221
897.949	19986
898.07	20024
898.19	20088
898.311	20107
898.431	20107
898.552	20027
898.672	20157
898.792	20225
898.913	20103
899.033	20027
899.153	19909
899.273	19807
899.393	19799
899.513	19818
899.633	19830
899.753	19833
899.873	19811
899.993	19849
900.113	19780
900.232	19833
900.352	19814
900.472	19719
900.591	19518
900.711	19677
900.83	19552
900.95	19677
901.069	19769
901.189	19540
901.308	19259
901.427	19312
901.546	19339
901.665	19183
901.784	19282
901.904	19187
902.023	19099
902.141	18871
902.26	18890
902.379	18829
902.498	18703
902.617	18692
902.735	18726
902.854	18741
902.973	18536
903.091	18490
903.21	18479
903.328	18403
903.446	18327
903.565	18327
903.683	18247
903.801	18220
903.919	18209
904.038	18178
904.156	18019
904.274	18022
904.392	17923
904.51	17946
904.627	17958
904.745	18007
904.863	18030
904.981	17794
905.098	17767
905.216	17627
905.334	17691
905.451	17684
905.569	17680
905.686	17699
905.803	17585
905.921	17482
906.038	17566
906.155	17570
906.272	17467
906.389	17360
906.506	17242
906.623	17296
906.74	17197
906.857	17117
906.974	17128
907.091	17231
907.208	17372
907.324	17280
907.441	17231
907.557	16938
907.674	16980
907.79	16946
907.907	16919
908.023	16976
908.139	16881
908.256	16908
908.372	16831
908.488	16866
908.604	16755
908.72	16516
908.836	16622
908.952	16588
909.068	16637
909.184	16679
909.3	16691
909.415	16634
909.531	16622
909.647	16428
909.762	16352
909.878	16390
909.993	16318
910.108	16356
910.224	16333
910.339	16295
910.454	16246
910.57	16131
910.685	16177
910.8	16379
910.915	16287
911.03	16162
911.145	16074
911.259	15998
911.374	15937
911.489	15964
911.604	15778
911.718	15720
911.833	15781
911.947	15568
912.062	15545
912.176	15690
912.291	15743
912.405	15770
912.519	15941
912.633	15953
912.748	15789
912.862	15705
912.976	15603
913.09	15458
913.204	15515
913.318	15492
913.431	15584
913.545	15580
913.659	15580
913.772	15511
913.886	15363
914	15249
914.113	15416
914.226	15412
914.34	15363
914.453	15287
914.566	15268
914.68	15192
914.793	15154
914.906	15024
915.019	14986
915.132	14960
915.245	14872
915.358	15058
915.47	14956
915.583	15017
915.696	14994
915.809	15001
915.921	15085
916.034	14918
916.146	14762
916.259	14872
916.371	14910
916.483	14811
916.595	14773
916.708	14731
916.82	14731
916.932	14788
917.044	14712
917.156	14579
917.268	14583
917.38	14636
917.491	14674
917.603	14651
917.715	14693
917.826	14746
917.938	14454
918.049	14495
918.161	14564
918.272	14598
918.384	14686
918.495	14454
918.606	14377
918.717	14252
918.828	14396
918.939	14473
919.05	14305
919.161	14328
919.272	14237
919.383	14282
919.494	14317
919.604	14545
919.715	14412
919.826	14248
919.936	14286
920.047	14396
920.157	14332
920.267	14526
920.378	14393
920.488	14324
920.598	14473
920.708	14583
920.818	14442
920.928	14480
921.038	14602
921.148	14537
921.258	14278
921.368	14149
921.477	13989
921.587	14084
921.697	13894
921.806	14161
921.916	13970
922.025	13841
922.134	13681
922.244	13655
922.353	13723
922.462	13563
922.571	13552
922.68	13411
922.789	13426
922.898	13434
923.007	13255
923.116	13396
923.224	13381
923.333	13312
923.442	13217
923.55	13198
923.659	13149
923.767	13274
923.876	13190
923.984	13255
924.092	13072
924.201	13209
924.309	13099
924.417	13175
924.525	12989
924.633	13053
924.741	13791
924.849	12890
924.956	12985
925.064	12875
925.172	12772
925.279	12757
925.387	12802
925.494	12798
925.602	12970
925.709	12783
925.816	12741
925.924	12715
926.031	12825
926.138	12757
926.245	12726
926.352	12627
926.459	12863
926.566	12802
926.673	12620
926.779	12525
926.886	12528
926.993	12422
927.099	12380
927.206	12365
927.312	12327
927.419	12346
927.525	12308
927.631	12456
927.737	12201
927.843	12213
927.95	12155
928.056	12186
928.162	12194
928.267	12266
928.373	12795
928.479	12292
928.585	12038
928.69	12125
928.796	12209
928.901	12022
929.007	11885
929.112	12034
929.218	12026
929.323	11908
929.428	11999
929.533	12087
929.638	11821
929.743	11832
929.848	11988
929.953	11859
930.058	11802
930.163	11425
930.267	11608
930.372	11764
930.477	11516
930.581	11817
930.685	11657
930.79	11444
930.894	11528
930.998	11520
931.103	11570
931.207	11299
931.311	11083
931.415	11132
931.519	10866
931.623	10896
