Data from test_V78500241_3210.txt Node
Date: Fri Mar 25 15:32:12 CST 2022
User: usil
Spectrometer: V785-0024
Trigger mode: 0
Integration Time (sec): 4.000000E-1
Scans to average: 1
Nonlinearity correction enabled: false
Boxcar width: 0
Storing dark spectrum: false
XAxis mode: Wavelengths
Number of Pixels in Spectrum: 1024
>>>>>Begin Spectral Data<<<<<
801.071	27032
801.214	27066
801.356	26750
801.499	26804
801.641	26644
801.783	26617
801.926	26708
802.068	26564
802.211	26568
802.353	26492
802.496	26408
802.638	26400
802.78	26248
802.923	26229
803.065	26084
803.208	26206
803.35	26278
803.492	26453
803.635	26415
803.777	26233
803.919	26423
804.061	26743
804.204	26343
804.346	26396
804.488	26309
804.63	26225
804.773	26328
804.915	26248
805.057	26408
805.199	26343
805.341	26412
805.483	26461
805.626	26564
805.768	26343
805.91	26446
806.052	26545
806.194	26526
806.336	26678
806.478	26488
806.62	26526
806.762	26636
806.904	26731
807.046	26960
807.188	26864
807.33	26864
807.472	26864
807.614	26739
807.756	26853
807.898	26754
808.04	26533
808.182	26727
808.324	26571
808.465	26834
808.607	26940
808.749	27138
808.891	27245
809.033	27329
809.174	27104
809.316	27116
809.458	26986
809.6	26994
809.741	27245
809.883	27302
810.025	27325
810.166	27382
810.308	27367
810.45	27211
810.591	27252
810.733	27089
810.875	27081
811.016	27085
811.158	26868
811.299	27123
811.441	27294
811.582	27142
811.724	27195
811.865	27058
812.007	27157
812.148	27005
812.29	27195
812.431	27416
812.573	27302
812.714	27492
812.855	27580
812.997	27641
813.138	27838
813.279	27606
813.421	27534
813.562	27542
813.703	27351
813.845	27173
813.986	26925
814.127	26902
814.268	26750
814.41	26800
814.551	26693
814.692	26785
814.833	26571
814.974	26811
815.115	26724
815.256	26560
815.397	26568
815.539	26716
815.68	26495
815.821	26507
815.962	26617
816.103	26575
816.244	26275
816.385	26275
816.526	26039
816.666	26172
816.807	25909
816.948	26008
817.089	26259
817.23	26069
817.371	26142
817.512	25966
817.653	25883
817.793	26031
817.934	25822
818.075	26054
818.216	26024
818.356	25932
818.497	25913
818.638	25723
818.778	25742
818.919	25655
819.06	25841
819.2	25947
819.341	25959
819.481	26077
819.622	25997
819.762	26294
819.903	26168
820.043	26355
820.184	26176
820.324	26027
820.465	26259
820.605	26107
820.746	26138
820.886	26035
821.026	26058
821.167	25970
821.307	26073
821.447	26001
821.588	25772
821.728	25772
821.868	25537
822.008	25430
822.149	25384
822.289	25479
822.429	25152
822.569	25145
822.709	25069
822.849	24977
822.99	24878
823.13	24856
823.27	25019
823.41	24646
823.55	24734
823.69	24757
823.83	24814
823.97	24711
824.11	24593
824.25	24536
824.389	24635
824.529	24711
824.669	24654
824.809	24532
824.949	24669
825.089	24661
825.228	24585
825.368	24456
825.508	24479
825.648	24418
825.787	24395
825.927	24467
826.067	24498
826.206	24525
826.346	24551
826.485	24418
826.625	24464
826.765	24582
826.904	24441
827.044	24232
827.183	24262
827.323	24220
827.462	24315
827.601	24136
827.741	24007
827.88	24220
828.02	24095
828.159	24106
828.298	24197
828.437	24243
828.577	24136
828.716	24266
828.855	24106
828.994	23946
829.134	23939
829.273	23893
829.412	23904
829.551	23775
829.69	23847
829.829	23927
829.968	23935
830.107	23996
830.246	23855
830.385	23901
830.524	23843
830.663	23870
830.802	23653
830.941	23539
831.08	23524
831.219	23524
831.357	23558
831.496	23672
831.635	23372
831.774	23425
831.913	23178
832.051	23178
832.19	23292
832.329	23216
832.467	23121
832.606	23029
832.744	23170
832.883	23189
833.022	23109
833.16	23155
833.299	23147
833.437	23170
833.576	23242
833.714	23277
833.852	23204
833.991	23288
834.129	23318
834.267	23254
834.406	23227
834.544	23239
834.682	23231
834.821	23288
834.959	23311
835.097	23094
835.235	23261
835.373	23178
835.511	23315
835.65	23178
835.788	23052
835.926	22850
836.064	22873
836.202	22942
836.34	23132
836.478	23143
836.615	23094
836.753	23124
836.891	23143
837.029	23181
837.167	23044
837.305	22995
837.443	22900
837.58	22881
837.718	22938
837.856	22934
837.993	22854
838.131	22987
838.269	22839
838.406	22896
838.544	22744
838.681	22634
838.819	22516
838.956	22371
839.094	22542
839.231	22470
839.369	22607
839.506	22835
839.643	22656
839.781	22527
839.918	22413
840.055	22386
840.193	22363
840.33	22379
840.467	22371
840.604	22409
840.742	22634
840.879	22284
841.016	22352
841.153	22166
841.29	22356
841.427	22379
841.564	22386
841.701	22459
841.838	22276
841.975	22238
842.112	22158
842.249	22162
842.385	22211
842.522	22413
842.659	22207
842.796	22105
842.933	22086
843.069	22090
843.206	22055
843.343	22131
843.479	22093
843.616	22093
843.752	21797
843.889	21884
844.025	22070
844.162	21895
844.298	22010
844.435	21953
844.571	21941
844.708	21880
844.844	22029
844.98	22063
845.117	21945
845.253	21827
845.389	21774
845.525	21682
845.661	21682
845.798	21614
845.934	21610
846.07	21625
846.206	21606
846.342	21679
846.478	21705
846.614	21462
846.75	21340
846.886	21397
847.022	21401
847.158	21428
847.294	21374
847.429	21488
847.565	21458
847.701	21523
847.837	21066
847.972	20952
848.108	21230
848.244	21218
848.379	20998
848.515	20880
848.65	20906
848.786	20979
848.921	21047
849.057	21173
849.192	21028
849.328	21043
849.463	20933
849.598	20929
849.734	20941
849.869	20921
850.004	20716
850.14	20826
850.275	20693
850.41	20663
850.545	20743
850.68	20701
850.815	20739
850.95	20689
851.085	20906
851.22	20849
851.355	20834
851.49	20712
851.625	20746
851.76	20686
851.895	20587
852.03	20549
852.165	20792
852.299	20754
852.434	20750
852.569	20689
852.703	20617
852.838	20830
852.973	20819
853.107	20883
853.242	20621
853.376	20461
853.511	20298
853.645	20564
853.78	20686
853.914	20571
854.048	20575
854.183	20583
854.317	20560
854.451	20724
854.585	20613
854.72	20594
854.854	20697
854.988	20541
855.122	20636
855.256	20366
855.39	20454
855.524	20651
855.658	20659
855.792	20556
855.926	20461
856.06	20511
856.194	20629
856.327	20541
856.461	20438
856.595	20495
856.729	20427
856.862	20625
856.996	20583
857.13	20682
857.263	20606
857.397	20541
857.53	20648
857.664	20552
857.797	20648
857.931	20663
858.064	20552
858.197	20686
858.331	20522
858.464	20438
858.597	20446
858.731	20530
858.864	20511
858.997	20560
859.13	20659
859.263	20511
859.396	20697
859.529	20526
859.662	20366
859.795	20408
859.928	20469
860.061	20773
860.194	20640
860.327	20556
860.46	20617
860.592	20655
860.725	20682
860.858	20644
860.99	20606
861.123	20484
861.256	20423
861.388	20522
861.521	21108
861.653	20442
861.786	20271
861.918	20400
862.05	20507
862.183	20549
862.315	20454
862.447	20514
862.58	20457
862.712	20355
862.844	20362
862.976	20396
863.108	20370
863.24	20648
863.372	20229
863.504	20320
863.636	20145
863.768	20290
863.9	20199
864.032	20225
864.164	20248
864.296	20229
864.428	20336
864.559	20271
864.691	20298
864.823	20191
864.954	20229
865.086	20259
865.217	20081
865.349	20031
865.48	20081
865.612	20210
865.743	20301
865.875	20180
866.006	20016
866.137	20294
866.269	20149
866.4	20103
866.531	20221
866.662	20240
866.793	19978
866.924	20122
867.055	20210
867.186	20058
867.317	20107
867.448	20081
867.579	20145
867.71	20088
867.841	19967
867.972	20195
868.103	20084
868.233	20138
868.364	20107
868.495	20153
868.625	20278
868.756	20434
868.886	20229
869.017	20427
869.147	20434
869.278	20446
869.408	20381
869.539	20381
869.669	20530
869.799	20438
869.929	20484
870.06	20503
870.19	20648
870.32	20629
870.45	20663
870.58	20754
870.71	20872
870.84	20910
870.97	20701
871.1	20777
871.23	21036
871.36	21070
871.489	20853
871.619	20906
871.749	20861
871.879	20872
872.008	21108
872.138	21005
872.267	20918
872.397	20857
872.526	20724
872.656	20830
872.785	20853
872.915	20914
873.044	20971
873.173	20944
873.303	21028
873.432	21051
873.561	20979
873.69	20979
873.819	21077
873.948	21043
874.077	21123
874.206	20941
874.335	21032
874.464	21055
874.593	21237
874.722	21150
874.851	21298
874.979	21119
875.108	21405
875.237	21256
875.365	21123
875.494	21272
875.623	21351
875.751	21108
875.88	21287
876.008	21386
876.136	21370
876.265	21713
876.393	21728
876.521	21652
876.65	21736
876.778	21705
876.906	21583
877.034	21530
877.162	21686
877.29	21580
877.418	21606
877.546	21648
877.674	21526
877.802	21557
877.93	21618
878.058	21553
878.185	21500
878.313	21530
878.441	21526
878.568	21431
878.696	21549
878.824	21595
878.951	21667
879.079	21728
879.206	21911
879.333	21876
879.461	21507
879.588	21637
879.715	21739
879.842	21907
879.97	21667
880.097	21397
880.224	21367
880.351	21447
880.478	21382
880.605	21428
880.732	21408
880.859	21717
880.986	21450
881.112	21481
881.239	21291
881.366	21176
881.493	20998
881.619	21081
881.746	21096
881.872	20906
881.999	20929
882.125	20944
882.252	20967
882.378	20891
882.505	21085
882.631	20883
882.757	20815
882.883	20838
883.01	20708
883.136	20644
883.262	20667
883.388	20590
883.514	20788
883.64	20651
883.766	20693
883.892	20469
884.018	20431
884.143	20712
884.269	20670
884.395	20480
884.52	20355
884.646	20332
884.772	20370
884.897	20294
885.023	20355
885.148	20461
885.274	20537
885.399	20419
885.524	20267
885.65	20358
885.775	20400
885.9	20347
886.025	20526
886.15	20332
886.275	20396
886.4	20199
886.525	20309
886.65	20206
886.775	20237
886.9	20545
887.025	20564
887.149	20324
887.274	20168
887.399	20039
887.523	20046
887.648	20020
887.773	20001
887.897	20153
888.021	20225
888.146	20058
888.27	20301
888.395	20282
888.519	20278
888.643	20362
888.767	20172
888.891	20084
889.015	19928
889.139	19989
889.263	19989
889.387	20031
889.511	20084
889.635	20001
889.759	19928
889.883	19902
890.006	20050
890.13	19989
890.254	19902
890.377	19795
890.501	19742
890.624	19544
890.748	19693
890.871	19559
890.995	19575
891.118	19514
891.241	19582
891.364	19510
891.488	19632
891.611	19556
891.734	19521
891.857	19586
891.98	19590
892.103	19552
892.226	19491
892.349	19430
892.471	19422
892.594	19464
892.717	19460
892.839	19495
892.962	19502
893.085	19495
893.207	19457
893.33	19381
893.452	19381
893.575	19403
893.697	19327
893.819	19495
893.941	19685
894.064	19643
894.186	19365
894.308	19422
894.43	19510
894.552	19620
894.674	19548
894.796	19487
894.918	19468
895.04	19339
895.161	19377
895.283	19495
895.405	19480
895.526	19464
895.648	19396
895.769	19457
895.891	19426
896.012	19632
896.134	19392
896.255	19491
896.376	19388
896.498	19468
896.619	19441
896.74	19396
896.861	19609
896.982	19795
897.103	19921
897.224	19605
897.345	19647
897.466	19567
897.587	19715
897.708	19906
897.828	19681
897.949	19670
898.07	19506
898.19	19597
898.311	19772
898.431	19784
898.552	19753
898.672	19719
898.792	19677
898.913	19761
899.033	19594
899.153	19483
899.273	19407
899.393	19449
899.513	19373
899.633	19339
899.753	19575
899.873	19377
899.993	19540
900.113	19350
900.232	19388
900.352	19400
900.472	19244
900.591	19141
900.711	19095
900.83	19194
900.95	19247
901.069	19232
901.189	19069
901.308	18886
901.427	18886
901.546	18817
901.665	18817
901.784	18913
901.904	18730
902.023	18407
902.141	18429
902.26	18376
902.379	18582
902.498	18391
902.617	18342
902.735	18418
902.854	18372
902.973	18235
903.091	18019
903.21	18091
903.328	18026
903.446	17802
903.565	17855
903.683	17813
903.801	17786
903.919	17809
904.038	17703
904.156	17589
904.274	17695
904.392	17684
904.51	17634
904.627	17623
904.745	17676
904.863	17592
904.981	17433
905.098	17246
905.216	17322
905.334	17383
905.451	17330
905.569	17227
905.686	17239
905.803	17311
905.921	17048
906.038	17151
906.155	17136
906.272	16953
906.389	17018
906.506	16847
906.623	16809
906.74	16721
906.857	16691
906.974	16691
907.091	16915
907.208	16854
907.324	16908
907.441	16733
907.557	16645
907.674	16485
907.79	16455
907.907	16546
908.023	16630
908.139	16535
908.256	16538
908.372	16462
908.488	16390
908.604	16261
908.72	16192
908.836	16246
908.952	16192
909.068	16341
909.184	16367
909.3	16268
909.415	16284
909.531	16295
909.647	15991
909.762	15987
909.878	16021
909.993	16013
910.108	15983
910.224	15922
910.339	15972
910.454	15835
910.57	15827
910.685	15709
910.8	15979
910.915	15892
911.03	15808
911.145	15644
911.259	15507
911.374	15637
911.489	15526
911.604	15481
911.718	15268
911.833	15325
911.947	15256
912.062	15161
912.176	15321
912.291	15237
912.405	15405
912.519	15534
912.633	15534
912.748	15332
912.862	15336
912.976	15218
913.09	15119
913.204	15081
913.318	15089
913.431	15146
913.545	15275
913.659	15249
913.772	15077
913.886	15017
914	14948
914.113	15104
914.226	15123
914.34	14941
914.453	14944
914.566	14948
914.68	14826
914.793	14819
914.906	14716
915.019	14541
915.132	14560
915.245	14613
915.358	14590
915.47	14564
915.583	14526
915.696	14686
915.809	14629
915.921	14648
916.034	14473
916.146	14495
916.259	14450
916.371	14560
916.483	14507
916.595	14343
916.708	14419
916.82	14412
916.932	14347
917.044	14415
917.156	14427
917.268	14206
917.38	14199
917.491	14233
917.603	14237
917.715	14320
917.826	14355
917.938	14100
918.049	14134
918.161	14130
918.272	14431
918.384	14328
918.495	14206
918.606	13982
918.717	13944
918.828	14046
918.939	14043
919.05	13875
919.161	13989
919.272	13799
919.383	13906
919.494	13967
919.604	14252
919.715	14073
919.826	13917
919.936	13978
920.047	14123
920.157	14020
920.267	14199
920.378	14031
920.488	13928
920.598	14206
920.708	14347
920.818	14187
920.928	14073
921.038	14309
921.148	14206
921.258	13967
921.368	13921
921.477	13738
921.587	13719
921.697	13666
921.806	13734
921.916	13685
922.025	13415
922.134	13362
922.244	13403
922.353	13403
922.462	13388
922.571	13255
922.68	13061
922.789	13061
922.898	13080
923.007	13004
923.116	13103
923.224	12935
923.333	12966
923.442	12913
923.55	12871
923.659	12958
923.767	12920
923.876	12890
923.984	12894
924.092	12848
924.201	12757
924.309	12802
924.417	12745
924.525	12749
924.633	12772
924.741	13670
924.849	12452
924.956	12627
925.064	12414
925.172	12433
925.279	12410
925.387	12574
925.494	12502
925.602	12620
925.709	12547
925.816	12357
925.924	12483
926.031	12475
926.138	12513
926.245	12395
926.352	12285
926.459	12498
926.566	12494
926.673	12365
926.779	12232
926.886	12220
926.993	12163
927.099	12026
927.206	12041
927.312	12076
927.419	12144
927.525	12041
927.631	12079
927.737	12003
927.843	11904
927.95	11737
928.056	11874
928.162	11889
928.267	11927
928.373	12585
928.479	12011
928.585	11748
928.69	11809
928.796	11923
928.901	11817
929.007	11627
929.112	11737
929.218	11745
929.323	11684
929.428	11615
929.533	11813
929.638	11573
929.743	11589
929.848	11573
929.953	11547
930.058	11376
930.163	11345
930.267	11372
930.372	11551
930.477	11315
930.581	11535
930.685	11376
930.79	11227
930.894	11273
930.998	11189
931.103	11239
931.207	10957
931.311	10946
931.415	10866
931.519	10630
931.623	10607
