Data from test_V78500241_62.txt Node
Date: Fri Mar 25 15:10:17 CST 2022
User: usil
Spectrometer: V785-0024
Trigger mode: 0
Integration Time (sec): 4.000000E-1
Scans to average: 1
Nonlinearity correction enabled: false
Boxcar width: 0
Storing dark spectrum: false
XAxis mode: Wavelengths
Number of Pixels in Spectrum: 1024
>>>>>Begin Spectral Data<<<<<
801.071	28771
801.214	28542
801.356	28337
801.499	28337
801.641	28238
801.783	28135
801.926	28200
802.068	28230
802.211	28090
802.353	28025
802.496	27907
802.638	27857
802.78	27846
802.923	27762
803.065	27736
803.208	27812
803.35	27724
803.492	27793
803.635	28002
803.777	27918
803.919	27842
804.061	28169
804.204	27934
804.346	27762
804.488	27778
804.63	27876
804.773	27701
804.915	27778
805.057	27846
805.199	27781
805.341	27857
805.483	27991
805.626	27876
805.768	27713
805.91	27819
806.052	28036
806.194	27846
806.336	28097
806.478	28002
806.62	27945
806.762	28090
806.904	28272
807.046	28352
807.188	28344
807.33	28291
807.472	28325
807.614	28322
807.756	28295
807.898	28101
808.04	28082
808.182	28090
808.324	28162
808.465	28150
808.607	28428
808.749	28417
808.891	28489
809.033	28626
809.174	28489
809.316	28401
809.458	28436
809.6	28295
809.741	28538
809.883	28459
810.025	28596
810.166	28767
810.308	28828
810.45	28664
810.591	28538
810.733	28413
810.875	28322
811.016	28261
811.158	28188
811.299	28356
811.441	28565
811.582	28451
811.724	28504
811.865	28325
812.007	28523
812.148	28382
812.29	28360
812.431	28440
812.573	28744
812.714	28656
812.855	28828
812.997	28957
813.138	28965
813.279	28976
813.421	28911
813.562	28831
813.703	28744
813.845	28470
813.986	28219
814.127	28063
814.268	28105
814.41	27983
814.551	27987
814.692	27998
814.833	27953
814.974	27835
815.115	28090
815.256	27854
815.397	27816
815.539	27762
815.68	27736
815.821	27633
815.962	27747
816.103	27633
816.244	27538
816.385	27530
816.526	27519
816.666	27218
816.807	27051
816.948	27192
817.089	27096
817.23	27367
817.371	27070
817.512	27233
817.653	26994
817.793	27066
817.934	27074
818.075	27074
818.216	27077
818.356	27024
818.497	26906
818.638	26781
818.778	26739
818.919	26868
819.06	27017
819.2	26887
819.341	27047
819.481	26925
819.622	27093
819.762	27226
819.903	27268
820.043	27180
820.184	27135
820.324	26998
820.465	27180
820.605	27074
820.746	27066
820.886	26960
821.026	27051
821.167	27043
821.307	27036
821.447	26975
821.588	26804
821.728	26781
821.868	26667
822.008	26370
822.149	26480
822.289	26385
822.429	26161
822.569	26145
822.709	26027
822.849	26020
822.99	25944
823.13	25887
823.27	25879
823.41	25799
823.55	25674
823.69	25666
823.83	25639
823.97	25795
824.11	25381
824.25	25464
824.389	25464
824.529	25502
824.669	25578
824.809	25643
824.949	25696
825.089	25506
825.228	25426
825.368	25369
825.508	25225
825.648	25274
825.787	25282
825.927	25304
826.067	25209
826.206	25099
826.346	25251
826.485	25346
826.625	25270
826.765	25190
826.904	25194
827.044	25076
827.183	25019
827.323	24833
827.462	24973
827.601	24840
827.741	24966
827.88	24852
828.02	24738
828.159	24871
828.298	24943
828.437	24840
828.577	24802
828.716	24901
828.855	24856
828.994	24635
829.134	24821
829.273	24745
829.412	24669
829.551	24604
829.69	24433
829.829	24646
829.968	24627
830.107	24566
830.246	24604
830.385	24414
830.524	24467
830.663	24483
830.802	24323
830.941	24201
831.08	24087
831.219	24334
831.357	24220
831.496	24285
831.635	24015
831.774	23965
831.913	24072
832.051	23912
832.19	23988
832.329	23950
832.467	23878
832.606	23722
832.744	23676
832.883	23878
833.022	23638
833.16	23764
833.299	23794
833.437	23824
833.576	23847
833.714	23771
833.852	23741
833.991	23927
834.129	23923
834.267	23840
834.406	23783
834.544	23695
834.682	23809
834.821	23863
834.959	23741
835.097	23737
835.235	23798
835.373	23680
835.511	23554
835.65	23596
835.788	23665
835.926	23474
836.064	23341
836.202	23433
836.34	23554
836.478	23638
836.615	23608
836.753	23501
836.891	23596
837.029	23680
837.167	23570
837.305	23573
837.443	23376
837.58	23448
837.718	23482
837.856	23497
837.993	23429
838.131	23433
838.269	23303
838.406	23372
838.544	23220
838.681	23109
838.819	23124
838.956	22889
839.094	22850
839.231	23014
839.369	22991
839.506	23391
839.643	23113
839.781	22831
839.918	22679
840.055	22828
840.193	22869
840.33	22675
840.467	22740
840.604	22729
840.742	22984
840.879	22569
841.016	22717
841.153	22481
841.29	22831
841.427	22679
841.564	22649
841.701	22778
841.838	22618
841.975	22512
842.112	22615
842.249	22516
842.385	22360
842.522	22588
842.659	22409
842.796	22481
842.933	22421
843.069	22348
843.206	22386
843.343	22500
843.479	22287
843.616	22485
843.752	22207
843.889	22150
844.025	22246
844.162	22131
844.298	22215
844.435	22116
844.571	22124
844.708	22211
844.844	22344
844.98	22371
845.117	22257
845.253	22147
845.389	22032
845.525	22040
845.661	22006
845.798	21975
845.934	21926
846.07	21846
846.206	21994
846.342	22051
846.478	21823
846.614	21637
846.75	21667
846.886	21766
847.022	21667
847.158	21583
847.294	21511
847.429	21561
847.565	21519
847.701	21816
847.837	21313
847.972	21336
848.108	21359
848.244	21462
848.379	21260
848.515	21081
848.65	21230
848.786	21161
848.921	21135
849.057	21233
849.192	21214
849.328	21249
849.463	21142
849.598	21138
849.734	21085
849.869	21085
850.004	20956
850.14	20929
850.275	21009
850.41	20788
850.545	20701
850.68	20849
850.815	20842
850.95	20773
851.085	21058
851.22	21150
851.355	20899
851.49	20804
851.625	20796
851.76	20876
851.895	20640
852.03	20796
852.165	20765
852.299	20811
852.434	20823
852.569	20914
852.703	20765
852.838	20842
852.973	21020
853.107	20895
853.242	20864
853.376	20689
853.511	20621
853.645	20636
853.78	20781
853.914	20708
854.048	20651
854.183	20587
854.317	20674
854.451	20868
854.585	20693
854.72	20705
854.854	20788
854.988	20587
855.122	20659
855.256	20575
855.39	20606
855.524	20735
855.658	20716
855.792	20632
855.926	20773
856.06	20590
856.194	20750
856.327	20609
856.461	20564
856.595	20724
856.729	20571
856.862	20667
856.996	20587
857.13	20800
857.263	20708
857.397	20670
857.53	20754
857.664	20678
857.797	20602
857.931	20807
858.064	20636
858.197	20598
858.331	20602
858.464	20598
858.597	20549
858.731	20667
858.864	20575
858.997	20568
859.13	20571
859.263	20617
859.396	20625
859.529	20545
859.662	20609
859.795	20526
859.928	20545
860.061	20727
860.194	20777
860.327	20556
860.46	20625
860.592	20659
860.725	20686
860.858	20617
860.99	20564
861.123	20446
861.256	20427
861.388	20495
861.521	21173
861.653	20522
861.786	20336
861.918	20419
862.05	20568
862.183	20556
862.315	20712
862.447	20659
862.58	20450
862.712	20415
862.844	20263
862.976	20427
863.108	20374
863.24	20670
863.372	20214
863.504	20298
863.636	20221
863.768	20324
863.9	20176
864.032	20164
864.164	20248
864.296	20298
864.428	20385
864.559	20199
864.691	20389
864.823	20389
864.954	20210
865.086	20145
865.217	20195
865.349	20168
865.48	20107
865.612	20206
865.743	20412
865.875	20164
866.006	20233
866.137	20195
866.269	20138
866.4	20161
866.531	20214
866.662	20065
866.793	20096
866.924	20020
867.055	20122
867.186	20134
867.317	20031
867.448	19986
867.579	20012
867.71	20039
867.841	20012
867.972	20039
868.103	20043
868.233	20073
868.364	20069
868.495	20187
868.625	20328
868.756	20423
868.886	20202
869.017	20370
869.147	20393
869.278	20385
869.408	20347
869.539	20381
869.669	20431
869.799	20313
869.929	20526
870.06	20377
870.19	20621
870.32	20655
870.45	20590
870.58	20670
870.71	20979
870.84	20807
870.97	20727
871.1	20716
871.23	20918
871.36	20910
871.489	20716
871.619	20845
871.749	20834
871.879	20990
872.008	21032
872.138	20960
872.267	20838
872.397	20777
872.526	20609
872.656	20788
872.785	20788
872.915	20948
873.044	20944
873.173	20872
873.303	21036
873.432	20990
873.561	21043
873.69	20994
873.819	20921
873.948	20975
874.077	20842
874.206	20868
874.335	20819
874.464	21123
874.593	21199
874.722	21135
874.851	21207
874.979	21211
875.108	21211
875.237	21112
875.365	21116
875.494	21112
875.623	21214
875.751	21157
875.88	21203
876.008	21207
876.136	21374
876.265	21534
876.393	21751
876.521	21637
876.65	21709
876.778	21549
876.906	21587
877.034	21576
877.162	21614
877.29	21351
877.418	21504
877.546	21519
877.674	21450
877.802	21530
877.93	21549
878.058	21435
878.185	21386
878.313	21545
878.441	21492
878.568	21431
878.696	21416
878.824	21538
878.951	21606
879.079	21641
879.206	21717
879.333	21629
879.461	21530
879.588	21595
879.715	21690
879.842	21968
879.97	21595
880.097	21447
880.224	21420
880.351	21332
880.478	21367
880.605	21306
880.732	21351
880.859	21587
880.986	21367
881.112	21428
881.239	21275
881.366	21116
881.493	21013
881.619	20960
881.746	20929
881.872	20933
881.999	20937
882.125	20811
882.252	21009
882.378	20971
882.505	21058
882.631	20956
882.757	20762
882.883	20826
883.01	20762
883.136	20689
883.262	20659
883.388	20507
883.514	20785
883.64	20792
883.766	20648
883.892	20530
884.018	20549
884.143	20640
884.269	20746
884.395	20488
884.52	20233
884.646	20423
884.772	20290
884.897	20195
885.023	20248
885.148	20446
885.274	20518
885.399	20412
885.524	20313
885.65	20358
885.775	20347
885.9	20301
886.025	20438
886.15	20404
886.275	20206
886.4	20164
886.525	20244
886.65	20244
886.775	20191
886.9	20343
887.025	20495
887.149	20221
887.274	20058
887.399	20050
887.523	20058
887.648	19951
887.773	19944
887.897	20214
888.021	19993
888.146	19898
888.27	20282
888.395	20069
888.519	20100
888.643	20145
888.767	20206
888.891	19982
889.015	19902
889.139	19989
889.263	19860
889.387	19993
889.511	20081
889.635	19925
889.759	19685
889.883	19856
890.006	19841
890.13	19928
890.254	19727
890.377	19761
890.501	19605
890.624	19487
890.748	19681
890.871	19540
890.995	19285
891.118	19464
891.241	19476
891.364	19369
891.488	19597
891.611	19381
891.734	19373
891.857	19476
891.98	19365
892.103	19426
892.226	19331
892.349	19346
892.471	19255
892.594	19358
892.717	19468
892.839	19415
892.962	19327
893.085	19396
893.207	19346
893.33	19304
893.452	19240
893.575	19247
893.697	19422
893.819	19449
893.941	19506
894.064	19434
894.186	19365
894.308	19266
894.43	19499
894.552	19635
894.674	19381
894.796	19297
894.918	19297
895.04	19388
895.161	19415
895.283	19400
895.405	19312
895.526	19377
895.648	19422
895.769	19327
895.891	19392
896.012	19422
896.134	19415
896.255	19400
896.376	19327
896.498	19453
896.619	19529
896.74	19491
896.861	19449
896.982	19788
897.103	19845
897.224	19651
897.345	19647
897.466	19518
897.587	19616
897.708	19723
897.828	19559
897.949	19445
898.07	19396
898.19	19696
898.311	19765
898.431	19430
898.552	19529
898.672	19613
898.792	19643
898.913	19616
899.033	19434
899.153	19438
899.273	19266
899.393	19293
899.513	19335
899.633	19350
899.753	19217
899.873	19270
899.993	19331
900.113	19148
900.232	19297
900.352	19232
900.472	19118
900.591	19103
900.711	19133
900.83	19015
900.95	19217
901.069	19225
901.189	19038
901.308	18772
901.427	18589
901.546	18661
901.665	18730
901.784	18741
901.904	18631
902.023	18513
902.141	18102
902.26	18315
902.379	18422
902.498	18350
902.617	18144
902.735	18289
902.854	18152
902.973	18247
903.091	17893
903.21	17798
903.328	17885
903.446	17733
903.565	17653
903.683	17779
903.801	17570
903.919	17687
904.038	17722
904.156	17383
904.274	17684
904.392	17330
904.51	17490
904.627	17532
904.745	17391
904.863	17532
904.981	17227
905.098	17128
905.216	17166
905.334	17170
905.451	17140
905.569	17067
905.686	17105
905.803	17220
905.921	16957
906.038	17033
906.155	16866
906.272	16957
906.389	16736
906.506	16702
906.623	16668
906.74	16641
906.857	16500
906.974	16584
907.091	16664
907.208	16816
907.324	16736
907.441	16577
907.557	16402
907.674	16432
907.79	16261
907.907	16276
908.023	16478
908.139	16428
908.256	16268
908.372	16196
908.488	16268
908.604	16150
908.72	15991
908.836	16093
908.952	16040
909.068	16063
909.184	16166
909.3	16059
909.415	16181
909.531	15968
909.647	15789
909.762	15736
909.878	15743
909.993	15797
910.108	15732
910.224	15622
910.339	15694
910.454	15599
910.57	15580
910.685	15580
910.8	15709
910.915	15660
911.03	15519
911.145	15306
911.259	15389
911.374	15344
911.489	15431
911.604	15275
911.718	15043
911.833	15184
911.947	14952
912.062	15020
912.176	15055
912.291	15013
912.405	15108
912.519	15310
912.633	15252
912.748	15154
912.862	14986
912.976	14941
913.09	14727
913.204	14906
913.318	15047
913.431	14998
913.545	14914
913.659	15043
913.772	14918
913.886	14712
914	14636
914.113	14758
914.226	14876
914.34	14781
914.453	14648
914.566	14781
914.68	14583
914.793	14640
914.906	14450
915.019	14362
915.132	14286
915.245	14419
915.358	14385
915.47	14256
915.583	14358
915.696	14480
915.809	14465
915.921	14492
916.034	14237
916.146	14267
916.259	14176
916.371	14233
916.483	14286
916.595	14301
916.708	14168
916.82	14210
916.932	14218
917.044	14225
917.156	14164
917.268	13906
917.38	14065
917.491	14039
917.603	14096
917.715	14149
917.826	14043
917.938	13982
918.049	13879
918.161	13978
918.272	14092
918.384	14180
918.495	13974
918.606	13799
918.717	13757
918.828	13788
918.939	13822
919.05	13719
919.161	13826
919.272	13521
919.383	13647
919.494	13765
919.604	13944
919.715	13856
919.826	13708
919.936	13753
920.047	13826
920.157	13708
920.267	13997
920.378	13662
920.488	13689
920.598	13925
920.708	14119
920.818	13849
920.928	13879
921.038	14077
921.148	13989
921.258	13609
921.368	13685
921.477	13518
921.587	13411
921.697	13365
921.806	13480
921.916	13293
922.025	13217
922.134	13164
922.244	13133
922.353	13206
922.462	12935
922.571	12958
922.68	12798
922.789	12711
922.898	12776
923.007	12623
923.116	12810
923.224	12726
923.333	12700
923.442	12677
923.55	12604
923.659	12616
923.767	12665
923.876	12536
923.984	12540
924.092	12460
924.201	12608
924.309	12532
924.417	12448
924.525	12532
924.633	12471
924.741	13278
924.849	12277
924.956	12365
925.064	12239
925.172	12163
925.279	12209
925.387	12213
925.494	12258
925.602	12311
925.709	12281
925.816	12110
925.924	12121
926.031	12327
926.138	12201
926.245	12289
926.352	12121
926.459	12194
926.566	12285
926.673	12095
926.779	12045
926.886	11950
926.993	11870
927.099	11824
927.206	11718
927.312	11756
927.419	11798
927.525	11775
927.631	11889
927.737	11775
927.843	11680
927.95	11528
928.056	11661
928.162	11710
928.267	11714
928.373	12319
928.479	11684
928.585	11482
928.69	11562
928.796	11688
928.901	11528
929.007	11360
929.112	11490
929.218	11471
929.323	11391
929.428	11459
929.533	11490
929.638	11341
929.743	11299
929.848	11433
929.953	11315
930.058	11181
930.163	11018
930.267	11124
930.372	11246
930.477	11083
930.581	11261
930.685	11151
930.79	10961
930.894	10946
930.998	10911
931.103	11052
931.207	10740
931.311	10588
931.415	10558
931.519	10405
931.623	10356
