Data from test_V78500241_2916.txt Node
Date: Fri Mar 25 15:30:09 CST 2022
User: usil
Spectrometer: V785-0024
Trigger mode: 0
Integration Time (sec): 4.000000E-1
Scans to average: 1
Nonlinearity correction enabled: false
Boxcar width: 0
Storing dark spectrum: false
XAxis mode: Wavelengths
Number of Pixels in Spectrum: 1024
>>>>>Begin Spectral Data<<<<<
801.071	27367
801.214	27241
801.356	27005
801.499	26914
801.641	26712
801.783	26785
801.926	26990
802.068	26842
802.211	26857
802.353	26876
802.496	26579
802.638	26507
802.78	26393
802.923	26385
803.065	26469
803.208	26313
803.35	26530
803.492	26545
803.635	26609
803.777	26484
803.919	26518
804.061	26853
804.204	26682
804.346	26621
804.488	26632
804.63	26583
804.773	26629
804.915	26579
805.057	26663
805.199	26511
805.341	26689
805.483	26750
805.626	26781
805.768	26693
805.91	26670
806.052	26727
806.194	26720
806.336	26758
806.478	26811
806.62	26731
806.762	26777
806.904	26994
807.046	27154
807.188	27230
807.33	27180
807.472	27096
807.614	27150
807.756	27161
807.898	26982
808.04	26971
808.182	27066
808.324	27036
808.465	27017
808.607	27062
808.749	27363
808.891	27443
809.033	27610
809.174	27462
809.316	27374
809.458	27325
809.6	27382
809.741	27401
809.883	27408
810.025	27720
810.166	27660
810.308	27564
810.45	27526
810.591	27534
810.733	27477
810.875	27477
811.016	27192
811.158	27302
811.299	27294
811.441	27408
811.582	27595
811.724	27443
811.865	27256
812.007	27348
812.148	27458
812.29	27344
812.431	27393
812.573	27690
812.714	27690
812.855	27705
812.997	27857
813.138	27937
813.279	27937
813.421	27865
813.562	27766
813.703	27637
813.845	27485
813.986	27237
814.127	27173
814.268	27146
814.41	26975
814.551	27043
814.692	27001
814.833	26815
814.974	26929
815.115	26994
815.256	26849
815.397	26880
815.539	26842
815.68	26731
815.821	26815
815.962	26864
816.103	26686
816.244	26590
816.385	26648
816.526	26511
816.666	26252
816.807	26157
816.948	26328
817.089	26507
817.23	26290
817.371	26248
817.512	26202
817.653	26122
817.793	26119
817.934	26336
818.075	26240
818.216	26252
818.356	26157
818.497	26191
818.638	26043
818.778	25917
818.919	26115
819.06	26062
819.2	26111
819.341	26263
819.481	26191
819.622	26533
819.762	26625
819.903	26446
820.043	26469
820.184	26358
820.324	26282
820.465	26412
820.605	26404
820.746	26385
820.886	26153
821.026	26309
821.167	26362
821.307	26461
821.447	26267
821.588	26054
821.728	26100
821.868	25879
822.008	25712
822.149	25883
822.289	25742
822.429	25384
822.569	25479
822.709	25521
822.849	25225
822.99	25259
823.13	25099
823.27	25107
823.41	25107
823.55	24878
823.69	25061
823.83	25031
823.97	24905
824.11	24730
824.25	24734
824.389	24825
824.529	24977
824.669	24798
824.809	25034
824.949	24867
825.089	24985
825.228	24951
825.368	24631
825.508	24787
825.648	24711
825.787	24700
825.927	24897
826.067	24753
826.206	24738
826.346	24878
826.485	24711
826.625	24745
826.765	24840
826.904	24642
827.044	24456
827.183	24380
827.323	24338
827.462	24414
827.601	24494
827.741	24388
827.88	24483
828.02	24262
828.159	24369
828.298	24388
828.437	24486
828.577	24388
828.716	24429
828.855	24319
828.994	24140
829.134	24125
829.273	24148
829.412	24148
829.551	24072
829.69	24144
829.829	24152
829.968	24235
830.107	24258
830.246	24163
830.385	24034
830.524	24030
830.663	23809
830.802	23901
830.941	23646
831.08	23630
831.219	23790
831.357	23779
831.496	24030
831.635	23699
831.774	23627
831.913	23558
832.051	23398
832.19	23539
832.329	23444
832.467	23436
832.606	23330
832.744	23349
832.883	23330
833.022	23254
833.16	23318
833.299	23265
833.437	23254
833.576	23341
833.714	23360
833.852	23516
833.991	23551
834.129	23528
834.267	23474
834.406	23379
834.544	23547
834.682	23543
834.821	23490
834.959	23718
835.097	23379
835.235	23356
835.373	23467
835.511	23398
835.65	23265
835.788	23273
835.926	23155
836.064	23094
836.202	23105
836.34	23372
836.478	23296
836.615	23185
836.753	23299
836.891	23204
837.029	23292
837.167	23231
837.305	23136
837.443	23124
837.58	23006
837.718	23128
837.856	23136
837.993	22987
838.131	23143
838.269	22961
838.406	22965
838.544	22934
838.681	22748
838.819	22622
838.956	22660
839.094	22596
839.231	22668
839.369	22721
839.506	22949
839.643	22873
839.781	22672
839.918	22569
840.055	22584
840.193	22500
840.33	22424
840.467	22440
840.604	22516
840.742	22835
840.879	22398
841.016	22459
841.153	22424
841.29	22535
841.427	22478
841.564	22523
841.701	22493
841.838	22455
841.975	22352
842.112	22352
842.249	22390
842.385	22344
842.522	22615
842.659	22356
842.796	22322
842.933	22367
843.069	22188
843.206	22261
843.343	22261
843.479	22196
843.616	22310
843.752	22109
843.889	22010
844.025	22109
844.162	21953
844.298	22105
844.435	21991
844.571	21911
844.708	22093
844.844	22109
844.98	22112
845.117	22036
845.253	22002
845.389	21987
845.525	21926
845.661	21854
845.798	21778
845.934	21892
846.07	21762
846.206	21751
846.342	21911
846.478	21682
846.614	21549
846.75	21454
846.886	21469
847.022	21690
847.158	21443
847.294	21450
847.429	21477
847.565	21458
847.701	21762
847.837	21222
847.972	21176
848.108	21340
848.244	21420
848.379	21157
848.515	21108
848.65	21043
848.786	21195
848.921	21195
849.057	21203
849.192	21100
849.328	21287
849.463	20944
849.598	20986
849.734	20891
849.869	20925
850.004	20910
850.14	20861
850.275	20895
850.41	20769
850.545	20838
850.68	20880
850.815	20823
850.95	20887
851.085	21024
851.22	21043
851.355	20914
851.49	20781
851.625	20834
851.76	20735
851.895	20800
852.03	20735
852.165	20925
852.299	20914
852.434	20979
852.569	20834
852.703	20994
852.838	20971
852.973	21058
853.107	20804
853.242	20906
853.376	20663
853.511	20530
853.645	20651
853.78	20807
853.914	20876
854.048	20731
854.183	20644
854.317	20712
854.451	20891
854.585	20648
854.72	20754
854.854	20735
854.988	20648
855.122	20651
855.256	20606
855.39	20667
855.524	20781
855.658	20773
855.792	20712
855.926	20781
856.06	20754
856.194	20819
856.327	20712
856.461	20651
856.595	20533
856.729	20575
856.862	20762
856.996	20674
857.13	20792
857.263	20785
857.397	20788
857.53	20693
857.664	20659
857.797	20724
857.931	20781
858.064	20746
858.197	20834
858.331	20644
858.464	20682
858.597	20533
858.731	20659
858.864	20621
858.997	20670
859.13	20674
859.263	20697
859.396	20701
859.529	20636
859.662	20743
859.795	20663
859.928	20670
860.061	20807
860.194	20864
860.327	20670
860.46	20769
860.592	20796
860.725	20921
860.858	20769
860.99	20682
861.123	20530
861.256	20579
861.388	20705
861.521	21260
861.653	20583
861.786	20404
861.918	20476
862.05	20583
862.183	20712
862.315	20598
862.447	20670
862.58	20640
862.712	20404
862.844	20438
862.976	20492
863.108	20476
863.24	20826
863.372	20347
863.504	20309
863.636	20309
863.768	20431
863.9	20393
864.032	20275
864.164	20332
864.296	20339
864.428	20488
864.559	20419
864.691	20324
864.823	20434
864.954	20374
865.086	20355
865.217	20393
865.349	20229
865.48	20347
865.612	20218
865.743	20419
865.875	20214
866.006	20233
866.137	20336
866.269	20259
866.4	20187
866.531	20225
866.662	20183
866.793	20237
866.924	20248
867.055	20301
867.186	20298
867.317	20252
867.448	20202
867.579	20180
867.71	20126
867.841	20248
867.972	20164
868.103	20206
868.233	20259
868.364	20126
868.495	20408
868.625	20492
868.756	20621
868.886	20298
869.017	20629
869.147	20606
869.278	20541
869.408	20381
869.539	20461
869.669	20537
869.799	20507
869.929	20606
870.06	20648
870.19	20804
870.32	20682
870.45	20727
870.58	20853
870.71	20990
870.84	20937
870.97	20861
871.1	20868
871.23	21028
871.36	21100
871.489	20956
871.619	21089
871.749	20857
871.879	21154
872.008	21180
872.138	21089
872.267	20994
872.397	20941
872.526	20724
872.656	20971
872.785	20906
872.915	21195
873.044	21211
873.173	21081
873.303	21161
873.432	21214
873.561	21207
873.69	21104
873.819	21112
873.948	21142
874.077	21161
874.206	21077
874.335	21055
874.464	21123
874.593	21275
874.722	21260
874.851	21397
874.979	21401
875.108	21332
875.237	21279
875.365	21096
875.494	21355
875.623	21393
875.751	21359
875.88	21412
876.008	21431
876.136	21576
876.265	21652
876.393	21956
876.521	21728
876.65	21861
876.778	21675
876.906	21682
877.034	21800
877.162	21724
877.29	21701
877.418	21739
877.546	21660
877.674	21652
877.802	21679
877.93	21838
878.058	21599
878.185	21507
878.313	21625
878.441	21675
878.568	21507
878.696	21629
878.824	21781
878.951	21675
879.079	21888
879.206	22070
879.333	21800
879.461	21736
879.588	21895
879.715	21903
879.842	22048
879.97	21804
880.097	21492
880.224	21496
880.351	21568
880.478	21557
880.605	21477
880.732	21473
880.859	21831
880.986	21485
881.112	21553
881.239	21454
881.366	21302
881.493	21272
881.619	21138
881.746	21096
881.872	21161
881.999	21108
882.125	20963
882.252	21096
882.378	21108
882.505	21104
882.631	20845
882.757	20899
882.883	20883
883.01	20861
883.136	20785
883.262	20701
883.388	20606
883.514	20693
883.64	20861
883.766	20815
883.892	20564
884.018	20716
884.143	20769
884.269	20838
884.395	20522
884.52	20488
884.646	20438
884.772	20431
884.897	20358
885.023	20533
885.148	20613
885.274	20598
885.399	20583
885.524	20450
885.65	20434
885.775	20434
885.9	20408
886.025	20564
886.15	20442
886.275	20488
886.4	20465
886.525	20358
886.65	20355
886.775	20328
886.9	20575
887.025	20686
887.149	20415
887.274	20237
887.399	20263
887.523	20195
887.648	20202
887.773	20210
887.897	20248
888.021	20358
888.146	20244
888.27	20309
888.395	20366
888.519	20191
888.643	20218
888.767	20301
888.891	20073
889.015	19955
889.139	20092
889.263	19940
889.387	20077
889.511	20229
889.635	20046
889.759	19936
889.883	20031
890.006	20050
890.13	20199
890.254	19959
890.377	20065
890.501	19826
890.624	19803
890.748	19830
890.871	19700
890.995	19533
891.118	19643
891.241	19643
891.364	19643
891.488	19769
891.611	19472
891.734	19655
891.857	19647
891.98	19499
892.103	19655
892.226	19521
892.349	19662
892.471	19449
892.594	19544
892.717	19609
892.839	19575
892.962	19480
893.085	19518
893.207	19578
893.33	19419
893.452	19457
893.575	19571
893.697	19567
893.819	19647
893.941	19734
894.064	19674
894.186	19487
894.308	19502
894.43	19616
894.552	19639
894.674	19613
894.796	19358
894.918	19533
895.04	19544
895.161	19674
895.283	19495
895.405	19472
895.526	19521
895.648	19655
895.769	19563
895.891	19635
896.012	19586
896.134	19620
896.255	19601
896.376	19563
896.498	19548
896.619	19525
896.74	19609
896.861	19715
896.982	19925
897.103	19997
897.224	19814
897.345	19791
897.466	19681
897.587	19791
897.708	19898
897.828	19776
897.949	19715
898.07	19658
898.19	19757
898.311	19864
898.431	19765
898.552	19727
898.672	19822
898.792	19868
898.913	19887
899.033	19750
899.153	19521
899.273	19441
899.393	19552
899.513	19483
899.633	19529
899.753	19624
899.873	19464
899.993	19552
900.113	19468
900.232	19525
900.352	19544
900.472	19362
900.591	19297
900.711	19320
900.83	19320
900.95	19548
901.069	19491
901.189	19213
901.308	19072
901.427	18897
901.546	18913
901.665	18973
901.784	18901
901.904	18745
902.023	18760
902.141	18528
902.26	18525
902.379	18536
902.498	18338
902.617	18334
902.735	18418
902.854	18460
902.973	18365
903.091	18114
903.21	18178
903.328	18152
903.446	18045
903.565	18003
903.683	17969
903.801	17722
903.919	17882
904.038	17961
904.156	17714
904.274	17767
904.392	17615
904.51	17573
904.627	17608
904.745	17718
904.863	17699
904.981	17478
905.098	17398
905.216	17406
905.334	17440
905.451	17429
905.569	17376
905.686	17345
905.803	17284
905.921	17197
906.038	17208
906.155	17121
906.272	17143
906.389	17048
906.506	16797
906.623	16980
906.74	16835
906.857	16778
906.974	16793
907.091	16961
907.208	17029
907.324	16873
907.441	16733
907.557	16733
907.674	16573
907.79	16565
907.907	16622
908.023	16664
908.139	16698
908.256	16508
908.372	16504
908.488	16519
908.604	16440
908.72	16272
908.836	16295
908.952	16295
909.068	16356
909.184	16447
909.3	16295
909.415	16211
909.531	16363
909.647	16082
909.762	16017
909.878	16017
909.993	16032
910.108	15953
910.224	15964
910.339	15968
910.454	15934
910.57	15861
910.685	15918
910.8	16055
910.915	16006
911.03	16036
911.145	15656
911.259	15694
911.374	15652
911.489	15580
911.604	15618
911.718	15344
911.833	15454
911.947	15348
912.062	15264
912.176	15523
912.291	15416
912.405	15485
912.519	15679
912.633	15568
912.748	15462
912.862	15481
912.976	15226
913.09	15157
913.204	15260
913.318	15298
913.431	15359
913.545	15252
913.659	15329
913.772	15173
913.886	15104
914	15097
914.113	15131
914.226	15169
914.34	15157
914.453	14941
914.566	15127
914.68	14914
914.793	14895
914.906	14746
915.019	14636
915.132	14621
915.245	14686
915.358	14727
915.47	14667
915.583	14598
915.696	14686
915.809	14689
915.921	14883
916.034	14613
916.146	14560
916.259	14556
916.371	14670
916.483	14575
916.595	14446
916.708	14503
916.82	14530
916.932	14457
917.044	14473
917.156	14366
917.268	14317
917.38	14351
917.491	14210
917.603	14271
917.715	14423
917.826	14488
917.938	14320
918.049	14145
918.161	14286
918.272	14469
918.384	14336
918.495	14252
918.606	14084
918.717	14164
918.828	14100
918.939	14134
919.05	14073
919.161	14115
919.272	13871
919.383	14065
919.494	14145
919.604	14244
919.715	14123
919.826	13959
919.936	14157
920.047	14100
920.157	14096
920.267	14259
920.378	14138
920.488	14103
920.598	14294
920.708	14408
920.818	14339
920.928	14355
921.038	14370
921.148	14374
921.258	14100
921.368	14035
921.477	13986
921.587	13788
921.697	13696
921.806	13879
921.916	13719
922.025	13518
922.134	13559
922.244	13457
922.353	13582
922.462	13358
922.571	13381
922.68	13221
922.789	13282
922.898	13228
923.007	13103
923.116	13194
923.224	13114
923.333	13110
923.442	13057
923.55	12993
923.659	13061
923.767	13042
923.876	12916
923.984	13034
924.092	12867
924.201	12973
924.309	12890
924.417	12939
924.525	12825
924.633	12806
924.741	13746
924.849	12665
924.956	12715
925.064	12646
925.172	12593
925.279	12654
925.387	12601
925.494	12616
925.602	12760
925.709	12635
925.816	12407
925.924	12441
926.031	12502
926.138	12502
926.245	12509
926.352	12456
926.459	12574
926.566	12673
926.673	12494
926.779	12376
926.886	12388
926.993	12235
927.099	12194
927.206	12121
927.312	12060
927.419	12224
927.525	12038
927.631	12277
927.737	11999
927.843	12045
927.95	11832
928.056	12030
928.162	12019
928.267	12003
928.373	12658
928.479	12011
928.585	11813
928.69	11996
928.796	12030
928.901	11828
929.007	11703
929.112	11889
929.218	11859
929.323	11832
929.428	11714
929.533	11798
929.638	11672
929.743	11634
929.848	11668
929.953	11748
930.058	11562
930.163	11478
930.267	11471
930.372	11634
930.477	11353
930.581	11672
930.685	11501
930.79	11326
930.894	11364
930.998	11242
931.103	11459
931.207	11003
931.311	11014
931.415	10976
931.519	10721
931.623	10752
