Data from test_V78500241_1342.txt Node
Date: Fri Mar 25 15:19:12 CST 2022
User: usil
Spectrometer: V785-0024
Trigger mode: 0
Integration Time (sec): 4.000000E-1
Scans to average: 1
Nonlinearity correction enabled: false
Boxcar width: 0
Storing dark spectrum: false
XAxis mode: Wavelengths
Number of Pixels in Spectrum: 1024
>>>>>Begin Spectral Data<<<<<
801.071	28207
801.214	28040
801.356	27831
801.499	27663
801.641	27610
801.783	27523
801.926	27675
802.068	27679
802.211	27595
802.353	27523
802.496	27351
802.638	27477
802.78	27526
802.923	27233
803.065	27252
803.208	27306
803.35	27268
803.492	27401
803.635	27466
803.777	27336
803.919	27523
804.061	27941
804.204	27564
804.346	27572
804.488	27447
804.63	27561
804.773	27492
804.915	27412
805.057	27698
805.199	27557
805.341	27568
805.483	27660
805.626	27591
805.768	27530
805.91	27595
806.052	27671
806.194	27610
806.336	27838
806.478	27728
806.62	27652
806.762	27838
806.904	27846
807.046	28177
807.188	28025
807.33	28025
807.472	28032
807.614	28044
807.756	28002
807.898	27994
808.04	27842
808.182	27895
808.324	27987
808.465	28006
808.607	28086
808.749	28341
808.891	28451
809.033	28493
809.174	28253
809.316	28390
809.458	28268
809.6	28322
809.741	28413
809.883	28481
810.025	28649
810.166	28675
810.308	28573
810.45	28649
810.591	28584
810.733	28318
810.875	28401
811.016	28215
811.158	28226
811.299	28504
811.441	28424
811.582	28615
811.724	28375
811.865	28310
812.007	28257
812.148	28424
812.29	28500
812.431	28565
812.573	28523
812.714	28713
812.855	28858
812.997	29033
813.138	29064
813.279	28991
813.421	28885
813.562	28904
813.703	28580
813.845	28615
813.986	28382
814.127	28276
814.268	28059
814.41	28135
814.551	28010
814.692	28063
814.833	28162
814.974	27953
815.115	28070
815.256	27869
815.397	27827
815.539	27930
815.68	27751
815.821	27816
815.962	27892
816.103	27816
816.244	27732
816.385	27660
816.526	27530
816.666	27355
816.807	27325
816.948	27363
817.089	27393
817.23	27317
817.371	27313
817.512	27264
817.653	27283
817.793	27317
817.934	27351
818.075	27291
818.216	27256
818.356	27370
818.497	27165
818.638	27055
818.778	27043
818.919	27032
819.06	27336
819.2	27249
819.341	27268
819.481	27336
819.622	27492
819.762	27618
819.903	27827
820.043	27454
820.184	27458
820.324	27443
820.465	27530
820.605	27439
820.746	27492
820.886	27203
821.026	27481
821.167	27492
821.307	27367
821.447	27351
821.588	27241
821.728	27157
821.868	27036
822.008	26956
822.149	26785
822.289	26796
822.429	26560
822.569	26461
822.709	26370
822.849	26278
822.99	26381
823.13	26309
823.27	26267
823.41	26187
823.55	25970
823.69	26062
823.83	26111
823.97	26035
824.11	25883
824.25	25784
824.389	25963
824.529	26050
824.669	25871
824.809	26145
824.949	26069
825.089	26043
825.228	25951
825.368	25799
825.508	25966
825.648	25788
825.787	25944
825.927	25875
826.067	25674
826.206	25814
826.346	25890
826.485	25856
826.625	25761
826.765	25814
826.904	25860
827.044	25597
827.183	25677
827.323	25464
827.462	25632
827.601	25460
827.741	25597
827.88	25647
828.02	25476
828.159	25597
828.298	25658
828.437	25765
828.577	25483
828.716	25613
828.855	25472
828.994	25293
829.134	25285
829.273	25240
829.412	25244
829.551	25202
829.69	25312
829.829	25365
829.968	25240
830.107	25316
830.246	25304
830.385	25099
830.524	25099
830.663	25118
830.802	25012
830.941	24875
831.08	24814
831.219	24981
831.357	24985
831.496	24970
831.635	24856
831.774	24707
831.913	24726
832.051	24730
832.19	24665
832.329	24635
832.467	24578
832.606	24388
832.744	24456
832.883	24525
833.022	24585
833.16	24456
833.299	24509
833.437	24566
833.576	24612
833.714	24639
833.852	24684
833.991	24612
834.129	24601
834.267	24650
834.406	24684
834.544	24669
834.682	24528
834.821	24525
834.959	24688
835.097	24547
835.235	24661
835.373	24620
835.511	24525
835.65	24525
835.788	24353
835.926	24235
836.064	24152
836.202	24296
836.34	24418
836.478	24369
836.615	24330
836.753	24311
836.891	24494
837.029	24327
837.167	24376
837.305	24365
837.443	24315
837.58	24136
837.718	24342
837.856	24228
837.993	24201
838.131	24201
838.269	24102
838.406	24148
838.544	24201
838.681	23897
838.819	23859
838.956	23805
839.094	23809
839.231	23752
839.369	23794
839.506	24178
839.643	23897
839.781	23634
839.918	23680
840.055	23752
840.193	23733
840.33	23767
840.467	23604
840.604	23642
840.742	23821
840.879	23448
841.016	23524
841.153	23562
841.29	23680
841.427	23687
841.564	23687
841.701	23615
841.838	23589
841.975	23627
842.112	23551
842.249	23452
842.385	23311
842.522	23570
842.659	23478
842.796	23345
842.933	23345
843.069	23356
843.206	23322
843.343	23402
843.479	23414
843.616	23356
843.752	23147
843.889	23284
844.025	23235
844.162	23181
844.298	23341
844.435	23162
844.571	23200
844.708	23181
844.844	23395
844.98	23345
845.117	23212
845.253	23052
845.389	23071
845.525	23109
845.661	23083
845.798	22923
845.934	22949
846.07	22847
846.206	22953
846.342	23052
846.478	22892
846.614	22771
846.75	22603
846.886	22588
847.022	22740
847.158	22812
847.294	22645
847.429	22820
847.565	22603
847.701	22790
847.837	22394
847.972	22337
848.108	22451
848.244	22447
848.379	22344
848.515	22291
848.65	22344
848.786	22337
848.921	22192
849.057	22341
849.192	22261
849.328	22261
849.463	22234
849.598	22120
849.734	22131
849.869	22097
850.004	22120
850.14	22067
850.275	22032
850.41	21991
850.545	21979
850.68	21972
850.815	21949
850.95	21956
851.085	22246
851.22	22158
851.355	22093
851.49	22044
851.625	22006
851.76	21975
851.895	22006
852.03	21892
852.165	22021
852.299	22048
852.434	22055
852.569	22048
852.703	22051
852.838	22059
852.973	22181
853.107	22051
853.242	21915
853.376	21918
853.511	21713
853.645	21857
853.78	21873
853.914	21800
854.048	21713
854.183	21793
854.317	21793
854.451	21964
854.585	21857
854.72	21876
854.854	21922
854.988	21709
855.122	21827
855.256	21720
855.39	21770
855.524	21838
855.658	22055
855.792	21869
855.926	21895
856.06	21812
856.194	21884
856.327	21884
856.461	21652
856.595	21766
856.729	21713
856.862	21884
856.996	21682
857.13	21899
857.263	21964
857.397	21930
857.53	21789
857.664	21831
857.797	21751
857.931	22051
858.064	21842
858.197	21991
858.331	21774
858.464	21713
858.597	21682
858.731	21694
858.864	21835
858.997	21781
859.13	21781
859.263	21854
859.396	21926
859.529	21804
859.662	21671
859.795	21819
859.928	21831
860.061	21945
860.194	22013
860.327	21880
860.46	21861
860.592	21964
860.725	21975
860.858	21934
860.99	21800
861.123	21785
861.256	21800
861.388	21701
861.521	22287
861.653	21690
861.786	21610
861.918	21713
862.05	21759
862.183	21698
862.315	21846
862.447	21816
862.58	21720
862.712	21557
862.844	21500
862.976	21576
863.108	21557
863.24	21953
863.372	21450
863.504	21603
863.636	21591
863.768	21534
863.9	21595
864.032	21500
864.164	21439
864.296	21488
864.428	21431
864.559	21492
864.691	21504
864.823	21576
864.954	21485
865.086	21504
865.217	21462
865.349	21340
865.48	21355
865.612	21447
865.743	21481
865.875	21485
866.006	21348
866.137	21397
866.269	21386
866.4	21443
866.531	21386
866.662	21329
866.793	21325
866.924	21241
867.055	21321
867.186	21313
867.317	21294
867.448	21344
867.579	21389
867.71	21218
867.841	21325
867.972	21283
868.103	21313
868.233	21317
868.364	21389
868.495	21424
868.625	21549
868.756	21614
868.886	21557
869.017	21405
869.147	21641
869.278	21644
869.408	21637
869.539	21618
869.669	21656
869.799	21576
869.929	21694
870.06	21698
870.19	21876
870.32	21907
870.45	21899
870.58	21930
870.71	22074
870.84	22105
870.97	21998
871.1	22017
871.23	22063
871.36	22086
871.489	22048
871.619	22135
871.749	22238
871.879	22196
872.008	22261
872.138	22246
872.267	22280
872.397	21998
872.526	22044
872.656	22025
872.785	22093
872.915	22173
873.044	22150
873.173	22147
873.303	22238
873.432	22070
873.561	22314
873.69	22158
873.819	22196
873.948	22120
874.077	22166
874.206	22131
874.335	22116
874.464	22253
874.593	22432
874.722	22344
874.851	22432
874.979	22478
875.108	22375
875.237	22303
875.365	22322
875.494	22481
875.623	22504
875.751	22367
875.88	22413
876.008	22508
876.136	22584
876.265	22759
876.393	22801
876.521	22740
876.65	22896
876.778	22801
876.906	22759
877.034	22809
877.162	22733
877.29	22755
877.418	22660
877.546	22786
877.674	22615
877.802	22694
877.93	22744
878.058	22809
878.185	22755
878.313	22660
878.441	22733
878.568	22557
878.696	22599
878.824	22793
878.951	22790
879.079	22881
879.206	22980
879.333	22793
879.461	22820
879.588	22790
879.715	22839
879.842	23003
879.97	22744
880.097	22573
880.224	22493
880.351	22611
880.478	22459
880.605	22637
880.732	22596
880.859	22793
880.986	22622
881.112	22592
881.239	22356
881.366	22207
881.493	22188
881.619	22139
881.746	22131
881.872	22177
881.999	22051
882.125	22070
882.252	22051
882.378	22207
882.505	22238
882.631	21907
882.757	21778
882.883	21907
883.01	21857
883.136	21736
883.262	21698
883.388	21705
883.514	21717
883.64	21838
883.766	21709
883.892	21591
884.018	21591
884.143	21682
884.269	21838
884.395	21511
884.52	21405
884.646	21553
884.772	21370
884.897	21363
885.023	21481
885.148	21492
885.274	21587
885.399	21511
885.524	21500
885.65	21519
885.775	21416
885.9	21488
886.025	21595
886.15	21568
886.275	21386
886.4	21340
886.525	21492
886.65	21397
886.775	21355
886.9	21534
887.025	21660
887.149	21367
887.274	21237
887.399	21298
887.523	21260
887.648	21188
887.773	21165
887.897	21260
888.021	21260
888.146	21203
888.27	21329
888.395	21260
888.519	21195
888.643	21211
888.767	21237
888.891	21036
889.015	21058
889.139	20944
889.263	21051
889.387	21165
889.511	21252
889.635	21093
889.759	20979
889.883	20864
890.006	21089
890.13	21127
890.254	20952
890.377	21024
890.501	20670
890.624	20758
890.748	20735
890.871	20583
890.995	20590
891.118	20560
891.241	20613
891.364	20636
891.488	20762
891.611	20537
891.734	20571
891.857	20785
891.98	20552
892.103	20587
892.226	20564
892.349	20396
892.471	20454
892.594	20412
892.717	20442
892.839	20412
892.962	20552
893.085	20511
893.207	20404
893.33	20427
893.452	20343
893.575	20564
893.697	20488
893.819	20716
893.941	20609
894.064	20579
894.186	20423
894.308	20374
894.43	20579
894.552	20629
894.674	20514
894.796	20381
894.918	20461
895.04	20400
895.161	20625
895.283	20396
895.405	20446
895.526	20412
895.648	20484
895.769	20457
895.891	20514
896.012	20640
896.134	20587
896.255	20393
896.376	20389
896.498	20377
896.619	20431
896.74	20427
896.861	20522
896.982	20758
897.103	20937
897.224	20716
897.345	20617
897.466	20640
897.587	20644
897.708	20678
897.828	20697
897.949	20598
898.07	20488
898.19	20629
898.311	20724
898.431	20537
898.552	20564
898.672	20632
898.792	20739
898.913	20602
899.033	20663
899.153	20389
899.273	20434
899.393	20355
899.513	20317
899.633	20332
899.753	20438
899.873	20355
899.993	20465
900.113	20298
900.232	20294
900.352	20313
900.472	20282
900.591	19997
900.711	20202
900.83	20115
900.95	20244
901.069	20305
901.189	20092
901.308	19849
901.427	19723
901.546	19647
901.665	19750
901.784	19731
901.904	19708
902.023	19689
902.141	19339
902.26	19255
902.379	19339
902.498	19339
902.617	19259
902.735	19263
902.854	19278
902.973	19213
903.091	18962
903.21	18867
903.328	19065
903.446	18810
903.565	18711
903.683	18703
903.801	18707
903.919	18814
904.038	18688
904.156	18582
904.274	18574
904.392	18559
904.51	18544
904.627	18426
904.745	18559
904.863	18574
904.981	18300
905.098	18247
905.216	18114
905.334	18190
905.451	18194
905.569	18213
905.686	18045
905.803	18216
905.921	18041
906.038	17996
906.155	17969
906.272	17786
906.389	17897
906.506	17695
906.623	17672
906.74	17752
906.857	17699
906.974	17649
907.091	17695
907.208	17790
907.324	17714
907.441	17524
907.557	17440
907.674	17414
907.79	17341
907.907	17410
908.023	17402
908.139	17410
908.256	17364
908.372	17398
908.488	17277
908.604	17098
908.72	17102
908.836	17067
908.952	17143
909.068	17090
909.184	17132
909.3	17151
909.415	17227
909.531	17155
909.647	16923
909.762	16839
909.878	16869
909.993	16778
910.108	16877
910.224	16786
910.339	16793
910.454	16835
910.57	16679
910.685	16634
910.8	16930
910.915	16831
911.03	16660
911.145	16421
911.259	16371
911.374	16474
911.489	16341
911.604	16211
911.718	16215
911.833	16211
911.947	16131
912.062	16013
912.176	16067
912.291	16139
912.405	16192
912.519	16276
912.633	16306
912.748	16112
912.862	16147
912.976	16010
913.09	15922
913.204	15960
913.318	15956
913.431	16036
913.545	15975
913.659	15991
913.772	15907
913.886	15759
914	15789
914.113	15983
914.226	15831
914.34	15873
914.453	15656
914.566	15800
914.68	15686
914.793	15595
914.906	15428
915.019	15408
915.132	15424
915.245	15378
915.358	15450
915.47	15405
915.583	15374
915.696	15386
915.809	15485
915.921	15496
916.034	15283
916.146	15279
916.259	15370
916.371	15378
916.483	15363
916.595	15230
916.708	15283
916.82	15279
916.932	15230
917.044	15097
917.156	15135
917.268	15036
917.38	15047
917.491	15013
917.603	15032
917.715	15036
917.826	15161
917.938	15051
918.049	14849
918.161	15001
918.272	15077
918.384	15135
918.495	14906
918.606	14963
918.717	14815
918.828	14792
918.939	14819
919.05	14743
919.161	14785
919.272	14632
919.383	14682
919.494	14826
919.604	15013
919.715	14811
919.826	14632
919.936	14811
920.047	14880
920.157	14701
920.267	14899
920.378	14750
920.488	14678
920.598	14918
920.708	15024
920.818	14887
920.928	14849
921.038	15032
921.148	14918
921.258	14777
921.368	14632
921.477	14507
921.587	14507
921.697	14362
921.806	14518
921.916	14404
922.025	14195
922.134	14134
922.244	14031
922.353	14214
922.462	14027
922.571	13932
922.68	13795
922.789	13784
922.898	13852
923.007	13734
923.116	13822
923.224	13784
923.333	13822
923.442	13658
923.55	13651
923.659	13567
923.767	13696
923.876	13491
923.984	13544
924.092	13430
924.201	13552
924.309	13460
924.417	13480
924.525	13487
924.633	13438
924.741	14343
924.849	13183
924.956	13434
925.064	13221
925.172	13168
925.279	13149
925.387	13221
925.494	13217
925.602	13278
925.709	13232
925.816	13084
925.924	13099
926.031	13206
926.138	13129
926.245	13164
926.352	13050
926.459	13198
926.566	13069
926.673	13091
926.779	12947
926.886	12947
926.993	12810
927.099	12738
927.206	12722
927.312	12658
927.419	12715
927.525	12696
927.631	12726
927.737	12631
927.843	12601
927.95	12513
928.056	12559
928.162	12540
928.267	12616
928.373	13137
928.479	12673
928.585	12388
928.69	12593
928.796	12646
928.901	12475
929.007	12273
929.112	12460
929.218	12376
929.323	12399
929.428	12270
929.533	12410
929.638	12201
929.743	12194
929.848	12270
929.953	12308
930.058	12087
930.163	11942
930.267	11958
930.372	12015
930.477	11935
930.581	12182
930.685	11961
930.79	11786
930.894	11897
930.998	11889
931.103	12011
931.207	11551
931.311	11505
931.415	11455
931.519	11277
931.623	11124
