Data from test_V78500241_113.txt Node
Date: Fri Mar 25 15:10:38 CST 2022
User: usil
Spectrometer: V785-0024
Trigger mode: 0
Integration Time (sec): 4.000000E-1
Scans to average: 1
Nonlinearity correction enabled: false
Boxcar width: 0
Storing dark spectrum: false
XAxis mode: Wavelengths
Number of Pixels in Spectrum: 1024
>>>>>Begin Spectral Data<<<<<
801.071	27930
801.214	28025
801.356	27827
801.499	27713
801.641	27564
801.783	27477
801.926	27587
802.068	27606
802.211	27367
802.353	27488
802.496	27260
802.638	27112
802.78	27100
802.923	26956
803.065	27005
803.208	27032
803.35	27195
803.492	27256
803.635	27252
803.777	27154
803.919	27192
804.061	27549
804.204	27211
804.346	27100
804.488	27116
804.63	27138
804.773	27085
804.915	27214
805.057	27294
805.199	27108
805.341	27203
805.483	27363
805.626	27237
805.768	27169
805.91	27249
806.052	27329
806.194	27275
806.336	27416
806.478	27260
806.62	27264
806.762	27359
806.904	27386
807.046	27747
807.188	27473
807.33	27614
807.472	27660
807.614	27370
807.756	27622
807.898	27492
808.04	27382
808.182	27447
808.324	27519
808.465	27405
808.607	27572
808.749	27698
808.891	27724
809.033	27797
809.174	27739
809.316	27766
809.458	27739
809.6	27759
809.741	27937
809.883	27789
810.025	28055
810.166	28017
810.308	27888
810.45	27979
810.591	27937
810.733	27743
810.875	27587
811.016	27549
811.158	27667
811.299	27667
811.441	27641
811.582	27751
811.724	27671
811.865	27682
812.007	27549
812.148	27724
812.29	27606
812.431	27884
812.573	28086
812.714	27968
812.855	28128
812.997	28276
813.138	28440
813.279	28360
813.421	28181
813.562	27994
813.703	27911
813.845	27941
813.986	27526
814.127	27427
814.268	27321
814.41	27401
814.551	27382
814.692	27222
814.833	27176
814.974	27332
815.115	27332
815.256	27085
815.397	27176
815.539	27032
815.68	27074
815.821	26937
815.962	27195
816.103	27032
816.244	26838
816.385	26891
816.526	26682
816.666	26587
816.807	26385
816.948	26571
817.089	26530
817.23	26366
817.371	26613
817.512	26480
817.653	26431
817.793	26336
817.934	26476
818.075	26522
818.216	26476
818.356	26301
818.497	26218
818.638	26130
818.778	26069
818.919	26107
819.06	26237
819.2	26202
819.341	26438
819.481	26237
819.622	26518
819.762	26701
819.903	26583
820.043	26442
820.184	26408
820.324	26362
820.465	26488
820.605	26495
820.746	26530
820.886	26294
821.026	26412
821.167	26419
821.307	26473
821.447	26336
821.588	26225
821.728	26221
821.868	25928
822.008	25814
822.149	25772
822.289	25727
822.429	25620
822.569	25419
822.709	25476
822.849	25320
822.99	25301
823.13	25225
823.27	25362
823.41	25004
823.55	24977
823.69	24947
823.83	24985
823.97	24992
824.11	24913
824.25	24913
824.389	24852
824.529	25012
824.669	24852
824.809	24837
824.949	25000
825.089	24977
825.228	24947
825.368	24642
825.508	24673
825.648	24856
825.787	24749
825.927	24612
826.067	24738
826.206	24734
826.346	24730
826.485	24673
826.625	24654
826.765	24749
826.904	24681
827.044	24338
827.183	24380
827.323	24315
827.462	24433
827.601	24311
827.741	24323
827.88	24266
828.02	24201
828.159	24194
828.298	24429
828.437	24201
828.577	24270
828.716	24429
828.855	24247
828.994	24060
829.134	23996
829.273	24114
829.412	23920
829.551	23920
829.69	23969
829.829	24007
829.968	24125
830.107	23996
830.246	23973
830.385	23954
830.524	23878
830.663	23748
830.802	23680
830.941	23566
831.08	23474
831.219	23661
831.357	23539
831.496	23714
831.635	23547
831.774	23611
831.913	23414
832.051	23299
832.19	23307
832.329	23436
832.467	23311
832.606	23193
832.744	23227
832.883	23223
833.022	23174
833.16	23254
833.299	23315
833.437	23242
833.576	23337
833.714	23296
833.852	23258
833.991	23406
834.129	23246
834.267	23372
834.406	23235
834.544	23303
834.682	23299
834.821	23083
834.959	23353
835.097	23109
835.235	23170
835.373	23296
835.511	23258
835.65	23124
835.788	23098
835.926	22843
836.064	22885
836.202	22946
836.34	22984
836.478	23094
836.615	23071
836.753	23071
836.891	23056
837.029	23189
837.167	22987
837.305	22915
837.443	22987
837.58	22854
837.718	22980
837.856	22786
837.993	22877
838.131	22866
838.269	22729
838.406	22824
838.544	22538
838.681	22599
838.819	22417
838.956	22363
839.094	22421
839.231	22413
839.369	22500
839.506	22763
839.643	22630
839.781	22360
839.918	22348
840.055	22249
840.193	22337
840.33	22306
840.467	22341
840.604	22268
840.742	22535
840.879	22147
841.016	22207
841.153	22226
841.29	22303
841.427	22200
841.564	22246
841.701	22238
841.838	22215
841.975	22207
842.112	22101
842.249	21991
842.385	22048
842.522	22116
842.659	21941
842.796	21918
842.933	21968
843.069	21838
843.206	21823
843.343	21983
843.479	21994
843.616	21930
843.752	21736
843.889	21717
844.025	21945
844.162	21591
844.298	21831
844.435	21720
844.571	21732
844.708	21732
844.844	21781
844.98	21861
845.117	21869
845.253	21652
845.389	21549
845.525	21545
845.661	21534
845.798	21416
845.934	21344
846.07	21374
846.206	21310
846.342	21568
846.478	21428
846.614	21241
846.75	21116
846.886	21264
847.022	21256
847.158	21249
847.294	21294
847.429	21116
847.565	21096
847.701	21370
847.837	20830
847.972	20796
848.108	20937
848.244	20948
848.379	20769
848.515	20800
848.65	20686
848.786	20773
848.921	20895
849.057	20746
849.192	20910
849.328	20819
849.463	20697
849.598	20640
849.734	20587
849.869	20629
850.004	20476
850.14	20526
850.275	20465
850.41	20431
850.545	20438
850.68	20267
850.815	20556
850.95	20465
851.085	20545
851.22	20476
851.355	20488
851.49	20396
851.625	20396
851.76	20336
851.895	20427
852.03	20355
852.165	20438
852.299	20313
852.434	20454
852.569	20328
852.703	20438
852.838	20518
852.973	20613
853.107	20549
853.242	20298
853.376	20294
853.511	20221
853.645	20317
853.78	20415
853.914	20252
854.048	20214
854.183	20180
854.317	20229
854.451	20393
854.585	20233
854.72	20221
854.854	20275
854.988	20229
855.122	20107
855.256	20035
855.39	20195
855.524	20267
855.658	20233
855.792	20305
855.926	20298
856.06	20343
856.194	20259
856.327	20225
856.461	20168
856.595	20111
856.729	20191
856.862	20294
856.996	20294
857.13	20336
857.263	20362
857.397	20309
857.53	20195
857.664	20142
857.797	20248
857.931	20267
858.064	20130
858.197	20339
858.331	20278
858.464	20081
858.597	20050
858.731	20062
858.864	20161
858.997	20248
859.13	20191
859.263	20244
859.396	20202
859.529	20195
859.662	20096
859.795	20096
859.928	20153
860.061	20298
860.194	20328
860.327	20069
860.46	20153
860.592	20195
860.725	20317
860.858	20290
860.99	20183
861.123	19997
861.256	20126
861.388	20134
861.521	20720
861.653	20027
861.786	20062
861.918	19970
862.05	20130
862.183	20267
862.315	20282
862.447	20298
862.58	20111
862.712	19982
862.844	19883
862.976	20035
863.108	20043
863.24	20275
863.372	19871
863.504	19909
863.636	19936
863.768	19887
863.9	19928
864.032	19765
864.164	19883
864.296	19868
864.428	20039
864.559	19997
864.691	19909
864.823	19780
864.954	19807
865.086	19864
865.217	19864
865.349	19677
865.48	19921
865.612	19807
865.743	20016
865.875	19742
866.006	19689
866.137	19830
866.269	19818
866.4	19837
866.531	19742
866.662	19597
866.793	19704
866.924	19708
867.055	19715
867.186	19788
867.317	19753
867.448	19685
867.579	19731
867.71	19616
867.841	19639
867.972	19811
868.103	19655
868.233	19753
868.364	19738
868.495	19799
868.625	19860
868.756	20031
868.886	19776
869.017	19902
869.147	20031
869.278	20202
869.408	19898
869.539	19978
869.669	20043
869.799	20054
869.929	20050
870.06	20062
870.19	20343
870.32	20271
870.45	20267
870.58	20404
870.71	20328
870.84	20438
870.97	20393
871.1	20370
871.23	20484
871.36	20450
871.489	20450
871.619	20446
871.749	20522
871.879	20606
872.008	20609
872.138	20476
872.267	20446
872.397	20427
872.526	20454
872.656	20404
872.785	20446
872.915	20655
873.044	20625
873.173	20602
873.303	20549
873.432	20629
873.561	20693
873.69	20438
873.819	20552
873.948	20693
874.077	20594
874.206	20621
874.335	20537
874.464	20743
874.593	20891
874.722	20727
874.851	20849
874.979	20842
875.108	20811
875.237	20708
875.365	20800
875.494	20826
875.623	20796
875.751	20739
875.88	20849
876.008	20937
876.136	20982
876.265	21195
876.393	21386
876.521	21218
876.65	21237
876.778	21340
876.906	21211
877.034	21165
877.162	21146
877.29	21203
877.418	21237
877.546	21169
877.674	21093
877.802	21138
877.93	21161
878.058	21070
878.185	21070
878.313	21226
878.441	21112
878.568	21074
878.696	21218
878.824	21302
878.951	21237
879.079	21416
879.206	21450
879.333	21447
879.461	21302
879.588	21298
879.715	21386
879.842	21431
879.97	21264
880.097	21085
880.224	21024
880.351	21051
880.478	20906
880.605	21024
880.732	21032
880.859	21192
880.986	21119
881.112	20902
881.239	20948
881.366	20883
881.493	20716
881.619	20708
881.746	20602
881.872	20552
881.999	20644
882.125	20617
882.252	20708
882.378	20667
882.505	20720
882.631	20518
882.757	20339
882.883	20400
883.01	20275
883.136	20457
883.262	20351
883.388	20161
883.514	20347
883.64	20484
883.766	20221
883.892	20172
884.018	20214
884.143	20351
884.269	20347
884.395	20062
884.52	20008
884.646	20062
884.772	20024
884.897	20024
885.023	19917
885.148	20107
885.274	20187
885.399	20065
885.524	19974
885.65	19982
885.775	20020
885.9	20024
886.025	20077
886.15	19963
886.275	19871
886.4	19932
886.525	19906
886.65	19940
886.775	19967
886.9	20161
887.025	20218
887.149	19944
887.274	19837
887.399	19788
887.523	19784
887.648	19731
887.773	19601
887.897	19845
888.021	19784
888.146	19662
888.27	19856
888.395	19871
888.519	19803
888.643	19776
888.767	19750
888.891	19696
889.015	19674
889.139	19681
889.263	19575
889.387	19635
889.511	19700
889.635	19620
889.759	19552
889.883	19491
890.006	19609
890.13	19674
890.254	19605
890.377	19419
890.501	19346
890.624	19312
890.748	19369
890.871	19198
890.995	19095
891.118	19118
891.241	19225
891.364	19175
891.488	19297
891.611	19126
891.734	19187
891.857	19270
891.98	19065
892.103	19251
892.226	19209
892.349	19145
892.471	18966
892.594	18970
892.717	19072
892.839	19118
892.962	19080
893.085	19190
893.207	19114
893.33	19012
893.452	19046
893.575	19103
893.697	19118
893.819	19202
893.941	19206
894.064	19164
894.186	19015
894.308	19069
894.43	19141
894.552	19232
894.674	19202
894.796	19012
894.918	19088
895.04	19095
895.161	19194
895.283	19099
895.405	18981
895.526	19122
895.648	19072
895.769	19019
895.891	19179
896.012	19091
896.134	19179
896.255	19255
896.376	18962
896.498	19179
896.619	19213
896.74	19175
896.861	19225
896.982	19388
897.103	19655
897.224	19430
897.345	19434
897.466	19282
897.587	19365
897.708	19521
897.828	19350
897.949	19388
898.07	19228
898.19	19339
898.311	19495
898.431	19168
898.552	19346
898.672	19396
898.792	19392
898.913	19297
899.033	19152
899.153	19072
899.273	19088
899.393	19099
899.513	19057
899.633	18996
899.753	18996
899.873	18966
899.993	19046
900.113	19015
900.232	19080
900.352	18985
900.472	18878
900.591	18859
900.711	18840
900.83	18916
900.95	19015
901.069	18886
901.189	18772
901.308	18540
901.427	18525
901.546	18437
901.665	18513
901.784	18483
901.904	18330
902.023	18232
902.141	18155
902.26	17984
902.379	18060
902.498	17969
902.617	17996
902.735	17901
902.854	17969
902.973	17973
903.091	17668
903.21	17642
903.328	17680
903.446	17501
903.565	17524
903.683	17554
903.801	17330
903.919	17490
904.038	17459
904.156	17368
904.274	17341
904.392	17261
904.51	17299
904.627	17242
904.745	17288
904.863	17349
904.981	17071
905.098	16892
905.216	16976
905.334	16873
905.451	16995
905.569	16858
905.686	16911
905.803	17014
905.921	16698
906.038	16843
906.155	16835
906.272	16550
906.389	16546
906.506	16417
906.623	16451
906.74	16417
906.857	16409
906.974	16417
907.091	16493
907.208	16550
907.324	16508
907.441	16432
907.557	16200
907.674	16196
907.79	16032
907.907	16071
908.023	16215
908.139	16185
908.256	16048
908.372	16013
908.488	16021
908.604	15797
908.72	15698
908.836	15823
908.952	15903
909.068	15854
909.184	15926
909.3	15823
909.415	15876
909.531	15880
909.647	15720
909.762	15633
909.878	15549
909.993	15473
910.108	15587
910.224	15523
910.339	15584
910.454	15424
910.57	15294
910.685	15329
910.8	15576
910.915	15424
911.03	15382
911.145	15310
911.259	15226
911.374	15150
911.489	15074
911.604	14941
911.718	14918
911.833	14944
911.947	14842
912.062	14640
912.176	14918
912.291	14944
912.405	14929
912.519	15039
912.633	15131
912.748	14971
912.862	14849
912.976	14636
913.09	14587
913.204	14701
913.318	14781
913.431	14830
913.545	14792
913.659	14868
913.772	14724
913.886	14484
914	14495
914.113	14484
914.226	14610
914.34	14644
914.453	14423
914.566	14545
914.68	14412
914.793	14488
914.906	14320
915.019	14142
915.132	14012
915.245	14111
915.358	14206
915.47	14248
915.583	14142
915.696	14237
915.809	14328
915.921	14233
916.034	14123
916.146	14024
916.259	14084
916.371	14206
916.483	14142
916.595	14084
916.708	14058
916.82	13993
916.932	13993
917.044	13989
917.156	13944
917.268	13875
917.38	13894
917.491	13746
917.603	13909
917.715	13940
917.826	13951
917.938	13753
918.049	13761
918.161	13864
918.272	14027
918.384	13967
918.495	13727
918.606	13666
918.717	13578
918.828	13670
918.939	13586
919.05	13563
919.161	13540
919.272	13426
919.383	13483
919.494	13700
919.604	13761
919.715	13666
919.826	13495
919.936	13521
920.047	13639
920.157	13662
920.267	13689
920.378	13613
920.488	13552
920.598	13841
920.708	13906
920.818	13750
920.928	13651
921.038	13868
921.148	13826
921.258	13533
921.368	13472
921.477	13293
921.587	13304
921.697	13209
921.806	13381
921.916	13118
922.025	13171
922.134	13015
922.244	12970
922.353	12996
922.462	12863
922.571	12795
922.68	12559
922.789	12646
922.898	12631
923.007	12593
923.116	12582
923.224	12623
923.333	12551
923.442	12460
923.55	12422
923.659	12426
923.767	12559
923.876	12391
923.984	12540
924.092	12384
924.201	12445
924.309	12422
924.417	12407
924.525	12289
924.633	12315
924.741	13152
924.849	12148
924.956	12228
925.064	12117
925.172	11988
925.279	12102
925.387	12186
925.494	12049
925.602	12140
925.709	12148
925.816	12060
925.924	12034
926.031	12148
926.138	12068
926.245	12011
926.352	12022
926.459	12076
926.566	12110
926.673	11973
926.779	11901
926.886	11859
926.993	11748
927.099	11672
927.206	11627
927.312	11604
927.419	11726
927.525	11653
927.631	11756
927.737	11570
927.843	11512
927.95	11395
928.056	11509
928.162	11520
928.267	11573
928.373	12121
928.479	11657
928.585	11387
928.69	11482
928.796	11528
928.901	11345
929.007	11345
929.112	11387
929.218	11307
929.323	11273
929.428	11235
929.533	11353
929.638	11151
929.743	11185
929.848	11201
929.953	11246
930.058	11178
930.163	10942
930.267	11003
930.372	11117
930.477	10934
930.581	11094
930.685	10987
930.79	10839
930.894	10896
930.998	10831
931.103	10972
931.207	10550
931.311	10500
931.415	10512
931.519	10299
931.623	10268
