Data from test_V78500241_2258.txt Node
Date: Fri Mar 25 15:25:34 CST 2022
User: usil
Spectrometer: V785-0024
Trigger mode: 0
Integration Time (sec): 4.000000E-1
Scans to average: 1
Nonlinearity correction enabled: false
Boxcar width: 0
Storing dark spectrum: false
XAxis mode: Wavelengths
Number of Pixels in Spectrum: 1024
>>>>>Begin Spectral Data<<<<<
801.071	27701
801.214	27682
801.356	27374
801.499	27370
801.641	27127
801.783	27184
801.926	27272
802.068	27329
802.211	27062
802.353	26967
802.496	26925
802.638	26880
802.78	26693
802.923	26826
803.065	26640
803.208	26750
803.35	26933
803.492	26975
803.635	26975
803.777	26929
803.919	27104
804.061	27374
804.204	27096
804.346	27017
804.488	26773
804.63	27142
804.773	26952
804.915	27017
805.057	27020
805.199	27047
805.341	26853
805.483	26990
805.626	27039
805.768	27070
805.91	27062
806.052	26982
806.194	27001
806.336	27245
806.478	27176
806.62	27013
806.762	27169
806.904	27294
807.046	27618
807.188	27378
807.33	27511
807.472	27568
807.614	27504
807.756	27386
807.898	27287
808.04	27439
808.182	27568
808.324	27435
808.465	27435
808.607	27686
808.749	27762
808.891	27831
809.033	27994
809.174	27823
809.316	27812
809.458	27842
809.6	27739
809.741	27873
809.883	28006
810.025	28006
810.166	27949
810.308	27991
810.45	27949
810.591	27922
810.733	27682
810.875	27717
811.016	27625
811.158	27762
811.299	27804
811.441	27869
811.582	27869
811.724	27652
811.865	27709
812.007	27690
812.148	27770
812.29	27842
812.431	27854
812.573	28059
812.714	28154
812.855	28325
812.997	28341
813.138	28375
813.279	28386
813.421	28207
813.562	28185
813.703	27945
813.845	28017
813.986	27690
814.127	27561
814.268	27401
814.41	27485
814.551	27378
814.692	27466
814.833	27321
814.974	27336
815.115	27507
815.256	27367
815.397	27245
815.539	27268
815.68	27127
815.821	27138
815.962	27218
816.103	27218
816.244	27070
816.385	27161
816.526	26868
816.666	26758
816.807	26697
816.948	26735
817.089	26849
817.23	26682
817.371	26689
817.512	26735
817.653	26537
817.793	26606
817.934	26640
818.075	26800
818.216	26689
818.356	26613
818.497	26549
818.638	26480
818.778	26374
818.919	26400
819.06	26362
819.2	26571
819.341	26644
819.481	26678
819.622	26788
819.762	27051
819.903	26937
820.043	26811
820.184	26788
820.324	26754
820.465	26845
820.605	26800
820.746	26712
820.886	26571
821.026	26674
821.167	26720
821.307	26811
821.447	26731
821.588	26568
821.728	26598
821.868	26317
822.008	26187
822.149	26035
822.289	26138
822.429	25841
822.569	25761
822.709	25890
822.849	25605
822.99	25670
823.13	25639
823.27	25674
823.41	25491
823.55	25369
823.69	25502
823.83	25544
823.97	25518
824.11	25320
824.25	25206
824.389	25213
824.529	25403
824.669	25228
824.809	25316
824.949	25308
825.089	25301
825.228	25335
825.368	25080
825.508	25034
825.648	25088
825.787	25164
825.927	25168
826.067	25072
826.206	25152
826.346	25133
826.485	25080
826.625	25168
826.765	25168
826.904	25228
827.044	24985
827.183	24859
827.323	24897
827.462	24897
827.601	24791
827.741	24848
827.88	24901
828.02	24791
828.159	24798
828.298	24909
828.437	24837
828.577	24749
828.716	25008
828.855	24817
828.994	24570
829.134	24498
829.273	24677
829.412	24582
829.551	24604
829.69	24471
829.829	24582
829.968	24623
830.107	24715
830.246	24623
830.385	24574
830.524	24391
830.663	24380
830.802	24327
830.941	24133
831.08	24148
831.219	24258
831.357	24239
831.496	24292
831.635	24213
831.774	23999
831.913	24117
832.051	24053
832.19	24045
832.329	24022
832.467	23771
832.606	23931
832.744	23809
832.883	23859
833.022	23771
833.16	23923
833.299	23901
833.437	23843
833.576	23965
833.714	23741
833.852	23855
833.991	24038
834.129	23954
834.267	23984
834.406	23866
834.544	24030
834.682	23980
834.821	23794
834.959	24026
835.097	23794
835.235	23923
835.373	23786
835.511	23984
835.65	23733
835.788	23703
835.926	23722
836.064	23501
836.202	23592
836.34	23722
836.478	23710
836.615	23821
836.753	23783
836.891	23786
837.029	23771
837.167	23661
837.305	23703
837.443	23615
837.58	23585
837.718	23611
837.856	23509
837.993	23493
838.131	23589
838.269	23402
838.406	23406
838.544	23406
838.681	23265
838.819	23200
838.956	23090
839.094	23018
839.231	23090
839.369	23147
839.506	23239
839.643	23307
839.781	23071
839.918	23048
840.055	23121
840.193	23071
840.33	22953
840.467	22790
840.604	22980
840.742	23269
840.879	22793
841.016	22850
841.153	22889
841.29	22995
841.427	22923
841.564	23140
841.701	22850
841.838	22908
841.975	22752
842.112	22797
842.249	22710
842.385	22683
842.522	22957
842.659	22771
842.796	22710
842.933	22786
843.069	22493
843.206	22569
843.343	22713
843.479	22774
843.616	22790
843.752	22607
843.889	22584
844.025	22592
844.162	22455
844.298	22599
844.435	22500
844.571	22367
844.708	22459
844.844	22790
844.98	22462
845.117	22603
845.253	22371
845.389	22318
845.525	22306
845.661	22360
845.798	22291
845.934	22226
846.07	22188
846.206	22078
846.342	22242
846.478	22219
846.614	21968
846.75	21991
846.886	21888
847.022	22097
847.158	22032
847.294	21998
847.429	22086
847.565	21838
847.701	22173
847.837	21724
847.972	21641
848.108	21800
848.244	21774
848.379	21545
848.515	21481
848.65	21515
848.786	21557
848.921	21591
849.057	21717
849.192	21633
849.328	21534
849.463	21481
849.598	21466
849.734	21488
849.869	21332
850.004	21287
850.14	21325
850.275	21268
850.41	21169
850.545	21294
850.68	21264
850.815	21332
850.95	21351
851.085	21477
851.22	21424
851.355	21272
851.49	21306
851.625	21260
851.76	21306
851.895	21154
852.03	21176
852.165	21325
852.299	21237
852.434	21443
852.569	21291
852.703	21325
852.838	21420
852.973	21416
853.107	21431
853.242	21237
853.376	21032
853.511	20941
853.645	21100
853.78	21203
853.914	21058
854.048	21150
854.183	21157
854.317	21058
854.451	21272
854.585	21218
854.72	21096
854.854	21180
854.988	21013
855.122	21032
855.256	21055
855.39	21131
855.524	21176
855.658	21066
855.792	21070
855.926	21154
856.06	21157
856.194	21207
856.327	20960
856.461	21036
856.595	21070
856.729	21024
856.862	21100
856.996	21252
857.13	21192
857.263	21241
857.397	21138
857.53	21169
857.664	21165
857.797	21100
857.931	21218
858.064	21176
858.197	21161
858.331	21138
858.464	21062
858.597	21020
858.731	21032
858.864	21039
858.997	21070
859.13	21112
859.263	21100
859.396	21203
859.529	21058
859.662	21138
859.795	21070
859.928	21058
860.061	21207
860.194	21192
860.327	21077
860.46	21074
860.592	21195
860.725	21272
860.858	21131
860.99	21089
861.123	21062
861.256	20975
861.388	21192
861.521	21869
861.653	20933
861.786	20937
861.918	21043
862.05	20998
862.183	21150
862.315	21005
862.447	21131
862.58	20998
862.712	20880
862.844	20811
862.976	20823
863.108	20971
863.24	21138
863.372	20750
863.504	20963
863.636	20765
863.768	20956
863.9	20883
864.032	20689
864.164	20727
864.296	20769
864.428	21005
864.559	20849
864.691	20853
864.823	20792
864.954	20853
865.086	20800
865.217	20701
865.349	20731
865.48	20777
865.612	20815
865.743	20952
865.875	20629
866.006	20640
866.137	20659
866.269	20815
866.4	20777
866.531	20629
866.662	20769
866.793	20735
866.924	20583
867.055	20838
867.186	20720
867.317	20590
867.448	20503
867.579	20644
867.71	20636
867.841	20537
867.972	20686
868.103	20617
868.233	20716
868.364	20590
868.495	20868
868.625	20906
868.756	21013
868.886	20849
869.017	20910
869.147	21051
869.278	21001
869.408	20952
869.539	20910
869.669	21123
869.799	21001
869.929	21047
870.06	21070
870.19	21321
870.32	21199
870.45	21226
870.58	21226
870.71	21344
870.84	21439
870.97	21317
871.1	21439
871.23	21561
871.36	21500
871.489	21420
871.619	21435
871.749	21538
871.879	21515
872.008	21603
872.138	21580
872.267	21549
872.397	21382
872.526	21340
872.656	21291
872.785	21359
872.915	21572
873.044	21549
873.173	21545
873.303	21568
873.432	21603
873.561	21629
873.69	21519
873.819	21618
873.948	21553
874.077	21526
874.206	21530
874.335	21576
874.464	21720
874.593	21713
874.722	21682
874.851	21835
874.979	21861
875.108	21827
875.237	21759
875.365	21698
875.494	21774
875.623	21873
875.751	21679
875.88	21823
876.008	21915
876.136	21918
876.265	22105
876.393	22348
876.521	22280
876.65	22223
876.778	22177
876.906	22192
877.034	22055
877.162	22128
877.29	22074
877.418	22166
877.546	22029
877.674	22124
877.802	22093
877.93	22154
878.058	22036
878.185	22017
878.313	22169
878.441	22101
878.568	21975
878.696	22154
878.824	22181
878.951	22280
879.079	22249
879.206	22405
879.333	22413
879.461	22112
879.588	22261
879.715	22333
879.842	22523
879.97	22158
880.097	22105
880.224	21934
880.351	22029
880.478	22032
880.605	21979
880.732	21823
880.859	22181
880.986	21922
881.112	21964
881.239	21781
881.366	21675
881.493	21656
881.619	21431
881.746	21530
881.872	21443
881.999	21492
882.125	21450
882.252	21477
882.378	21564
882.505	21648
882.631	21393
882.757	21317
882.883	21378
883.01	21249
883.136	21165
883.262	21028
883.388	21085
883.514	21264
883.64	21260
883.766	21112
883.892	20979
884.018	21036
884.143	21119
884.269	21275
884.395	20948
884.52	20899
884.646	20872
884.772	20819
884.897	20788
885.023	20849
885.148	20902
885.274	21058
885.399	20910
885.524	20895
885.65	20921
885.775	20944
885.9	20887
886.025	20975
886.15	20925
886.275	20758
886.4	20712
886.525	20861
886.65	20823
886.775	20754
886.9	20914
887.025	21112
887.149	20678
887.274	20727
887.399	20609
887.523	20606
887.648	20545
887.773	20499
887.897	20724
888.021	20655
888.146	20667
888.27	20686
888.395	20750
888.519	20693
888.643	20625
888.767	20781
888.891	20461
889.015	20480
889.139	20518
889.263	20408
889.387	20575
889.511	20678
889.635	20503
889.759	20377
889.883	20415
890.006	20507
890.13	20461
890.254	20339
890.377	20358
890.501	20324
890.624	20100
890.748	20134
890.871	20142
890.995	20043
891.118	20012
891.241	20100
891.364	20054
891.488	20145
891.611	20103
891.734	20020
891.857	20024
891.98	20050
892.103	20077
892.226	20092
892.349	19932
892.471	19791
892.594	19936
892.717	19940
892.839	20046
892.962	19928
893.085	20107
893.207	19860
893.33	19769
893.452	19887
893.575	19967
893.697	19940
893.819	20031
893.941	20096
894.064	20073
894.186	19883
894.308	19864
894.43	19906
894.552	20008
894.674	20054
894.796	19841
894.918	20005
895.04	19791
895.161	20065
895.283	19997
895.405	19909
895.526	19947
895.648	19841
895.769	19963
895.891	19944
896.012	20001
896.134	19967
896.255	19959
896.376	19982
896.498	19959
896.619	19894
896.74	19849
896.861	20058
896.982	20256
897.103	20256
897.224	20084
897.345	20240
897.466	19997
897.587	20122
897.708	20374
897.828	20088
897.949	20191
898.07	19959
898.19	20054
898.311	20183
898.431	20138
898.552	20248
898.672	20259
898.792	20183
898.913	20119
899.033	20122
899.153	19955
899.273	19769
899.393	19944
899.513	19951
899.633	19906
899.753	19906
899.873	19772
899.993	19868
900.113	19871
900.232	19879
900.352	19822
900.472	19746
900.591	19525
900.711	19849
900.83	19616
900.95	19822
901.069	19715
901.189	19647
901.308	19346
901.427	19213
901.546	19263
901.665	19320
901.784	19251
901.904	19084
902.023	19168
902.141	18897
902.26	18840
902.379	18890
902.498	18814
902.617	18772
902.735	18871
902.854	18783
902.973	18715
903.091	18498
903.21	18486
903.328	18540
903.446	18395
903.565	18448
903.683	18304
903.801	18140
903.919	18296
904.038	18251
904.156	18079
904.274	18167
904.392	18144
904.51	17969
904.627	18007
904.745	18049
904.863	18182
904.981	17783
905.098	17745
905.216	17733
905.334	17756
905.451	17726
905.569	17653
905.686	17786
905.803	17638
905.921	17444
906.038	17566
906.155	17570
906.272	17318
906.389	17452
906.506	17258
906.623	17265
906.74	17227
906.857	17223
906.974	17105
907.091	17322
907.208	17330
907.324	17277
907.441	17075
907.557	16987
907.674	16987
907.79	16927
907.907	16877
908.023	16915
908.139	16999
908.256	16885
908.372	16885
908.488	16820
908.604	16713
908.72	16542
908.836	16736
908.952	16554
909.068	16805
909.184	16809
909.3	16668
909.415	16687
909.531	16542
909.647	16409
909.762	16295
909.878	16253
909.993	16398
910.108	16272
910.224	16379
910.339	16352
910.454	16230
910.57	16223
910.685	16185
910.8	16379
910.915	16314
911.03	16177
911.145	15991
911.259	15975
911.374	16036
911.489	15994
911.604	15899
911.718	15690
911.833	15823
911.947	15519
912.062	15622
912.176	15713
912.291	15564
912.405	15663
912.519	15876
912.633	15956
912.748	15835
912.862	15720
912.976	15568
913.09	15416
913.204	15568
913.318	15412
913.431	15663
913.545	15652
913.659	15671
913.772	15458
913.886	15424
914	15363
914.113	15435
914.226	15454
914.34	15359
914.453	15230
914.566	15408
914.68	15268
914.793	15291
914.906	15005
915.019	14952
915.132	14914
915.245	14944
915.358	14963
915.47	14971
915.583	15009
915.696	14918
915.809	14994
915.921	15055
916.034	14902
916.146	14857
916.259	14834
916.371	14952
916.483	14819
916.595	14811
916.708	14686
916.82	14785
916.932	14842
917.044	14762
917.156	14598
917.268	14507
917.38	14648
917.491	14587
917.603	14667
917.715	14655
917.826	14606
917.938	14473
918.049	14461
918.161	14518
918.272	14598
918.384	14636
918.495	14560
918.606	14427
918.717	14343
918.828	14377
918.939	14473
919.05	14267
919.161	14370
919.272	14157
919.383	14202
919.494	14351
919.604	14579
919.715	14324
919.826	14320
919.936	14313
920.047	14412
920.157	14355
920.267	14545
920.378	14393
920.488	14343
920.598	14522
920.708	14686
920.818	14434
920.928	14457
921.038	14648
921.148	14526
921.258	14313
921.368	14149
921.477	14130
921.587	13989
921.697	13913
921.806	14065
921.916	13963
922.025	13776
922.134	13731
922.244	13723
922.353	13772
922.462	13594
922.571	13521
922.68	13453
922.789	13403
922.898	13358
923.007	13346
923.116	13426
923.224	13285
923.333	13343
923.442	13327
923.55	13270
923.659	13228
923.767	13350
923.876	13164
923.984	13156
924.092	13072
924.201	13072
924.309	13107
924.417	13053
924.525	13072
924.633	13084
924.741	13757
924.849	12996
924.956	12966
925.064	12734
925.172	12646
925.279	12753
925.387	12787
925.494	12798
925.602	12943
925.709	12848
925.816	12772
925.924	12821
926.031	12856
926.138	12787
926.245	12772
926.352	12650
926.459	12810
926.566	12806
926.673	12696
926.779	12528
926.886	12506
926.993	12391
927.099	12395
927.206	12300
927.312	12353
927.419	12365
927.525	12464
927.631	12346
927.737	12239
927.843	12266
927.95	12148
928.056	12220
928.162	12216
928.267	12220
928.373	12844
928.479	12235
928.585	12064
928.69	12190
928.796	12133
928.901	12019
929.007	11882
929.112	12034
929.218	12015
929.323	11973
929.428	11893
929.533	12057
929.638	11939
929.743	11859
929.848	11859
929.953	12015
930.058	11726
930.163	11627
930.267	11672
930.372	11775
930.477	11452
930.581	11821
930.685	11642
930.79	11455
930.894	11440
930.998	11474
931.103	11642
931.207	11185
931.311	11071
931.415	11128
931.519	10862
931.623	10873
