Data from test_V78500241_77.txt Node
Date: Fri Mar 25 15:10:23 CST 2022
User: usil
Spectrometer: V785-0024
Trigger mode: 0
Integration Time (sec): 4.000000E-1
Scans to average: 1
Nonlinearity correction enabled: false
Boxcar width: 0
Storing dark spectrum: false
XAxis mode: Wavelengths
Number of Pixels in Spectrum: 1024
>>>>>Begin Spectral Data<<<<<
801.071	28596
801.214	28565
801.356	28295
801.499	28280
801.641	28169
801.783	28105
801.926	28074
802.068	28074
802.211	27937
802.353	27956
802.496	27899
802.638	27778
802.78	27675
802.923	27644
803.065	27576
803.208	27713
803.35	27629
803.492	27781
803.635	27869
803.777	27705
803.919	27857
804.061	28116
804.204	27743
804.346	27648
804.488	27644
804.63	27766
804.773	27736
804.915	27705
805.057	27854
805.199	27770
805.341	27724
805.483	27838
805.626	27823
805.768	27945
805.91	27922
806.052	27823
806.194	27903
806.336	28093
806.478	27888
806.62	27899
806.762	28048
806.904	28154
807.046	28204
807.188	28306
807.33	28207
807.472	28200
807.614	27949
807.756	28192
807.898	28124
808.04	27953
808.182	27945
808.324	28025
808.465	28021
808.607	28166
808.749	28318
808.891	28333
809.033	28550
809.174	28375
809.316	28291
809.458	28401
809.6	28200
809.741	28337
809.883	28478
810.025	28485
810.166	28493
810.308	28527
810.45	28531
810.591	28580
810.733	28447
810.875	28074
811.016	28162
811.158	28322
811.299	28382
811.441	28318
811.582	28352
811.724	28287
811.865	28173
812.007	28234
812.148	28310
812.29	28409
812.431	28428
812.573	28527
812.714	28660
812.855	28820
812.997	28892
813.138	29052
813.279	28892
813.421	28793
813.562	28736
813.703	28462
813.845	28451
813.986	28242
814.127	28010
814.268	27930
814.41	27956
814.551	27800
814.692	27987
814.833	27800
814.974	27728
815.115	27869
815.256	27736
815.397	27713
815.539	27698
815.68	27564
815.821	27603
815.962	27648
816.103	27507
816.244	27561
816.385	27329
816.526	27496
816.666	27146
816.807	27024
816.948	26971
817.089	27154
817.23	26998
817.371	27039
817.512	27005
817.653	27085
817.793	26861
817.934	27127
818.075	26910
818.216	26979
818.356	26982
818.497	26960
818.638	26689
818.778	26853
818.919	26636
819.06	26773
819.2	26891
819.341	27001
819.481	27058
819.622	26937
819.762	27283
819.903	27116
820.043	27119
820.184	26990
820.324	27066
820.465	27043
820.605	26979
820.746	26990
820.886	26967
821.026	26906
821.167	27020
821.307	27024
821.447	26838
821.588	26739
821.728	26575
821.868	26564
822.008	26537
822.149	26343
822.289	26339
822.429	26142
822.569	26012
822.709	26005
822.849	25959
822.99	25864
823.13	25700
823.27	25651
823.41	25727
823.55	25479
823.69	25624
823.83	25696
823.97	25609
824.11	25430
824.25	25502
824.389	25457
824.529	25464
824.669	25244
824.809	25548
824.949	25586
825.089	25487
825.228	25514
825.368	25282
825.508	25168
825.648	25152
825.787	25137
825.927	25179
826.067	25160
826.206	25168
826.346	25270
826.485	25343
826.625	25244
826.765	25358
826.904	25076
827.044	25015
827.183	24791
827.323	24848
827.462	24859
827.601	24749
827.741	24661
827.88	24749
828.02	24753
828.159	24753
828.298	24852
828.437	24947
828.577	24825
828.716	25023
828.855	24776
828.994	24578
829.134	24574
829.273	24597
829.412	24601
829.551	24555
829.69	24505
829.829	24578
829.968	24555
830.107	24589
830.246	24551
830.385	24388
830.524	24372
830.663	24235
830.802	24091
830.941	24114
831.08	24201
831.219	24087
831.357	24083
831.496	24342
831.635	23973
831.774	24003
831.913	23916
832.051	23836
832.19	23821
832.329	23779
832.467	23863
832.606	23634
832.744	23627
832.883	23882
833.022	23680
833.16	23661
833.299	23771
833.437	23551
833.576	23794
833.714	23771
833.852	23790
833.991	23794
834.129	23786
834.267	23828
834.406	23699
834.544	23703
834.682	23729
834.821	23570
834.959	23897
835.097	23611
835.235	23760
835.373	23710
835.511	23646
835.65	23524
835.788	23600
835.926	23486
836.064	23341
836.202	23387
836.34	23471
836.478	23653
836.615	23596
836.753	23589
836.891	23505
837.029	23520
837.167	23467
837.305	23455
837.443	23395
837.58	23372
837.718	23383
837.856	23273
837.993	23334
838.131	23345
838.269	23334
838.406	23124
838.544	23193
838.681	22972
838.819	22961
838.956	22835
839.094	22793
839.231	22816
839.369	22930
839.506	23094
839.643	23102
839.781	22824
839.918	22698
840.055	22854
840.193	22645
840.33	22691
840.467	22603
840.604	22721
840.742	22885
840.879	22462
841.016	22596
841.153	22546
841.29	22778
841.427	22694
841.564	22675
841.701	22618
841.838	22546
841.975	22569
842.112	22531
842.249	22481
842.385	22329
842.522	22584
842.659	22428
842.796	22337
842.933	22375
843.069	22337
843.206	22295
843.343	22424
843.479	22249
843.616	22303
843.752	22128
843.889	22086
844.025	22158
844.162	22032
844.298	22109
844.435	22010
844.571	22109
844.708	22040
844.844	22261
844.98	22287
845.117	22162
845.253	22036
845.389	22116
845.525	21968
845.661	22055
845.798	21728
845.934	21983
846.07	21854
846.206	21793
846.342	21960
846.478	21762
846.614	21591
846.75	21496
846.886	21580
847.022	21682
847.158	21530
847.294	21473
847.429	21473
847.565	21443
847.701	21759
847.837	21268
847.972	21268
848.108	21348
848.244	21302
848.379	21222
848.515	21142
848.65	21074
848.786	21275
848.921	21112
849.057	21207
849.192	21146
849.328	21085
849.463	21249
849.598	21131
849.734	21066
849.869	20979
850.004	20868
850.14	20880
850.275	20796
850.41	20689
850.545	20815
850.68	20838
850.815	20853
850.95	20807
851.085	20929
851.22	20830
851.355	20804
851.49	20727
851.625	20739
851.76	20739
851.895	20640
852.03	20796
852.165	20765
852.299	20815
852.434	20864
852.569	20807
852.703	20758
852.838	20754
852.973	20891
853.107	20876
853.242	20807
853.376	20735
853.511	20480
853.645	20556
853.78	20804
853.914	20579
854.048	20552
854.183	20575
854.317	20613
854.451	20716
854.585	20636
854.72	20598
854.854	20648
854.988	20465
855.122	20689
855.256	20446
855.39	20575
855.524	20655
855.658	20552
855.792	20598
855.926	20613
856.06	20598
856.194	20609
856.327	20598
856.461	20663
856.595	20571
856.729	20617
856.862	20746
856.996	20541
857.13	20545
857.263	20670
857.397	20640
857.53	20617
857.664	20648
857.797	20571
857.931	20670
858.064	20598
858.197	20663
858.331	20552
858.464	20503
858.597	20465
858.731	20484
858.864	20693
858.997	20526
859.13	20556
859.263	20499
859.396	20556
859.529	20499
859.662	20507
859.795	20549
859.928	20568
860.061	20655
860.194	20693
860.327	20514
860.46	20545
860.592	20727
860.725	20678
860.858	20613
860.99	20507
861.123	20355
861.256	20594
861.388	20503
861.521	21272
861.653	20393
861.786	20457
861.918	20393
862.05	20609
862.183	20507
862.315	20495
862.447	20613
862.58	20473
862.712	20259
862.844	20240
862.976	20347
863.108	20362
863.24	20746
863.372	20229
863.504	20183
863.636	20210
863.768	20339
863.9	20221
864.032	20096
864.164	20229
864.296	20294
864.428	20377
864.559	20256
864.691	20313
864.823	20256
864.954	20183
865.086	20290
865.217	20259
865.349	20024
865.48	20149
865.612	20206
865.743	20358
865.875	20218
866.006	20050
866.137	20081
866.269	19997
866.4	20134
866.531	20054
866.662	20176
866.793	19940
866.924	20046
867.055	20084
867.186	19963
867.317	20031
867.448	20001
867.579	20077
867.71	20016
867.841	19951
867.972	20058
868.103	20065
868.233	19925
868.364	20081
868.495	20225
868.625	20271
868.756	20336
868.886	20138
869.017	20256
869.147	20389
869.278	20408
869.408	20313
869.539	20183
869.669	20320
869.799	20324
869.929	20396
870.06	20404
870.19	20590
870.32	20636
870.45	20682
870.58	20762
870.71	20777
870.84	20765
870.97	20720
871.1	20762
871.23	20838
871.36	20960
871.489	20804
871.619	20781
871.749	20944
871.879	20891
872.008	21173
872.138	20876
872.267	20792
872.397	20746
872.526	20693
872.656	20697
872.785	20754
872.915	20918
873.044	20925
873.173	20754
873.303	20982
873.432	21028
873.561	21074
873.69	20910
873.819	20864
873.948	21013
874.077	20994
874.206	20967
874.335	20910
874.464	21013
874.593	21123
874.722	21123
874.851	21214
874.979	21077
875.108	21336
875.237	21089
875.365	20994
875.494	21127
875.623	21245
875.751	21169
875.88	21207
876.008	21241
876.136	21340
876.265	21534
876.393	21591
876.521	21523
876.65	21618
876.778	21488
876.906	21428
877.034	21477
877.162	21583
877.29	21485
877.418	21504
877.546	21428
877.674	21473
877.802	21591
877.93	21477
878.058	21389
878.185	21306
878.313	21458
878.441	21504
878.568	21264
878.696	21435
878.824	21485
878.951	21519
879.079	21644
879.206	21850
879.333	21652
879.461	21545
879.588	21557
879.715	21652
879.842	21808
879.97	21629
880.097	21359
880.224	21268
880.351	21370
880.478	21237
880.605	21211
880.732	21287
880.859	21606
880.986	21344
881.112	21355
881.239	21161
881.366	21055
881.493	21043
881.619	20872
881.746	20887
881.872	20811
881.999	20819
882.125	20769
882.252	20895
882.378	20750
882.505	21138
882.631	20811
882.757	20701
882.883	20750
883.01	20575
883.136	20644
883.262	20522
883.388	20499
883.514	20686
883.64	20629
883.766	20495
883.892	20545
884.018	20640
884.143	20724
884.269	20587
884.395	20298
884.52	20317
884.646	20278
884.772	20442
884.897	20221
885.023	20317
885.148	20381
885.274	20415
885.399	20290
885.524	20286
885.65	20229
885.775	20423
885.9	20355
886.025	20408
886.15	20362
886.275	20278
886.4	20252
886.525	20259
886.65	20199
886.775	20142
886.9	20381
887.025	20400
887.149	20237
887.274	20046
887.399	20027
887.523	20138
887.648	19921
887.773	19963
887.897	20031
888.021	20016
888.146	19936
888.27	20088
888.395	20168
888.519	20130
888.643	19951
888.767	20096
888.891	19959
889.015	19807
889.139	19917
889.263	19814
889.387	19917
889.511	20005
889.635	19883
889.759	19830
889.883	19887
890.006	19951
890.13	20027
890.254	19750
890.377	19738
890.501	19651
890.624	19472
890.748	19715
890.871	19487
890.995	19411
891.118	19301
891.241	19525
891.364	19331
891.488	19464
891.611	19381
891.734	19419
891.857	19426
891.98	19426
892.103	19453
892.226	19308
892.349	19419
892.471	19278
892.594	19339
892.717	19278
892.839	19392
892.962	19381
893.085	19327
893.207	19403
893.33	19255
893.452	19285
893.575	19434
893.697	19400
893.819	19533
893.941	19609
894.064	19365
894.186	19285
894.308	19190
894.43	19445
894.552	19320
894.674	19521
894.796	19335
894.918	19354
895.04	19346
895.161	19411
895.283	19320
895.405	19270
895.526	19324
895.648	19320
895.769	19381
895.891	19377
896.012	19441
896.134	19472
896.255	19468
896.376	19285
896.498	19335
896.619	19495
896.74	19377
896.861	19521
896.982	19708
897.103	19890
897.224	19791
897.345	19696
897.466	19529
897.587	19590
897.708	19609
897.828	19750
897.949	19483
898.07	19388
898.19	19556
898.311	19666
898.431	19594
898.552	19556
898.672	19613
898.792	19677
898.913	19613
899.033	19457
899.153	19392
899.273	19221
899.393	19285
899.513	19358
899.633	19354
899.753	19198
899.873	19213
899.993	19324
900.113	19175
900.232	19278
900.352	19263
900.472	19236
900.591	19080
900.711	19164
900.83	19046
900.95	19217
901.069	19194
901.189	19038
901.308	18821
901.427	18741
901.546	18623
901.665	18768
901.784	18825
901.904	18532
902.023	18456
902.141	18247
902.26	18228
902.379	18308
902.498	18220
902.617	18159
902.735	18201
902.854	18277
902.973	18178
903.091	17805
903.21	17878
903.328	17752
903.446	17710
903.565	17798
903.683	17703
903.801	17547
903.919	17615
904.038	17661
904.156	17558
904.274	17577
904.392	17440
904.51	17505
904.627	17406
904.745	17532
904.863	17448
904.981	17250
905.098	17162
905.216	17124
905.334	17200
905.451	17189
905.569	17006
905.686	17166
905.803	17105
905.921	16923
906.038	17083
906.155	16930
906.272	16774
906.389	16900
906.506	16698
906.623	16748
906.74	16702
906.857	16508
906.974	16599
907.091	16733
907.208	16752
907.324	16729
907.441	16584
907.557	16333
907.674	16375
907.79	16379
907.907	16341
908.023	16386
908.139	16303
908.256	16382
908.372	16284
908.488	16207
908.604	16059
908.72	16055
908.836	16128
908.952	16044
909.068	15895
909.184	16109
909.3	15987
909.415	16025
909.531	15975
909.647	15793
909.762	15842
909.878	15667
909.993	15781
910.108	15663
910.224	15709
910.339	15751
910.454	15553
910.57	15564
910.685	15382
910.8	15713
910.915	15705
911.03	15580
911.145	15439
911.259	15355
911.374	15268
911.489	15287
911.604	15138
911.718	15074
911.833	15127
911.947	14994
912.062	14937
912.176	15108
912.291	15119
912.405	15032
912.519	15249
912.633	15252
912.748	15116
912.862	15085
912.976	14982
913.09	14800
913.204	14853
913.318	14902
913.431	14921
913.545	14925
913.659	14994
913.772	14849
913.886	14708
914	14613
914.113	14765
914.226	14823
914.34	14739
914.453	14602
914.566	14785
914.68	14571
914.793	14526
914.906	14408
915.019	14374
915.132	14229
915.245	14381
915.358	14385
915.47	14317
915.583	14427
915.696	14389
915.809	14461
915.921	14434
916.034	14358
916.146	14282
916.259	14191
916.371	14419
916.483	14275
916.595	14259
916.708	14275
916.82	14252
916.932	14202
917.044	14123
917.156	14115
917.268	14084
917.38	14012
917.491	13989
917.603	13959
917.715	14050
917.826	14035
917.938	14001
918.049	13757
918.161	13982
918.272	14016
918.384	14065
918.495	13959
918.606	13833
918.717	13620
918.828	13818
918.939	13772
919.05	13685
919.161	13742
919.272	13567
919.383	13624
919.494	13750
919.604	13860
919.715	13757
919.826	13601
919.936	13712
920.047	13864
920.157	13765
920.267	13932
920.378	13795
920.488	13719
920.598	13883
920.708	14035
920.818	13868
920.928	13864
921.038	13974
921.148	14043
921.258	13670
921.368	13643
921.477	13369
921.587	13525
921.697	13396
921.806	13449
921.916	13316
922.025	13297
922.134	13149
922.244	13061
922.353	13206
922.462	12985
922.571	12924
922.68	12821
922.789	12703
922.898	12707
923.007	12658
923.116	12787
923.224	12715
923.333	12604
923.442	12589
923.55	12540
923.659	12589
923.767	12574
923.876	12525
923.984	12566
924.092	12475
924.201	12517
924.309	12464
924.417	12540
924.525	12566
924.633	12506
924.741	13110
924.849	12254
924.956	12376
925.064	12148
925.172	12239
925.279	12148
925.387	12270
925.494	12190
925.602	12327
925.709	12311
925.816	12133
925.924	12129
926.031	12369
926.138	12197
926.245	12095
926.352	12079
926.459	12258
926.566	12224
926.673	12091
926.779	11999
926.886	12026
926.993	11790
927.099	11813
927.206	11779
927.312	11771
927.419	11824
927.525	11703
927.631	11824
927.737	11722
927.843	11657
927.95	11482
928.056	11661
928.162	11615
928.267	11653
928.373	12224
928.479	11710
928.585	11421
928.69	11581
928.796	11726
928.901	11604
929.007	11292
929.112	11551
929.218	11463
929.323	11490
929.428	11330
929.533	11535
929.638	11334
929.743	11246
929.848	11410
929.953	11372
930.058	11265
930.163	11086
930.267	11102
930.372	11181
930.477	10953
930.581	11318
930.685	11045
930.79	10946
930.894	11037
930.998	10938
931.103	10995
931.207	10706
931.311	10637
931.415	10535
931.519	10352
931.623	10337
