Data from test_V78500241_632.txt Node
Date: Fri Mar 25 15:14:15 CST 2022
User: usil
Spectrometer: V785-0024
Trigger mode: 0
Integration Time (sec): 4.000000E-1
Scans to average: 1
Nonlinearity correction enabled: false
Boxcar width: 0
Storing dark spectrum: false
XAxis mode: Wavelengths
Number of Pixels in Spectrum: 1024
>>>>>Begin Spectral Data<<<<<
801.071	27709
801.214	27568
801.356	27359
801.499	27192
801.641	27192
801.783	27226
801.926	27245
802.068	27112
802.211	27154
802.353	27017
802.496	26868
802.638	26807
802.78	26765
802.923	26823
803.065	26678
803.208	26655
803.35	26815
803.492	27013
803.635	27066
803.777	26967
803.919	26971
804.061	27230
804.204	27017
804.346	26956
804.488	26933
804.63	26937
804.773	26807
804.915	27055
805.057	27222
805.199	26979
805.341	27241
805.483	27214
805.626	27154
805.768	27013
805.91	27100
806.052	27169
806.194	27108
806.336	27256
806.478	27359
806.62	27157
806.762	27279
806.904	27431
807.046	27622
807.188	27477
807.33	27656
807.472	27667
807.614	27511
807.756	27488
807.898	27355
808.04	27420
808.182	27298
808.324	27534
808.465	27466
808.607	27580
808.749	27739
808.891	27785
809.033	27880
809.174	27857
809.316	27857
809.458	27762
809.6	27816
809.741	27975
809.883	27895
810.025	28150
810.166	28093
810.308	27991
810.45	28029
810.591	27991
810.733	27842
810.875	27846
811.016	27774
811.158	27701
811.299	27918
811.441	27945
811.582	27994
811.724	27842
811.865	27675
812.007	27797
812.148	27819
812.29	27838
812.431	27922
812.573	28173
812.714	28204
812.855	28360
812.997	28440
813.138	28527
813.279	28535
813.421	28371
813.562	28192
813.703	28223
813.845	28112
813.986	27755
814.127	27538
814.268	27538
814.41	27386
814.551	27306
814.692	27405
814.833	27363
814.974	27481
815.115	27500
815.256	27412
815.397	27344
815.539	27291
815.68	27355
815.821	27157
815.962	27279
816.103	27230
816.244	27051
816.385	27138
816.526	27127
816.666	26960
816.807	26754
816.948	26975
817.089	26868
817.23	26800
817.371	26712
817.512	26849
817.653	26804
817.793	26724
817.934	26811
818.075	26830
818.216	26804
818.356	26617
818.497	26731
818.638	26480
818.778	26549
818.919	26492
819.06	26408
819.2	26682
819.341	26861
819.481	26754
819.622	26895
819.762	27195
819.903	27085
820.043	26925
820.184	26861
820.324	26899
820.465	26986
820.605	26876
820.746	26933
820.886	26689
821.026	26857
821.167	26708
821.307	26883
821.447	26826
821.588	26689
821.728	26609
821.868	26313
822.008	26324
822.149	26187
822.289	26240
822.429	26119
822.569	25841
822.709	25871
822.849	25674
822.99	25772
823.13	25772
823.27	25540
823.41	25476
823.55	25529
823.69	25430
823.83	25495
823.97	25415
824.11	25343
824.25	25324
824.389	25346
824.529	25472
824.669	25381
824.809	25457
824.949	25556
825.089	25464
825.228	25331
825.368	25175
825.508	25301
825.648	25213
825.787	25354
825.927	25198
826.067	25244
826.206	25160
826.346	25346
826.485	25217
826.625	25251
826.765	25422
826.904	25316
827.044	25091
827.183	25091
827.323	24943
827.462	24916
827.601	24939
827.741	25038
827.88	25004
828.02	24711
828.159	24840
828.298	24821
828.437	25091
828.577	24913
828.716	25023
828.855	24829
828.994	24658
829.134	24806
829.273	24684
829.412	24582
829.551	24616
829.69	24494
829.829	24696
829.968	24715
830.107	24711
830.246	24707
830.385	24696
830.524	24471
830.663	24471
830.802	24216
830.941	24171
831.08	24300
831.219	24369
831.357	24426
831.496	24445
831.635	24239
831.774	24190
831.913	24144
832.051	24038
832.19	23984
832.329	24190
832.467	24003
832.606	23885
832.744	23996
832.883	24049
833.022	23954
833.16	23935
833.299	24041
833.437	23977
833.576	23980
833.714	24041
833.852	24083
833.991	23996
834.129	24072
834.267	24136
834.406	23984
834.544	24098
834.682	23931
834.821	23904
834.959	24152
835.097	23958
835.235	24060
835.373	24068
835.511	24072
835.65	23942
835.788	23779
835.926	23760
836.064	23570
836.202	23691
836.34	23832
836.478	23897
836.615	23832
836.753	23923
836.891	23866
837.029	23859
837.167	23794
837.305	23794
837.443	23756
837.58	23802
837.718	23832
837.856	23707
837.993	23691
838.131	23672
838.269	23516
838.406	23634
838.544	23402
838.681	23311
838.819	23341
838.956	23155
839.094	22999
839.231	23197
839.369	23353
839.506	23528
839.643	23383
839.781	23197
839.918	23140
840.055	23128
840.193	23159
840.33	23117
840.467	23048
840.604	23185
840.742	23410
840.879	22896
841.016	23075
841.153	22976
841.29	23109
841.427	23136
841.564	23189
841.701	23083
841.838	22915
841.975	22927
842.112	23018
842.249	22858
842.385	22862
842.522	22949
842.659	22847
842.796	22793
842.933	22904
843.069	22877
843.206	22774
843.343	22911
843.479	22744
843.616	22801
843.752	22706
843.889	22584
844.025	22752
844.162	22481
844.298	22725
844.435	22538
844.571	22664
844.708	22725
844.844	22607
844.98	22812
845.117	22679
845.253	22592
845.389	22550
845.525	22474
845.661	22489
845.798	22367
845.934	22554
846.07	22341
846.206	22341
846.342	22466
846.478	22322
846.614	22082
846.75	21987
846.886	22036
847.022	22276
847.158	22185
847.294	22025
847.429	22185
847.565	22029
847.701	22265
847.837	21743
847.972	21698
848.108	21884
848.244	21865
848.379	21766
848.515	21789
848.65	21625
848.786	21660
848.921	21614
849.057	21808
849.192	21827
849.328	21622
849.463	21622
849.598	21580
849.734	21485
849.869	21477
850.004	21431
850.14	21492
850.275	21507
850.41	21344
850.545	21431
850.68	21401
850.815	21553
850.95	21386
851.085	21557
851.22	21496
851.355	21488
851.49	21359
851.625	21397
851.76	21443
851.895	21275
852.03	21279
852.165	21378
852.299	21370
852.434	21405
852.569	21511
852.703	21431
852.838	21450
852.973	21534
853.107	21488
853.242	21435
853.376	21302
853.511	21176
853.645	21108
853.78	21351
853.914	21283
854.048	21325
854.183	21222
854.317	21245
854.451	21329
854.585	21249
854.72	21256
854.854	21283
854.988	21203
855.122	21287
855.256	21131
855.39	21241
855.524	21317
855.658	21329
855.792	21287
855.926	21340
856.06	21443
856.194	21344
856.327	21203
856.461	21268
856.595	21085
856.729	21310
856.862	21382
856.996	21275
857.13	21397
857.263	21298
857.397	21233
857.53	21199
857.664	21268
857.797	21302
857.931	21466
858.064	21203
858.197	21382
858.331	21230
858.464	21146
858.597	21089
858.731	21241
858.864	21108
858.997	21199
859.13	21150
859.263	21260
859.396	21317
859.529	21180
859.662	21249
859.795	21161
859.928	21283
860.061	21408
860.194	21496
860.327	21359
860.46	21237
860.592	21355
860.725	21325
860.858	21226
860.99	21325
861.123	21199
861.256	21222
861.388	21264
861.521	21964
861.653	21055
861.786	21001
861.918	21112
862.05	21188
862.183	21218
862.315	21169
862.447	21176
862.58	21081
862.712	20948
862.844	20918
862.976	21077
863.108	20990
863.24	21587
863.372	20902
863.504	20998
863.636	20925
863.768	20929
863.9	20944
864.032	20952
864.164	20952
864.296	21047
864.428	21020
864.559	21051
864.691	21001
864.823	20861
864.954	20910
865.086	20986
865.217	20891
865.349	20830
865.48	20872
865.612	20914
865.743	20975
865.875	20998
866.006	20807
866.137	20971
866.269	20807
866.4	20929
866.531	20849
866.662	20754
866.793	20800
866.924	20769
867.055	20830
867.186	20864
867.317	20807
867.448	20823
867.579	20785
867.71	20735
867.841	20625
867.972	20914
868.103	20762
868.233	20788
868.364	20807
868.495	20921
868.625	21081
868.756	21142
868.886	20967
869.017	21093
869.147	21268
869.278	21127
869.408	21066
869.539	21085
869.669	21184
869.799	21100
869.929	21226
870.06	21138
870.19	21447
870.32	21298
870.45	21447
870.58	21549
870.71	21545
870.84	21530
870.97	21469
871.1	21492
871.23	21656
871.36	21713
871.489	21595
871.619	21606
871.749	21652
871.879	21656
872.008	21717
872.138	21534
872.267	21656
872.397	21606
872.526	21473
872.656	21561
872.785	21534
872.915	21675
873.044	21766
873.173	21717
873.303	21770
873.432	21785
873.561	21743
873.69	21728
873.819	21622
873.948	21713
874.077	21850
874.206	21713
874.335	21736
874.464	21774
874.593	21937
874.722	21926
874.851	21884
874.979	21884
875.108	21915
875.237	21831
875.365	21888
875.494	21991
875.623	22002
875.751	21835
875.88	22010
876.008	22067
876.136	22120
876.265	22287
876.393	22386
876.521	22265
876.65	22333
876.778	22341
876.906	22158
877.034	22242
877.162	22226
877.29	22226
877.418	22268
877.546	22291
877.674	22219
877.802	22287
877.93	22325
878.058	22249
878.185	22006
878.313	22246
878.441	22287
878.568	22059
878.696	22124
878.824	22344
878.951	22390
879.079	22413
879.206	22626
879.333	22497
879.461	22295
879.588	22303
879.715	22481
879.842	22462
879.97	22261
880.097	22207
880.224	22055
880.351	22097
880.478	22021
880.605	22048
880.732	22112
880.859	22200
880.986	22139
881.112	22048
881.239	21991
881.366	21876
881.493	21717
881.619	21580
881.746	21580
881.872	21682
881.999	21728
882.125	21526
882.252	21633
882.378	21648
882.505	21846
882.631	21500
882.757	21378
882.883	21443
883.01	21370
883.136	21302
883.262	21291
883.388	21260
883.514	21302
883.64	21462
883.766	21165
883.892	21188
884.018	21173
884.143	21310
884.269	21317
884.395	21024
884.52	20906
884.646	21020
884.772	20876
884.897	20918
885.023	21058
885.148	21150
885.274	21245
885.399	21165
885.524	20925
885.65	21024
885.775	20929
885.9	20902
886.025	21039
886.15	21055
886.275	20975
886.4	20956
886.525	20895
886.65	20838
886.775	20849
886.9	21112
887.025	21096
887.149	20975
887.274	20716
887.399	20815
887.523	20857
887.648	20830
887.773	20689
887.897	20777
888.021	20838
888.146	20625
888.27	20872
888.395	20994
888.519	20883
888.643	20853
888.767	20792
888.891	20640
889.015	20590
889.139	20609
889.263	20613
889.387	20686
889.511	20754
889.635	20682
889.759	20575
889.883	20507
890.006	20583
890.13	20629
890.254	20480
890.377	20393
890.501	20358
890.624	20240
890.748	20355
890.871	20233
890.995	20180
891.118	20142
891.241	20062
891.364	20187
891.488	20339
891.611	20149
891.734	20195
891.857	20244
891.98	20043
892.103	20237
892.226	20088
892.349	20054
892.471	19887
892.594	20168
892.717	20161
892.839	20069
892.962	20073
893.085	20103
893.207	19978
893.33	19947
893.452	19947
893.575	20035
893.697	20046
893.819	20092
893.941	20180
894.064	20081
894.186	20001
894.308	20008
894.43	20100
894.552	20229
894.674	20111
894.796	20016
894.918	19906
895.04	20096
895.161	20168
895.283	20050
895.405	19932
895.526	20054
895.648	20005
895.769	20050
895.891	20008
896.012	20149
896.134	20084
896.255	20088
896.376	19997
896.498	19921
896.619	20073
896.74	20069
896.861	20153
896.982	20434
897.103	20461
897.224	20282
897.345	20172
897.466	20206
897.587	20195
897.708	20415
897.828	20332
897.949	20267
898.07	20050
898.19	20183
898.311	20374
898.431	20176
898.552	20313
898.672	20385
898.792	20309
898.913	20271
899.033	20130
899.153	20081
899.273	20008
899.393	20031
899.513	19947
899.633	20050
899.753	19894
899.873	19963
899.993	20119
900.113	20035
900.232	20027
900.352	19909
900.472	19791
900.591	19674
900.711	19788
900.83	19769
900.95	19852
901.069	19902
901.189	19761
901.308	19460
901.427	19358
901.546	19403
901.665	19381
901.784	19316
901.904	19327
902.023	19122
902.141	18935
902.26	18966
902.379	18989
902.498	18878
902.617	18920
902.735	18993
902.854	18821
902.973	18734
903.091	18589
903.21	18525
903.328	18593
903.446	18620
903.565	18285
903.683	18308
903.801	18251
903.919	18190
904.038	18346
904.156	18186
904.274	18197
904.392	18194
904.51	18106
904.627	18201
904.745	18171
904.863	18133
904.981	17897
905.098	17836
905.216	17813
905.334	17824
905.451	17832
905.569	17627
905.686	17802
905.803	17847
905.921	17554
906.038	17718
906.155	17642
906.272	17478
906.389	17478
906.506	17395
906.623	17414
906.74	17372
906.857	17200
906.974	17284
907.091	17436
907.208	17528
907.324	17414
907.441	17242
907.557	17102
907.674	17014
907.79	16946
907.907	16995
908.023	17109
908.139	16953
908.256	16881
908.372	16957
908.488	16965
908.604	16873
908.72	16816
908.836	16744
908.952	16733
909.068	16843
909.184	16881
909.3	16755
909.415	16828
909.531	16774
909.647	16497
909.762	16436
909.878	16417
909.993	16466
910.108	16443
910.224	16371
910.339	16523
910.454	16314
910.57	16352
910.685	16181
910.8	16542
910.915	16417
911.03	16318
911.145	16105
911.259	16036
911.374	16173
911.489	15941
911.604	16051
911.718	15827
911.833	15728
911.947	15739
912.062	15660
912.176	15789
912.291	15770
912.405	15770
912.519	15926
912.633	15922
912.748	15892
912.862	15816
912.976	15663
913.09	15584
913.204	15572
913.318	15625
913.431	15656
913.545	15785
913.659	15892
913.772	15618
913.886	15500
914	15355
914.113	15568
914.226	15580
914.34	15557
914.453	15348
914.566	15405
914.68	15336
914.793	15291
914.906	15165
915.019	15036
915.132	14918
915.245	15062
915.358	15032
915.47	15036
915.583	15013
915.696	15097
915.809	15222
915.921	15131
916.034	15032
916.146	14849
916.259	14883
916.371	15062
916.483	15001
916.595	14910
916.708	14876
916.82	14925
916.932	14823
917.044	14845
917.156	14868
917.268	14644
917.38	14872
917.491	14758
917.603	14674
917.715	14762
917.826	14773
917.938	14651
918.049	14514
918.161	14564
918.272	14788
918.384	14678
918.495	14613
918.606	14461
918.717	14473
918.828	14473
918.939	14518
919.05	14320
919.161	14511
919.272	14282
919.383	14343
919.494	14480
919.604	14621
919.715	14537
919.826	14347
919.936	14381
920.047	14575
920.157	14362
920.267	14610
920.378	14552
920.488	14434
920.598	14613
920.708	14621
920.818	14587
920.928	14545
921.038	14720
921.148	14689
921.258	14423
921.368	14248
921.477	14100
921.587	14107
921.697	14103
921.806	14065
921.916	13997
922.025	13936
922.134	13772
922.244	13734
922.353	13811
922.462	13765
922.571	13605
922.68	13571
922.789	13495
922.898	13487
923.007	13365
923.116	13544
923.224	13453
923.333	13388
923.442	13312
923.55	13236
923.659	13377
923.767	13422
923.876	13240
923.984	13259
924.092	13194
924.201	13232
924.309	13228
924.417	13270
924.525	13156
924.633	13206
924.741	13917
924.849	12909
924.956	13133
925.064	12875
925.172	12817
925.279	12863
925.387	12981
925.494	12848
925.602	13038
925.709	12901
925.816	12757
925.924	12897
926.031	12886
926.138	12817
926.245	12852
926.352	12700
926.459	12833
926.566	12913
926.673	12764
926.779	12623
926.886	12585
926.993	12502
927.099	12452
927.206	12338
927.312	12437
927.419	12467
927.525	12391
927.631	12513
927.737	12315
927.843	12334
927.95	12213
928.056	12273
928.162	12247
928.267	12243
928.373	12852
928.479	12350
928.585	12140
928.69	12182
928.796	12228
928.901	12129
929.007	11969
929.112	12098
929.218	12114
929.323	12041
929.428	12007
929.533	12110
929.638	11923
929.743	11901
929.848	12083
929.953	11980
930.058	11832
930.163	11726
930.267	11733
930.372	11843
930.477	11596
930.581	11847
930.685	11748
930.79	11661
930.894	11619
930.998	11512
931.103	11676
931.207	11364
931.311	11239
931.415	11121
931.519	10976
931.623	11010
