Data from test_V78500241_2105.txt Node
Date: Fri Mar 25 15:24:30 CST 2022
User: usil
Spectrometer: V785-0024
Trigger mode: 0
Integration Time (sec): 4.000000E-1
Scans to average: 1
Nonlinearity correction enabled: false
Boxcar width: 0
Storing dark spectrum: false
XAxis mode: Wavelengths
Number of Pixels in Spectrum: 1024
>>>>>Begin Spectral Data<<<<<
801.071	27968
801.214	27835
801.356	27762
801.499	27644
801.641	27504
801.783	27485
801.926	27545
802.068	27439
802.211	27340
802.353	27374
802.496	27287
802.638	27135
802.78	27146
802.923	27009
803.065	27131
803.208	26979
803.35	27142
803.492	27275
803.635	27382
803.777	27207
803.919	27275
804.061	27526
804.204	27367
804.346	27291
804.488	27142
804.63	27344
804.773	27317
804.915	27294
805.057	27382
805.199	27203
805.341	27279
805.483	27557
805.626	27450
805.768	27332
805.91	27348
806.052	27507
806.194	27397
806.336	27610
806.478	27469
806.62	27473
806.762	27580
806.904	27591
807.046	27857
807.188	27816
807.33	27922
807.472	27755
807.614	27907
807.756	27766
807.898	27770
808.04	27599
808.182	27675
808.324	27637
808.465	27827
808.607	27991
808.749	28154
808.891	28188
809.033	28124
809.174	28112
809.316	28139
809.458	28097
809.6	27960
809.741	28135
809.883	28253
810.025	28360
810.166	28287
810.308	28257
810.45	28299
810.591	28261
810.733	28055
810.875	28219
811.016	27975
811.158	27968
811.299	28112
811.441	28185
811.582	28070
811.724	28112
811.865	27998
812.007	28040
812.148	28017
812.29	28101
812.431	28128
812.573	28405
812.714	28497
812.855	28656
812.997	28752
813.138	28805
813.279	28679
813.421	28565
813.562	28508
813.703	28322
813.845	28322
813.986	27953
814.127	27975
814.268	27823
814.41	27800
814.551	27778
814.692	27812
814.833	27614
814.974	27614
815.115	27686
815.256	27580
815.397	27690
815.539	27583
815.68	27568
815.821	27401
815.962	27561
816.103	27466
816.244	27511
816.385	27363
816.526	27256
816.666	27074
816.807	27036
816.948	27131
817.089	27199
817.23	27066
817.371	26883
817.512	27108
817.653	27013
817.793	26967
817.934	27024
818.075	26914
818.216	26906
818.356	27051
818.497	26731
818.638	26792
818.778	26735
818.919	26750
819.06	26746
819.2	26929
819.341	26990
819.481	26910
819.622	27108
819.762	27256
819.903	27291
820.043	27230
820.184	27146
820.324	27089
820.465	27135
820.605	27131
820.746	27013
820.886	26937
821.026	27142
821.167	26967
821.307	27066
821.447	26910
821.588	26834
821.728	26746
821.868	26693
822.008	26492
822.149	26457
822.289	26507
822.429	26259
822.569	26214
822.709	26153
822.849	26058
822.99	26024
823.13	25978
823.27	25966
823.41	25769
823.55	25693
823.69	25883
823.83	25830
823.97	25814
824.11	25590
824.25	25521
824.389	25495
824.529	25689
824.669	25540
824.809	25715
824.949	25712
825.089	25738
825.228	25677
825.368	25506
825.508	25544
825.648	25548
825.787	25575
825.927	25529
826.067	25411
826.206	25453
826.346	25540
826.485	25476
826.625	25510
826.765	25582
826.904	25628
827.044	25308
827.183	25285
827.323	25240
827.462	25381
827.601	25228
827.741	25346
827.88	25266
828.02	25156
828.159	25251
828.298	25209
828.437	25369
828.577	25057
828.716	25213
828.855	25000
828.994	24856
829.134	24867
829.273	25050
829.412	24973
829.551	24791
829.69	24954
829.829	25000
829.968	25000
830.107	24996
830.246	24871
830.385	24760
830.524	24825
830.663	24730
830.802	24551
830.941	24505
831.08	24403
831.219	24593
831.357	24521
831.496	24700
831.635	24665
831.774	24521
831.913	24433
832.051	24304
832.19	24174
832.329	24372
832.467	24220
832.606	24098
832.744	24079
832.883	24091
833.022	24190
833.16	24163
833.299	24235
833.437	24327
833.576	24213
833.714	24251
833.852	24414
833.991	24300
834.129	24247
834.267	24197
834.406	24220
834.544	24285
834.682	24171
834.821	24262
834.959	24536
835.097	24315
835.235	24315
835.373	24205
835.511	24182
835.65	24144
835.788	23927
835.926	23988
836.064	23878
836.202	23756
836.34	24121
836.478	24197
836.615	24064
836.753	24125
836.891	24129
837.029	24026
837.167	23935
837.305	23969
837.443	23942
837.58	23901
837.718	23859
837.856	23893
837.993	23821
838.131	23843
838.269	23783
838.406	23863
838.544	23817
838.681	23440
838.819	23585
838.956	23265
839.094	23402
839.231	23455
839.369	23410
839.506	23836
839.643	23592
839.781	23433
839.918	23280
840.055	23398
840.193	23402
840.33	23223
840.467	23334
840.604	23311
840.742	23596
840.879	23178
841.016	23231
841.153	23280
841.29	23239
841.427	23254
841.564	23284
841.701	23223
841.838	23220
841.975	23113
842.112	23143
842.249	23010
842.385	22976
842.522	23193
842.659	23037
842.796	23033
842.933	23132
843.069	23048
843.206	23022
843.343	23174
843.479	23094
843.616	23014
843.752	22850
843.889	22729
844.025	22938
844.162	22976
844.298	22866
844.435	22896
844.571	22759
844.708	22885
844.844	22938
844.98	22873
845.117	22885
845.253	22729
845.389	22729
845.525	22702
845.661	22615
845.798	22565
845.934	22546
846.07	22527
846.206	22554
846.342	22649
846.478	22596
846.614	22379
846.75	22329
846.886	22257
847.022	22337
847.158	22333
847.294	22318
847.429	22249
847.565	22310
847.701	22440
847.837	22040
847.972	21922
848.108	21991
848.244	22021
848.379	21903
848.515	21774
848.65	21907
848.786	21934
848.921	21915
849.057	22051
849.192	22074
849.328	21915
849.463	21869
849.598	21895
849.734	21751
849.869	21819
850.004	21644
850.14	21720
850.275	21762
850.41	21515
850.545	21610
850.68	21576
850.815	21679
850.95	21625
851.085	21759
851.22	21751
851.355	21717
851.49	21747
851.625	21599
851.76	21564
851.895	21458
852.03	21534
852.165	21580
852.299	21698
852.434	21679
852.569	21603
852.703	21720
852.838	21709
852.973	21755
853.107	21694
853.242	21614
853.376	21580
853.511	21443
853.645	21507
853.78	21633
853.914	21393
854.048	21443
854.183	21435
854.317	21458
854.451	21599
854.585	21519
854.72	21553
854.854	21614
854.988	21507
855.122	21485
855.256	21389
855.39	21439
855.524	21507
855.658	21496
855.792	21504
855.926	21530
856.06	21504
856.194	21481
856.327	21447
856.461	21416
856.595	21370
856.729	21435
856.862	21507
856.996	21443
857.13	21572
857.263	21606
857.397	21622
857.53	21435
857.664	21447
857.797	21443
857.931	21652
858.064	21454
858.197	21553
858.331	21408
858.464	21462
858.597	21351
858.731	21340
858.864	21435
858.997	21389
859.13	21367
859.263	21595
859.396	21526
859.529	21439
859.662	21416
859.795	21492
859.928	21496
860.061	21500
860.194	21660
860.327	21519
860.46	21568
860.592	21595
860.725	21781
860.858	21545
860.99	21633
861.123	21321
861.256	21359
861.388	21591
861.521	22135
861.653	21283
861.786	21180
861.918	21329
862.05	21313
862.183	21473
862.315	21359
862.447	21355
862.58	21443
862.712	21222
862.844	21180
862.976	21287
863.108	21268
863.24	21553
863.372	21108
863.504	21138
863.636	21241
863.768	21214
863.9	21226
864.032	21089
864.164	21150
864.296	21119
864.428	21275
864.559	21310
864.691	21142
864.823	21211
864.954	21199
865.086	21157
865.217	21116
865.349	21058
865.48	21024
865.612	21119
865.743	21169
865.875	21104
866.006	20975
866.137	21108
866.269	20956
866.4	21093
866.531	21001
866.662	20902
866.793	21116
866.924	20990
867.055	21001
867.186	20929
867.317	20910
867.448	20876
867.579	20933
867.71	20944
867.841	20960
867.972	20994
868.103	20986
868.233	20975
868.364	21005
868.495	21116
868.625	21249
868.756	21363
868.886	21233
869.017	21275
869.147	21306
869.278	21329
869.408	21313
869.539	21214
869.669	21264
869.799	21401
869.929	21443
870.06	21329
870.19	21526
870.32	21435
870.45	21644
870.58	21622
870.71	21671
870.84	21644
870.97	21793
871.1	21675
871.23	21762
871.36	21686
871.489	21747
871.619	21876
871.749	21816
871.879	21701
872.008	21941
872.138	21915
872.267	21743
872.397	21671
872.526	21633
872.656	21660
872.785	21766
872.915	21804
873.044	21998
873.173	21892
873.303	22036
873.432	21994
873.561	21983
873.69	21835
873.819	21922
873.948	21854
874.077	21873
874.206	21850
874.335	21892
874.464	21949
874.593	22105
874.722	22166
874.851	22173
874.979	22078
875.108	22135
875.237	22002
875.365	22006
875.494	22101
875.623	22135
875.751	22006
875.88	22029
876.008	22211
876.136	22325
876.265	22531
876.393	22649
876.521	22557
876.65	22497
876.778	22447
876.906	22379
877.034	22428
877.162	22405
877.29	22303
877.418	22405
877.546	22421
877.674	22508
877.802	22428
877.93	22417
878.058	22356
878.185	22219
878.313	22322
878.441	22405
878.568	22162
878.696	22310
878.824	22424
878.951	22470
879.079	22546
879.206	22778
879.333	22557
879.461	22500
879.588	22569
879.715	22493
879.842	22675
879.97	22455
880.097	22223
880.224	22337
880.351	22360
880.478	22234
880.605	22268
880.732	22363
880.859	22493
880.986	22287
881.112	22242
881.239	22131
881.366	21987
881.493	21953
881.619	21781
881.746	21892
881.872	21930
881.999	21861
882.125	21800
882.252	21888
882.378	21869
882.505	21895
882.631	21679
882.757	21583
882.883	21641
883.01	21523
883.136	21481
883.262	21420
883.388	21450
883.514	21583
883.64	21526
883.766	21370
883.892	21389
884.018	21317
884.143	21454
884.269	21530
884.395	21313
884.52	21119
884.646	21325
884.772	21047
884.897	21024
885.023	21184
885.148	21226
885.274	21283
885.399	21226
885.524	21169
885.65	21188
885.775	21252
885.9	21100
886.025	21252
886.15	21180
886.275	21074
886.4	21127
886.525	21085
886.65	21138
886.775	21055
886.9	21340
887.025	21405
887.149	21032
887.274	20853
887.399	20838
887.523	20960
887.648	20880
887.773	20861
887.897	21055
888.021	20994
888.146	20857
888.27	20975
888.395	21017
888.519	20872
888.643	20830
888.767	21043
888.891	20842
889.015	20530
889.139	20720
889.263	20682
889.387	20857
889.511	20845
889.635	20883
889.759	20819
889.883	20746
890.006	20682
890.13	20735
890.254	20655
890.377	20541
890.501	20438
890.624	20419
890.748	20533
890.871	20271
890.995	20305
891.118	20339
891.241	20366
891.364	20252
891.488	20317
891.611	20294
891.734	20275
891.857	20317
891.98	20374
892.103	20332
892.226	20199
892.349	20244
892.471	20058
892.594	20176
892.717	20191
892.839	20195
892.962	20240
893.085	20229
893.207	20221
893.33	20122
893.452	20001
893.575	20298
893.697	20233
893.819	20275
893.941	20332
894.064	20412
894.186	20100
894.308	20214
894.43	20404
894.552	20225
894.674	20218
894.796	20096
894.918	20145
895.04	20096
895.161	20313
895.283	20202
895.405	20088
895.526	20267
895.648	20153
895.769	20267
895.891	20259
896.012	20233
896.134	20271
896.255	20195
896.376	20195
896.498	20313
896.619	20355
896.74	20096
896.861	20301
896.982	20488
897.103	20530
897.224	20412
897.345	20423
897.466	20396
897.587	20396
897.708	20495
897.828	20480
897.949	20385
898.07	20317
898.19	20313
898.311	20446
898.431	20328
898.552	20473
898.672	20530
898.792	20404
898.913	20377
899.033	20259
899.153	20256
899.273	19982
899.393	20096
899.513	20115
899.633	20240
899.753	20301
899.873	20107
899.993	20157
900.113	20111
900.232	20191
900.352	20168
900.472	19883
900.591	19909
900.711	19917
900.83	19902
900.95	19959
901.069	19925
901.189	19795
901.308	19613
901.427	19537
901.546	19472
901.665	19502
901.784	19548
901.904	19312
902.023	19274
902.141	19118
902.26	19171
902.379	19141
902.498	19034
902.617	19019
902.735	19137
902.854	19057
902.973	18970
903.091	18719
903.21	18745
903.328	18661
903.446	18677
903.565	18578
903.683	18380
903.801	18353
903.919	18452
904.038	18498
904.156	18216
904.274	18311
904.392	18243
904.51	18270
904.627	18163
904.745	18308
904.863	18334
904.981	17996
905.098	17977
905.216	17920
905.334	18019
905.451	17920
905.569	17912
905.686	17958
905.803	17882
905.921	17657
906.038	17866
906.155	17703
906.272	17665
906.389	17710
906.506	17444
906.623	17429
906.74	17417
906.857	17261
906.974	17322
907.091	17478
907.208	17600
907.324	17440
907.441	17391
907.557	17189
907.674	17090
907.79	17109
907.907	17075
908.023	17231
908.139	17064
908.256	17105
908.372	17022
908.488	16915
908.604	16877
908.72	16820
908.836	16961
908.952	16809
909.068	16961
909.184	16949
909.3	16908
909.415	16930
909.531	16847
909.647	16691
909.762	16626
909.878	16615
909.993	16634
910.108	16565
910.224	16531
910.339	16523
910.454	16504
910.57	16432
910.685	16386
910.8	16569
910.915	16542
911.03	16478
911.145	16265
911.259	16215
911.374	16265
911.489	16051
911.604	15964
911.718	15819
911.833	15911
911.947	15800
912.062	15770
912.176	15911
912.291	15884
912.405	15949
912.519	16063
912.633	16116
912.748	16017
912.862	15850
912.976	15816
913.09	15591
913.204	15701
913.318	15762
913.431	15781
913.545	15816
913.659	15892
913.772	15705
913.886	15485
914	15496
914.113	15591
914.226	15660
914.34	15618
914.453	15466
914.566	15515
914.68	15424
914.793	15393
914.906	15252
915.019	15154
915.132	15100
915.245	15138
915.358	15222
915.47	15138
915.583	15192
915.696	15173
915.809	15180
915.921	15344
916.034	15097
916.146	14994
916.259	15085
916.371	15074
916.483	15119
916.595	15009
916.708	14963
916.82	15009
916.932	14933
917.044	14982
917.156	14933
917.268	14777
917.38	14765
917.491	14864
917.603	14815
917.715	14849
917.826	14887
917.938	14811
918.049	14663
918.161	14727
918.272	14906
918.384	14811
918.495	14765
918.606	14598
918.717	14568
918.828	14636
918.939	14602
919.05	14412
919.161	14533
919.272	14385
919.383	14438
919.494	14629
919.604	14758
919.715	14545
919.826	14419
919.936	14499
920.047	14629
920.157	14503
920.267	14686
920.378	14575
920.488	14495
920.598	14648
920.708	14800
920.818	14644
920.928	14705
921.038	14754
921.148	14792
921.258	14564
921.368	14419
921.477	14271
921.587	14278
921.697	14123
921.806	14240
921.916	14153
922.025	14024
922.134	14008
922.244	13955
922.353	13959
922.462	13856
922.571	13693
922.68	13586
922.789	13533
922.898	13537
923.007	13563
923.116	13552
923.224	13674
923.333	13411
923.442	13377
923.55	13457
923.659	13464
923.767	13384
923.876	13266
923.984	13384
924.092	13206
924.201	13392
924.309	13327
924.417	13240
924.525	13107
924.633	13232
924.741	14016
924.849	13133
924.956	13160
925.064	13034
925.172	12993
925.279	12996
925.387	12985
925.494	12951
925.602	13095
925.709	13069
925.816	12875
925.924	12871
926.031	12981
926.138	12890
926.245	12977
926.352	12783
926.459	12909
926.566	12962
926.673	12814
926.779	12700
926.886	12726
926.993	12555
927.099	12509
927.206	12525
927.312	12464
927.419	12639
927.525	12616
927.631	12494
927.737	12460
927.843	12418
927.95	12338
928.056	12330
928.162	12296
928.267	12414
928.373	13004
928.479	12407
928.585	12144
928.69	12228
928.796	12380
928.901	12228
929.007	12045
929.112	12228
929.218	12072
929.323	12163
929.428	12098
929.533	12140
929.638	11992
929.743	12034
929.848	12102
929.953	12076
930.058	11954
930.163	11733
930.267	11741
930.372	11893
930.477	11676
930.581	11889
930.685	11714
930.79	11676
930.894	11604
930.998	11714
931.103	11688
931.207	11406
931.311	11326
931.415	11227
931.519	11109
931.623	11022
