Data from test_V78500241_1782.txt Node
Date: Fri Mar 25 15:22:15 CST 2022
User: usil
Spectrometer: V785-0024
Trigger mode: 0
Integration Time (sec): 4.000000E-1
Scans to average: 1
Nonlinearity correction enabled: false
Boxcar width: 0
Storing dark spectrum: false
XAxis mode: Wavelengths
Number of Pixels in Spectrum: 1024
>>>>>Begin Spectral Data<<<<<
801.071	28055
801.214	27842
801.356	27713
801.499	27644
801.641	27519
801.783	27397
801.926	27496
802.068	27591
802.211	27416
802.353	27393
802.496	27245
802.638	27131
802.78	27161
802.923	27093
803.065	27085
803.208	27001
803.35	27108
803.492	27195
803.635	27298
803.777	27283
803.919	27420
804.061	27732
804.204	27317
804.346	27283
804.488	27272
804.63	27291
804.773	27222
804.915	27279
805.057	27462
805.199	27192
805.341	27450
805.483	27450
805.626	27435
805.768	27302
805.91	27553
806.052	27405
806.194	27447
806.336	27663
806.478	27545
806.62	27382
806.762	27637
806.904	27671
807.046	27964
807.188	27831
807.33	27793
807.472	27884
807.614	27713
807.756	27934
807.898	27686
808.04	27625
808.182	27842
808.324	27713
808.465	27831
808.607	28006
808.749	28185
808.891	28268
809.033	28226
809.174	28143
809.316	28090
809.458	28048
809.6	28124
809.741	28162
809.883	28284
810.025	28356
810.166	28409
810.308	28303
810.45	28398
810.591	28322
810.733	28112
810.875	28074
811.016	27972
811.158	27934
811.299	28230
811.441	28109
811.582	28470
811.724	28173
811.865	28021
812.007	28051
812.148	27998
812.29	28082
812.431	28268
812.573	28455
812.714	28550
812.855	28691
812.997	28744
813.138	28854
813.279	28710
813.421	28596
813.562	28569
813.703	28436
813.845	28272
813.986	28044
814.127	27838
814.268	27873
814.41	27823
814.551	27804
814.692	27857
814.833	27682
814.974	27880
815.115	27789
815.256	27713
815.397	27736
815.539	27698
815.68	27519
815.821	27549
815.962	27660
816.103	27580
816.244	27397
816.385	27431
816.526	27317
816.666	27218
816.807	27070
816.948	27192
817.089	27416
817.23	27264
817.371	27058
817.512	27211
817.653	27154
817.793	27070
817.934	27184
818.075	27081
818.216	27085
818.356	27062
818.497	27051
818.638	26807
818.778	26895
818.919	26811
819.06	26781
819.2	26933
819.341	27047
819.481	27043
819.622	27180
819.762	27427
819.903	27363
820.043	27233
820.184	27112
820.324	27047
820.465	27302
820.605	27249
820.746	27195
820.886	27108
821.026	27066
821.167	27089
821.307	27393
821.447	27089
821.588	26910
821.728	26967
821.868	26807
822.008	26560
822.149	26598
822.289	26594
822.429	26332
822.569	26191
822.709	26210
822.849	26134
822.99	26172
823.13	26081
823.27	26024
823.41	25860
823.55	25738
823.69	25803
823.83	25879
823.97	25875
824.11	25791
824.25	25655
824.389	25681
824.529	25643
824.669	25666
824.809	25864
824.949	25708
825.089	25761
825.228	25791
825.368	25643
825.508	25479
825.648	25601
825.787	25734
825.927	25780
826.067	25479
826.206	25605
826.346	25696
826.485	25620
826.625	25548
826.765	25666
826.904	25647
827.044	25464
827.183	25285
827.323	25297
827.462	25445
827.601	25377
827.741	25377
827.88	25255
828.02	25266
828.159	25335
828.298	25563
828.437	25354
828.577	25152
828.716	25377
828.855	25076
828.994	24954
829.134	25057
829.273	25015
829.412	25053
829.551	24897
829.69	25038
829.829	25129
829.968	25133
830.107	25221
830.246	25015
830.385	24859
830.524	25057
830.663	24829
830.802	24646
830.941	24635
831.08	24669
831.219	24814
831.357	24745
831.496	24909
831.635	24635
831.774	24635
831.913	24601
832.051	24521
832.19	24475
832.329	24410
832.467	24338
832.606	24365
832.744	24357
832.883	24403
833.022	24399
833.16	24365
833.299	24350
833.437	24509
833.576	24509
833.714	24467
833.852	24323
833.991	24502
834.129	24593
834.267	24498
834.406	24532
834.544	24353
834.682	24407
834.821	24342
834.959	24517
835.097	24422
835.235	24464
835.373	24361
835.511	24361
835.65	24281
835.788	24353
835.926	24209
836.064	24026
836.202	24064
836.34	24213
836.478	24254
836.615	24224
836.753	24251
836.891	24407
837.029	24178
837.167	24110
837.305	24102
837.443	24087
837.58	24079
837.718	24041
837.856	24076
837.993	23958
838.131	23965
838.269	23923
838.406	24034
838.544	23961
838.681	23672
838.819	23707
838.956	23531
839.094	23497
839.231	23608
839.369	23680
839.506	24007
839.643	23520
839.781	23501
839.918	23528
840.055	23554
840.193	23615
840.33	23379
840.467	23592
840.604	23516
840.742	23687
840.879	23353
841.016	23299
841.153	23254
841.29	23528
841.427	23444
841.564	23501
841.701	23452
841.838	23440
841.975	23315
842.112	23299
842.249	23296
842.385	23083
842.522	23292
842.659	23162
842.796	23197
842.933	23288
843.069	23261
843.206	23159
843.343	23307
843.479	23261
843.616	23159
843.752	23052
843.889	23071
844.025	23178
844.162	23025
844.298	23231
844.435	22995
844.571	22949
844.708	22961
844.844	23124
844.98	23200
845.117	23098
845.253	22908
845.389	22957
845.525	22862
845.661	22873
845.798	22835
845.934	22698
846.07	22797
846.206	22645
846.342	22904
846.478	22873
846.614	22645
846.75	22447
846.886	22554
847.022	22542
847.158	22470
847.294	22470
847.429	22485
847.565	22478
847.701	22664
847.837	22295
847.972	22166
848.108	22287
848.244	22291
848.379	22120
848.515	21968
848.65	21983
848.786	22196
848.921	22116
849.057	22207
849.192	22128
849.328	22150
849.463	22158
849.598	22036
849.734	21983
849.869	21945
850.004	21812
850.14	22006
850.275	21850
850.41	21857
850.545	21960
850.68	21766
850.815	21937
850.95	21823
851.085	21983
851.22	22021
851.355	21797
851.49	21831
851.625	21991
851.76	21732
851.895	21747
852.03	21751
852.165	21747
852.299	21911
852.434	21930
852.569	21998
852.703	21975
852.838	21972
852.973	21880
853.107	22006
853.242	21713
853.376	21610
853.511	21545
853.645	21663
853.78	21762
853.914	21762
854.048	21603
854.183	21610
854.317	21603
854.451	21838
854.585	21682
854.72	21778
854.854	21587
854.988	21671
855.122	21614
855.256	21564
855.39	21675
855.524	21644
855.658	21736
855.792	21679
855.926	21728
856.06	21717
856.194	21800
856.327	21583
856.461	21538
856.595	21496
856.729	21610
856.862	21759
856.996	21736
857.13	21793
857.263	21755
857.397	21789
857.53	21694
857.664	21736
857.797	21720
857.931	21743
858.064	21625
858.197	21717
858.331	21671
858.464	21572
858.597	21545
858.731	21580
858.864	21644
858.997	21576
859.13	21690
859.263	21728
859.396	21804
859.529	21641
859.662	21660
859.795	21599
859.928	21705
860.061	21705
860.194	21789
860.327	21705
860.46	21755
860.592	21747
860.725	21850
860.858	21930
860.99	21694
861.123	21648
861.256	21576
861.388	21603
861.521	22261
861.653	21488
861.786	21431
861.918	21473
862.05	21553
862.183	21622
862.315	21660
862.447	21641
862.58	21595
862.712	21317
862.844	21336
862.976	21386
863.108	21496
863.24	21838
863.372	21211
863.504	21412
863.636	21397
863.768	21488
863.9	21340
864.032	21294
864.164	21332
864.296	21344
864.428	21401
864.559	21526
864.691	21424
864.823	21447
864.954	21291
865.086	21359
865.217	21382
865.349	21184
865.48	21180
865.612	21302
865.743	21313
865.875	21317
866.006	21203
866.137	21176
866.269	21241
866.4	21150
866.531	21226
866.662	21195
866.793	21279
866.924	21165
867.055	21222
867.186	21260
867.317	21169
867.448	21074
867.579	21157
867.71	20979
867.841	21154
867.972	21233
868.103	21214
868.233	21230
868.364	21192
868.495	21230
868.625	21485
868.756	21500
868.886	21466
869.017	21500
869.147	21504
869.278	21485
869.408	21538
869.539	21340
869.669	21606
869.799	21447
869.929	21564
870.06	21431
870.19	21812
870.32	21698
870.45	21778
870.58	21781
870.71	21937
870.84	21911
870.97	21774
871.1	21747
871.23	21945
871.36	21991
871.489	21884
871.619	21949
871.749	22059
871.879	22051
872.008	22200
872.138	22067
872.267	22109
872.397	21956
872.526	21899
872.656	21949
872.785	21857
872.915	21972
873.044	22185
873.173	22063
873.303	22116
873.432	22287
873.561	22143
873.69	22093
873.819	22097
873.948	22173
874.077	22177
874.206	21953
874.335	21975
874.464	22215
874.593	22299
874.722	22188
874.851	22272
874.979	22226
875.108	22333
875.237	22215
875.365	22162
875.494	22154
875.623	22299
875.751	22116
875.88	22211
876.008	22500
876.136	22462
876.265	22542
876.393	22847
876.521	22691
876.65	22824
876.778	22675
876.906	22546
877.034	22615
877.162	22500
877.29	22584
877.418	22577
877.546	22752
877.674	22565
877.802	22523
877.93	22508
878.058	22599
878.185	22474
878.313	22596
878.441	22538
878.568	22409
878.696	22402
878.824	22691
878.951	22733
879.079	22759
879.206	22930
879.333	22767
879.461	22637
879.588	22641
879.715	22679
879.842	22934
879.97	22679
880.097	22424
880.224	22428
880.351	22527
880.478	22535
880.605	22329
880.732	22341
880.859	22721
880.986	22504
881.112	22409
881.239	22257
881.366	22101
881.493	22055
881.619	21945
881.746	22067
881.872	22017
881.999	22059
882.125	21937
882.252	21918
882.378	21994
882.505	22070
882.631	21892
882.757	21743
882.883	21854
883.01	21755
883.136	21774
883.262	21610
883.388	21511
883.514	21652
883.64	21709
883.766	21614
883.892	21462
884.018	21466
884.143	21595
884.269	21751
884.395	21534
884.52	21203
884.646	21431
884.772	21306
884.897	21112
885.023	21477
885.148	21397
885.274	21492
885.399	21272
885.524	21260
885.65	21397
885.775	21294
885.9	21298
886.025	21447
886.15	21393
886.275	21226
886.4	21321
886.525	21344
886.65	21256
886.775	21310
886.9	21370
887.025	21507
887.149	21211
887.274	21085
887.399	21032
887.523	21112
887.648	21085
887.773	20963
887.897	21199
888.021	21142
888.146	21066
888.27	21142
888.395	21252
888.519	21074
888.643	21062
888.767	21169
888.891	21009
889.015	20868
889.139	21005
889.263	20845
889.387	20967
889.511	21142
889.635	21036
889.759	20796
889.883	20807
890.006	20899
890.13	20956
890.254	20891
890.377	20910
890.501	20849
890.624	20606
890.748	20686
890.871	20659
890.995	20518
891.118	20465
891.241	20507
891.364	20450
891.488	20526
891.611	20431
891.734	20366
891.857	20461
891.98	20415
892.103	20590
892.226	20476
892.349	20358
892.471	20336
892.594	20389
892.717	20355
892.839	20480
892.962	20351
893.085	20438
893.207	20347
893.33	20347
893.452	20240
893.575	20427
893.697	20317
893.819	20374
893.941	20530
894.064	20495
894.186	20385
894.308	20412
894.43	20389
894.552	20381
894.674	20374
894.796	20275
894.918	20324
895.04	20320
895.161	20317
895.283	20370
895.405	20237
895.526	20313
895.648	20324
895.769	20256
895.891	20473
896.012	20351
896.134	20313
896.255	20370
896.376	20309
896.498	20396
896.619	20419
896.74	20313
896.861	20366
896.982	20526
897.103	20727
897.224	20530
897.345	20507
897.466	20454
897.587	20541
897.708	20651
897.828	20609
897.949	20476
898.07	20358
898.19	20499
898.311	20469
898.431	20423
898.552	20514
898.672	20644
898.792	20689
898.913	20617
899.033	20537
899.153	20328
899.273	20298
899.393	20282
899.513	20393
899.633	20259
899.753	20415
899.873	20134
899.993	20351
900.113	20214
900.232	20282
900.352	20202
900.472	20142
900.591	20187
900.711	20039
900.83	20054
900.95	20149
901.069	20107
901.189	19894
901.308	19693
901.427	19742
901.546	19590
901.665	19651
901.784	19693
901.904	19445
902.023	19407
902.141	19168
902.26	19244
902.379	19304
902.498	19228
902.617	19209
902.735	19202
902.854	19187
902.973	19213
903.091	18878
903.21	18913
903.328	18829
903.446	18665
903.565	18700
903.683	18696
903.801	18563
903.919	18494
904.038	18532
904.156	18433
904.274	18448
904.392	18452
904.51	18426
904.627	18410
904.745	18414
904.863	18540
904.981	18140
905.098	18114
905.216	18125
905.334	18022
905.451	18011
905.569	17973
905.686	18068
905.803	18019
905.921	17874
906.038	18098
906.155	17866
906.272	17779
906.389	17737
906.506	17680
906.623	17623
906.74	17630
906.857	17512
906.974	17463
907.091	17646
907.208	17813
907.324	17649
907.441	17486
907.557	17261
907.674	17429
907.79	17197
907.907	17258
908.023	17376
908.139	17383
908.256	17254
908.372	17132
908.488	17280
908.604	17022
908.72	16984
908.836	17067
908.952	16995
909.068	16968
909.184	17094
909.3	16987
909.415	16927
909.531	17090
909.647	16744
909.762	16774
909.878	16679
909.993	16774
910.108	16672
910.224	16729
910.339	16748
910.454	16618
910.57	16538
910.685	16500
910.8	16668
910.915	16752
911.03	16615
911.145	16489
911.259	16249
911.374	16398
911.489	16196
911.604	16128
911.718	16017
911.833	15983
911.947	15975
912.062	15899
912.176	16082
912.291	16055
912.405	16021
912.519	16192
912.633	16265
912.748	15907
912.862	16002
912.976	15915
913.09	15759
913.204	15930
913.318	15838
913.431	15998
913.545	16010
913.659	16040
913.772	15797
913.886	15732
914	15701
914.113	15800
914.226	15819
914.34	15804
914.453	15454
914.566	15682
914.68	15553
914.793	15572
914.906	15329
915.019	15298
915.132	15321
915.245	15272
915.358	15222
915.47	15275
915.583	15378
915.696	15264
915.809	15359
915.921	15416
916.034	15211
916.146	15218
916.259	15222
916.371	15214
916.483	15294
916.595	15138
916.708	15184
916.82	15180
916.932	15066
917.044	15070
917.156	15138
917.268	14861
917.38	15112
917.491	14941
917.603	15024
917.715	15055
917.826	15100
917.938	14857
918.049	14792
918.161	14944
918.272	15074
918.384	14967
918.495	14857
918.606	14739
918.717	14769
918.828	14792
918.939	14785
919.05	14613
919.161	14659
919.272	14514
919.383	14617
919.494	14838
919.604	14906
919.715	14731
919.826	14423
919.936	14667
920.047	14754
920.157	14743
920.267	14815
920.378	14705
920.488	14625
920.598	14868
920.708	14967
920.818	14838
920.928	14667
921.038	14998
921.148	14849
921.258	14587
921.368	14549
921.477	14545
921.587	14438
921.697	14294
921.806	14317
921.916	14244
922.025	14123
922.134	13963
922.244	14024
922.353	14134
922.462	13959
922.571	13845
922.68	13814
922.789	13662
922.898	13719
923.007	13685
923.116	13696
923.224	13601
923.333	13609
923.442	13578
923.55	13472
923.659	13594
923.767	13636
923.876	13449
923.984	13514
924.092	13419
924.201	13483
924.309	13422
924.417	13514
924.525	13373
924.633	13369
924.741	14328
924.849	13149
924.956	13304
925.064	13187
925.172	13061
925.279	13084
925.387	13217
925.494	13012
925.602	13194
925.709	13217
925.816	13000
925.924	13042
926.031	13091
926.138	13084
926.245	13084
926.352	12973
926.459	13171
926.566	13149
926.673	12943
926.779	12829
926.886	12878
926.993	12776
927.099	12730
927.206	12707
927.312	12639
927.419	12700
927.525	12639
927.631	12711
927.737	12544
927.843	12536
927.95	12437
928.056	12460
928.162	12437
928.267	12525
928.373	13088
928.479	12559
928.585	12281
928.69	12490
928.796	12456
928.901	12365
929.007	12232
929.112	12342
929.218	12311
929.323	12277
929.428	12251
929.533	12334
929.638	12114
929.743	12201
929.848	12110
929.953	12152
930.058	12091
930.163	11931
930.267	11859
930.372	12026
930.477	11813
930.581	12095
930.685	11851
930.79	11859
930.894	11786
930.998	11737
931.103	11893
931.207	11474
931.311	11387
931.415	11383
931.519	11105
931.623	11181
