Data from test_V78500241_362.txt Node
Date: Fri Mar 25 15:12:22 CST 2022
User: usil
Spectrometer: V785-0024
Trigger mode: 0
Integration Time (sec): 4.000000E-1
Scans to average: 1
Nonlinearity correction enabled: false
Boxcar width: 0
Storing dark spectrum: false
XAxis mode: Wavelengths
Number of Pixels in Spectrum: 1024
>>>>>Begin Spectral Data<<<<<
801.071	27154
801.214	26910
801.356	26682
801.499	26731
801.641	26716
801.783	26632
801.926	26686
802.068	26495
802.211	26499
802.353	26427
802.496	26263
802.638	26282
802.78	26172
802.923	26138
803.065	26065
803.208	26187
803.35	26206
803.492	26404
803.635	26461
803.777	26191
803.919	26450
804.061	26739
804.204	26286
804.346	26195
804.488	26191
804.63	26256
804.773	26259
804.915	26362
805.057	26476
805.199	26385
805.341	26484
805.483	26648
805.626	26351
805.768	26259
805.91	26446
806.052	26583
806.194	26522
806.336	26594
806.478	26629
806.62	26298
806.762	26492
806.904	26693
807.046	26872
807.188	26925
807.33	26902
807.472	26998
807.614	26804
807.756	26861
807.898	26648
808.04	26621
808.182	26674
808.324	26617
808.465	26708
808.607	26899
808.749	26876
808.891	27256
809.033	27222
809.174	27123
809.316	27009
809.458	27009
809.6	26952
809.741	27055
809.883	27203
810.025	27268
810.166	27443
810.308	27207
810.45	27154
810.591	27249
810.733	27058
810.875	26952
811.016	27005
811.158	26914
811.299	27108
811.441	27214
811.582	27089
811.724	27005
811.865	26994
812.007	27055
812.148	27047
812.29	27157
812.431	27135
812.573	27226
812.714	27389
812.855	27427
812.997	27530
813.138	27762
813.279	27629
813.421	27534
813.562	27469
813.703	27405
813.845	27268
813.986	27001
814.127	26918
814.268	26697
814.41	26648
814.551	26720
814.692	26792
814.833	26617
814.974	26667
815.115	26598
815.256	26450
815.397	26495
815.539	26533
815.68	26476
815.821	26461
815.962	26450
816.103	26526
816.244	26419
816.385	26355
816.526	26161
816.666	26065
816.807	25902
816.948	25982
817.089	26027
817.23	26119
817.371	25951
817.512	25982
817.653	25963
817.793	25947
817.934	26046
818.075	25966
818.216	26081
818.356	25875
818.497	25772
818.638	25708
818.778	25632
818.919	25780
819.06	25643
819.2	25738
819.341	26016
819.481	25849
819.622	26081
819.762	26381
819.903	26138
820.043	26164
820.184	26100
820.324	26065
820.465	26187
820.605	26077
820.746	25982
820.886	25890
821.026	25982
821.167	25936
821.307	26027
821.447	25833
821.588	25875
821.728	25715
821.868	25540
822.008	25594
822.149	25441
822.289	25392
822.429	25050
822.569	25145
822.709	25031
822.849	25019
822.99	24802
823.13	24878
823.27	24856
823.41	24829
823.55	24741
823.69	24913
823.83	24760
823.97	24677
824.11	24608
824.25	24464
824.389	24627
824.529	24620
824.669	24696
824.809	24597
824.949	24642
825.089	24608
825.228	24582
825.368	24334
825.508	24429
825.648	24395
825.787	24418
825.927	24563
826.067	24376
826.206	24502
826.346	24380
826.485	24399
826.625	24399
826.765	24513
826.904	24429
827.044	24015
827.183	24194
827.323	24174
827.462	24140
827.601	24174
827.741	24083
827.88	24163
828.02	24007
828.159	24072
828.298	24030
828.437	24171
828.577	24041
828.716	24155
828.855	24095
828.994	23942
829.134	23817
829.273	23927
829.412	23863
829.551	23710
829.69	23802
829.829	23855
829.968	23992
830.107	23752
830.246	23840
830.385	23684
830.524	23809
830.663	23699
830.802	23554
830.941	23395
831.08	23425
831.219	23501
831.357	23539
831.496	23729
831.635	23539
831.774	23311
831.913	23341
832.051	23345
832.19	23425
832.329	23322
832.467	23197
832.606	23197
832.744	23033
832.883	23140
833.022	23094
833.16	23185
833.299	23204
833.437	23212
833.576	23318
833.714	23265
833.852	23254
833.991	23258
834.129	23288
834.267	23246
834.406	23242
834.544	23322
834.682	23162
834.821	23140
834.959	23376
835.097	23242
835.235	23216
835.373	23254
835.511	23143
835.65	23041
835.788	23109
835.926	22930
836.064	22854
836.202	22923
836.34	22995
836.478	23025
836.615	23029
836.753	23151
836.891	23071
837.029	23090
837.167	23071
837.305	22824
837.443	22869
837.58	22850
837.718	23022
837.856	22934
837.993	22896
838.131	22923
838.269	22866
838.406	22892
838.544	22679
838.681	22584
838.819	22474
838.956	22386
839.094	22424
839.231	22512
839.369	22565
839.506	22900
839.643	22622
839.781	22409
839.918	22348
840.055	22344
840.193	22382
840.33	22382
840.467	22303
840.604	22371
840.742	22561
840.879	22234
841.016	22234
841.153	22207
841.29	22409
841.427	22314
841.564	22382
841.701	22329
841.838	22253
841.975	22139
842.112	22200
842.249	22150
842.385	22128
842.522	22329
842.659	22257
842.796	22112
842.933	22055
843.069	22135
843.206	22059
843.343	22112
843.479	22063
843.616	22082
843.752	21918
843.889	21861
844.025	21975
844.162	21709
844.298	22025
844.435	21857
844.571	21937
844.708	21816
844.844	22059
844.98	21998
845.117	21983
845.253	21785
845.389	21667
845.525	21797
845.661	21656
845.798	21549
845.934	21816
846.07	21526
846.206	21713
846.342	21690
846.478	21591
846.614	21382
846.75	21340
846.886	21329
847.022	21329
847.158	21416
847.294	21382
847.429	21348
847.565	21329
847.701	21447
847.837	21119
847.972	21013
848.108	21039
848.244	21093
848.379	21047
848.515	20937
848.65	20952
848.786	20933
848.921	20925
849.057	21089
849.192	21127
849.328	21039
849.463	20891
849.598	20876
849.734	20838
849.869	20693
850.004	20746
850.14	20720
850.275	20754
850.41	20712
850.545	20663
850.68	20609
850.815	20720
850.95	20667
851.085	20823
851.22	20773
851.355	20602
851.49	20769
851.625	20708
851.76	20720
851.895	20606
852.03	20629
852.165	20689
852.299	20754
852.434	20746
852.569	20765
852.703	20705
852.838	20636
852.973	20895
853.107	20842
853.242	20667
853.376	20518
853.511	20499
853.645	20480
853.78	20724
853.914	20518
854.048	20545
854.183	20560
854.317	20552
854.451	20765
854.585	20571
854.72	20476
854.854	20621
854.988	20320
855.122	20583
855.256	20343
855.39	20533
855.524	20583
855.658	20560
855.792	20602
855.926	20583
856.06	20495
856.194	20693
856.327	20419
856.461	20678
856.595	20461
856.729	20488
856.862	20606
856.996	20492
857.13	20659
857.263	20693
857.397	20526
857.53	20511
857.664	20552
857.797	20579
857.931	20731
858.064	20598
858.197	20564
858.331	20450
858.464	20434
858.597	20457
858.731	20549
858.864	20396
858.997	20393
859.13	20541
859.263	20526
859.396	20705
859.529	20518
859.662	20492
859.795	20533
859.928	20568
860.061	20617
860.194	20773
860.327	20476
860.46	20587
860.592	20621
860.725	20659
860.858	20716
860.99	20507
861.123	20579
861.256	20514
861.388	20423
861.521	21169
861.653	20396
861.786	20313
861.918	20336
862.05	20370
862.183	20427
862.315	20423
862.447	20522
862.58	20488
862.712	20294
862.844	20278
862.976	20298
863.108	20240
863.24	20705
863.372	20225
863.504	20275
863.636	20187
863.768	20278
863.9	20286
864.032	20176
864.164	20142
864.296	20206
864.428	20332
864.559	20408
864.691	20187
864.823	20278
864.954	20142
865.086	20092
865.217	20164
865.349	20126
865.48	20199
865.612	20153
865.743	20214
865.875	20142
866.006	19997
866.137	20149
866.269	20153
866.4	20161
866.531	20111
866.662	20008
866.793	20024
866.924	20062
867.055	20092
867.186	20016
867.317	20084
867.448	19986
867.579	20088
867.71	19986
867.841	20012
867.972	20020
868.103	20016
868.233	20191
868.364	20206
868.495	20202
868.625	20393
868.756	20377
868.886	20305
869.017	20305
869.147	20370
869.278	20469
869.408	20351
869.539	20385
869.669	20415
869.799	20454
869.929	20393
870.06	20526
870.19	20758
870.32	20674
870.45	20651
870.58	20731
870.71	20853
870.84	20899
870.97	20678
871.1	20659
871.23	20918
871.36	20826
871.489	20944
871.619	20956
871.749	20792
871.879	20918
872.008	20960
872.138	21024
872.267	20921
872.397	20815
872.526	20792
872.656	20804
872.785	20773
872.915	20887
873.044	20967
873.173	20963
873.303	21077
873.432	20956
873.561	21062
873.69	20994
873.819	20982
873.948	21093
874.077	20994
874.206	20880
874.335	20967
874.464	21104
874.593	21226
874.722	21207
874.851	21230
874.979	21283
875.108	21298
875.237	21051
875.365	21093
875.494	21207
875.623	21332
875.751	21112
875.88	21336
876.008	21256
876.136	21351
876.265	21542
876.393	21732
876.521	21618
876.65	21629
876.778	21610
876.906	21530
877.034	21431
877.162	21652
877.29	21667
877.418	21599
877.546	21485
877.674	21382
877.802	21428
877.93	21606
878.058	21416
878.185	21355
878.313	21545
878.441	21530
878.568	21542
878.696	21485
878.824	21545
878.951	21583
879.079	21770
879.206	21869
879.333	21641
879.461	21519
879.588	21660
879.715	21660
879.842	21865
879.97	21603
880.097	21313
880.224	21351
880.351	21313
880.478	21317
880.605	21336
880.732	21363
880.859	21686
880.986	21329
881.112	21488
881.239	21245
881.366	21154
881.493	21020
881.619	20994
881.746	20921
881.872	20914
881.999	20948
882.125	20845
882.252	20975
882.378	20925
882.505	20998
882.631	20918
882.757	20705
882.883	20754
883.01	20727
883.136	20697
883.262	20484
883.388	20526
883.514	20788
883.64	20773
883.766	20686
883.892	20339
884.018	20541
884.143	20625
884.269	20712
884.395	20454
884.52	20271
884.646	20332
884.772	20263
884.897	20336
885.023	20358
885.148	20434
885.274	20476
885.399	20518
885.524	20339
885.65	20275
885.775	20362
885.9	20305
886.025	20461
886.15	20301
886.275	20263
886.4	20134
886.525	20347
886.65	20195
886.775	20290
886.9	20381
887.025	20594
887.149	20328
887.274	20225
887.399	20046
887.523	20027
887.648	20024
887.773	19967
887.897	20252
888.021	20153
888.146	20077
888.27	20221
888.395	20218
888.519	20142
888.643	20126
888.767	20126
888.891	19936
889.015	19928
889.139	19856
889.263	19837
889.387	20050
889.511	20050
889.635	20058
889.759	19879
889.883	19875
890.006	19951
890.13	20058
890.254	19685
890.377	19799
890.501	19700
890.624	19712
890.748	19696
890.871	19586
890.995	19476
891.118	19480
891.241	19548
891.364	19533
891.488	19677
891.611	19537
891.734	19419
891.857	19563
891.98	19460
892.103	19544
892.226	19415
892.349	19354
892.471	19293
892.594	19460
892.717	19403
892.839	19400
892.962	19392
893.085	19514
893.207	19339
893.33	19190
893.452	19396
893.575	19411
893.697	19388
893.819	19559
893.941	19594
894.064	19529
894.186	19358
894.308	19278
894.43	19552
894.552	19571
894.674	19514
894.796	19339
894.918	19422
895.04	19278
895.161	19616
895.283	19426
895.405	19422
895.526	19441
895.648	19362
895.769	19339
895.891	19502
896.012	19472
896.134	19396
896.255	19381
896.376	19445
896.498	19419
896.619	19453
896.74	19377
896.861	19312
896.982	19731
897.103	19909
897.224	19757
897.345	19677
897.466	19624
897.587	19559
897.708	19795
897.828	19586
897.949	19495
898.07	19499
898.19	19506
898.311	19807
898.431	19693
898.552	19662
898.672	19715
898.792	19651
898.913	19677
899.033	19559
899.153	19533
899.273	19343
899.393	19377
899.513	19403
899.633	19316
899.753	19392
899.873	19308
899.993	19434
900.113	19392
900.232	19457
900.352	19358
900.472	19156
900.591	19141
900.711	19183
900.83	19107
900.95	19164
901.069	19343
901.189	19076
901.308	18913
901.427	18890
901.546	18654
901.665	18749
901.784	18764
901.904	18601
902.023	18521
902.141	18251
902.26	18323
902.379	18319
902.498	18327
902.617	18209
902.735	18289
902.854	18300
902.973	18197
903.091	18091
903.21	18030
903.328	17897
903.446	17912
903.565	17786
903.683	17821
903.801	17634
903.919	17733
904.038	17798
904.156	17543
904.274	17657
904.392	17474
904.51	17509
904.627	17505
904.745	17577
904.863	17642
904.981	17353
905.098	17280
905.216	17212
905.334	17288
905.451	17368
905.569	17227
905.686	17269
905.803	17246
905.921	17109
906.038	17090
906.155	17033
906.272	16980
906.389	16930
906.506	16790
906.623	16828
906.74	16752
906.857	16675
906.974	16729
907.091	16934
907.208	16972
907.324	16881
907.441	16771
907.557	16546
907.674	16603
907.79	16432
907.907	16402
908.023	16497
908.139	16550
908.256	16443
908.372	16443
908.488	16405
908.604	16207
908.72	16204
908.836	16310
908.952	16120
909.068	16234
909.184	16306
909.3	16272
909.415	16284
909.531	16200
909.647	15994
909.762	16059
909.878	15842
909.993	15960
910.108	15880
910.224	15892
910.339	15884
910.454	15800
910.57	15724
910.685	15732
910.8	15991
910.915	15850
911.03	15816
911.145	15629
911.259	15561
911.374	15492
911.489	15469
911.604	15500
911.718	15264
911.833	15260
911.947	15154
912.062	15214
912.176	15188
912.291	15256
912.405	15268
912.519	15424
912.633	15439
912.748	15294
912.862	15275
912.976	15199
913.09	14975
913.204	15070
913.318	15112
913.431	15268
913.545	15116
913.659	15199
913.772	15055
913.886	14975
914	14906
914.113	14944
914.226	14971
914.34	15062
914.453	14838
914.566	15009
914.68	14887
914.793	14792
914.906	14674
915.019	14693
915.132	14522
915.245	14533
915.358	14568
915.47	14457
915.583	14587
915.696	14598
915.809	14571
915.921	14678
916.034	14450
916.146	14427
916.259	14328
916.371	14473
916.483	14533
916.595	14385
916.708	14431
916.82	14507
916.932	14358
917.044	14408
917.156	14301
917.268	14278
917.38	14256
917.491	14210
917.603	14237
917.715	14256
917.826	14313
917.938	14134
918.049	14005
918.161	14088
918.272	14313
918.384	14400
918.495	14119
918.606	14077
918.717	13967
918.828	14020
918.939	14027
919.05	13932
919.161	14100
919.272	13772
919.383	13860
919.494	13974
919.604	14195
919.715	14050
919.826	13875
919.936	13978
920.047	14069
920.157	13894
920.267	14256
920.378	14058
920.488	13932
920.598	14221
920.708	14358
920.818	14115
920.928	14107
921.038	14332
921.148	14145
921.258	13921
921.368	13871
921.477	13784
921.587	13723
921.697	13594
921.806	13734
921.916	13658
922.025	13430
922.134	13403
922.244	13415
922.353	13396
922.462	13183
922.571	13217
922.68	12981
922.789	13129
922.898	12977
923.007	12920
923.116	13080
923.224	12970
923.333	12996
923.442	12821
923.55	12867
923.659	12798
923.767	12947
923.876	12825
923.984	12859
924.092	12745
924.201	12863
924.309	12749
924.417	12840
924.525	12673
924.633	12707
924.741	13506
924.849	12570
924.956	12650
925.064	12544
925.172	12380
925.279	12490
925.387	12490
925.494	12448
925.602	12563
925.709	12544
925.816	12372
925.924	12429
926.031	12502
926.138	12395
926.245	12441
926.352	12369
926.459	12479
926.566	12490
926.673	12338
926.779	12270
926.886	12315
926.993	12140
927.099	12019
927.206	12022
927.312	11973
927.419	12041
927.525	12117
927.631	12083
927.737	11889
927.843	11809
927.95	11828
928.056	11851
928.162	11908
928.267	11992
928.373	12551
928.479	11939
928.585	11718
928.69	11726
928.796	11954
928.901	11688
929.007	11608
929.112	11752
929.218	11775
929.323	11573
929.428	11627
929.533	11805
929.638	11512
929.743	11539
929.848	11592
929.953	11638
930.058	11532
930.163	11326
930.267	11216
930.372	11627
930.477	11307
930.581	11558
930.685	11376
930.79	11178
930.894	11254
930.998	11132
931.103	11414
931.207	10991
931.311	10957
931.415	10812
931.519	10618
931.623	10584
