Data from test_V78500241_1725.txt Node
Date: Fri Mar 25 15:21:52 CST 2022
User: usil
Spectrometer: V785-0024
Trigger mode: 0
Integration Time (sec): 4.000000E-1
Scans to average: 1
Nonlinearity correction enabled: false
Boxcar width: 0
Storing dark spectrum: false
XAxis mode: Wavelengths
Number of Pixels in Spectrum: 1024
>>>>>Begin Spectral Data<<<<<
801.071	27568
801.214	27637
801.356	27302
801.499	27386
801.641	27135
801.783	27119
801.926	27154
802.068	27207
802.211	27157
802.353	27058
802.496	27017
802.638	26716
802.78	26796
802.923	26720
803.065	26781
803.208	26785
803.35	26861
803.492	26998
803.635	26979
803.777	26918
803.919	27112
804.061	27321
804.204	27020
804.346	26956
804.488	26895
804.63	26868
804.773	26933
804.915	27001
805.057	27146
805.199	26952
805.341	27085
805.483	27051
805.626	27116
805.768	27070
805.91	27131
806.052	27116
806.194	27058
806.336	27306
806.478	27169
806.62	27081
806.762	27203
806.904	27363
807.046	27625
807.188	27564
807.33	27496
807.472	27603
807.614	27427
807.756	27591
807.898	27329
808.04	27336
808.182	27298
808.324	27344
808.465	27473
808.607	27583
808.749	27656
808.891	27747
809.033	27854
809.174	27629
809.316	27648
809.458	27701
809.6	27789
809.741	27884
809.883	27949
810.025	28097
810.166	27991
810.308	28021
810.45	27873
810.591	27747
810.733	27770
810.875	27686
811.016	27644
811.158	27485
811.299	27781
811.441	27842
811.582	27914
811.724	27660
811.865	27785
812.007	27759
812.148	27785
812.29	27816
812.431	27949
812.573	28025
812.714	28105
812.855	28185
812.997	28360
813.138	28394
813.279	28428
813.421	28356
813.562	28192
813.703	28029
813.845	27884
813.986	27663
814.127	27511
814.268	27351
814.41	27469
814.551	27313
814.692	27454
814.833	27260
814.974	27477
815.115	27454
815.256	27351
815.397	27192
815.539	27252
815.68	27119
815.821	27199
815.962	27260
816.103	27135
816.244	27070
816.385	26982
816.526	26845
816.666	26735
816.807	26617
816.948	26727
817.089	26807
817.23	26773
817.371	26682
817.512	26579
817.653	26659
817.793	26625
817.934	26682
818.075	26708
818.216	26632
818.356	26682
818.497	26575
818.638	26400
818.778	26450
818.919	26393
819.06	26412
819.2	26492
819.341	26594
819.481	26769
819.622	26914
819.762	27009
819.903	26925
820.043	26842
820.184	26765
820.324	26853
820.465	26765
820.605	26842
820.746	26895
820.886	26880
821.026	26880
821.167	26720
821.307	26819
821.447	26651
821.588	26507
821.728	26594
821.868	26370
822.008	26183
822.149	26225
822.289	26065
822.429	25894
822.569	25875
822.709	25807
822.849	25677
822.99	25712
823.13	25719
823.27	25605
823.41	25533
823.55	25354
823.69	25495
823.83	25464
823.97	25559
824.11	25168
824.25	25285
824.389	25274
824.529	25491
824.669	25304
824.809	25381
824.949	25400
825.089	25312
825.228	25365
825.368	25103
825.508	25110
825.648	25168
825.787	25244
825.927	25274
826.067	25221
826.206	25225
826.346	25183
826.485	25148
826.625	25225
826.765	25228
826.904	25198
827.044	24951
827.183	24939
827.323	24829
827.462	24920
827.601	24901
827.741	24730
827.88	24897
828.02	24817
828.159	24939
828.298	24939
828.437	24958
828.577	24833
828.716	24992
828.855	24901
828.994	24528
829.134	24738
829.273	24772
829.412	24422
829.551	24475
829.69	24540
829.829	24601
829.968	24555
830.107	24635
830.246	24646
830.385	24479
830.524	24460
830.663	24289
830.802	24258
830.941	24159
831.08	24281
831.219	24311
831.357	24304
831.496	24483
831.635	24167
831.774	24216
831.913	24121
832.051	23958
832.19	24030
832.329	24026
832.467	24095
832.606	23866
832.744	23847
832.883	23798
833.022	23843
833.16	23946
833.299	23946
833.437	23901
833.576	23950
833.714	23999
833.852	24026
833.991	24034
834.129	24159
834.267	23984
834.406	24015
834.544	23984
834.682	24041
834.821	23775
834.959	24098
835.097	23904
835.235	23843
835.373	23866
835.511	24022
835.65	23870
835.788	23897
835.926	23684
836.064	23668
836.202	23714
836.34	23756
836.478	23893
836.615	23642
836.753	23783
836.891	23809
837.029	23908
837.167	23691
837.305	23672
837.443	23710
837.58	23581
837.718	23703
837.856	23710
837.993	23623
838.131	23501
838.269	23444
838.406	23676
838.544	23368
838.681	23292
838.819	23273
838.956	23132
839.094	23132
839.231	23166
839.369	23227
839.506	23512
839.643	23318
839.781	23140
839.918	23022
840.055	23018
840.193	23052
840.33	23010
840.467	23010
840.604	23121
840.742	23284
840.879	22869
841.016	23048
841.153	22953
841.29	23090
841.427	23025
841.564	23003
841.701	23037
841.838	22942
841.975	23075
842.112	22896
842.249	22869
842.385	22698
842.522	22866
842.659	22873
842.796	22740
842.933	22740
843.069	22793
843.206	22675
843.343	22820
843.479	22801
843.616	22691
843.752	22660
843.889	22573
844.025	22698
844.162	22603
844.298	22637
844.435	22550
844.571	22546
844.708	22584
844.844	22717
844.98	22721
845.117	22736
845.253	22474
845.389	22481
845.525	22421
845.661	22459
845.798	22280
845.934	22363
846.07	22154
846.206	22413
846.342	22386
846.478	22238
846.614	22173
846.75	21884
846.886	22162
847.022	22063
847.158	22074
847.294	22059
847.429	22128
847.565	21964
847.701	22124
847.837	21899
847.972	21671
848.108	21876
848.244	21778
848.379	21656
848.515	21534
848.65	21534
848.786	21610
848.921	21717
849.057	21739
849.192	21720
849.328	21603
849.463	21622
849.598	21568
849.734	21485
849.869	21386
850.004	21428
850.14	21443
850.275	21389
850.41	21378
850.545	21256
850.68	21321
850.815	21378
850.95	21344
851.085	21526
851.22	21473
851.355	21393
851.49	21302
851.625	21439
851.76	21374
851.895	21233
852.03	21252
852.165	21389
852.299	21462
852.434	21492
852.569	21454
852.703	21431
852.838	21462
852.973	21564
853.107	21450
853.242	21367
853.376	21116
853.511	21173
853.645	21154
853.78	21298
853.914	21233
854.048	21089
854.183	21214
854.317	21302
854.451	21420
854.585	21165
854.72	21256
854.854	21260
854.988	21203
855.122	21131
855.256	21074
855.39	21161
855.524	21313
855.658	21325
855.792	21199
855.926	21287
856.06	21207
856.194	21268
856.327	21169
856.461	21077
856.595	21165
856.729	21226
856.862	21291
856.996	21245
857.13	21241
857.263	21332
857.397	21211
857.53	21230
857.664	21291
857.797	21264
857.931	21302
858.064	21184
858.197	21431
858.331	21222
858.464	21138
858.597	21116
858.731	21135
858.864	21173
858.997	21142
859.13	21195
859.263	21325
859.396	21252
859.529	21237
859.662	21104
859.795	21165
859.928	21275
860.061	21359
860.194	21401
860.327	21252
860.46	21382
860.592	21348
860.725	21344
860.858	21454
860.99	21154
861.123	21157
861.256	21207
861.388	21249
861.521	21850
861.653	21013
861.786	20918
861.918	21093
862.05	21055
862.183	21032
862.315	21184
862.447	21302
862.58	21070
862.712	20918
862.844	20952
862.976	21058
863.108	20994
863.24	21378
863.372	20727
863.504	20826
863.636	20902
863.768	20929
863.9	20925
864.032	20845
864.164	20864
864.296	21005
864.428	20960
864.559	21074
864.691	21112
864.823	20864
864.954	21001
865.086	20838
865.217	20834
865.349	20872
865.48	20750
865.612	20807
865.743	20963
865.875	20800
866.006	20750
866.137	20845
866.269	20769
866.4	20716
866.531	20720
866.662	20708
866.793	20743
866.924	20743
867.055	20686
867.186	20781
867.317	20651
867.448	20689
867.579	20712
867.71	20682
867.841	20686
867.972	20720
868.103	20693
868.233	20739
868.364	20785
868.495	20899
868.625	20914
868.756	21211
868.886	20971
869.017	21051
869.147	21211
869.278	21173
869.408	21070
869.539	21032
869.669	21047
869.799	21104
869.929	21081
870.06	21146
870.19	21275
870.32	21077
870.45	21310
870.58	21355
870.71	21447
870.84	21447
870.97	21428
871.1	21447
871.23	21511
871.36	21595
871.489	21412
871.619	21591
871.749	21641
871.879	21686
872.008	21553
872.138	21553
872.267	21709
872.397	21557
872.526	21447
872.656	21500
872.785	21431
872.915	21679
873.044	21690
873.173	21523
873.303	21599
873.432	21614
873.561	21663
873.69	21599
873.819	21682
873.948	21808
874.077	21523
874.206	21603
874.335	21656
874.464	21705
874.593	21781
874.722	21842
874.851	21907
874.979	22013
875.108	21975
875.237	21686
875.365	21713
875.494	21816
875.623	21846
875.751	21838
875.88	21934
876.008	21812
876.136	22082
876.265	22284
876.393	22306
876.521	22337
876.65	22356
876.778	22204
876.906	22234
877.034	22025
877.162	22265
877.29	22055
877.418	22135
877.546	22238
877.674	22211
877.802	22093
877.93	22242
878.058	22158
878.185	22105
878.313	22101
878.441	22185
878.568	22067
878.696	22268
878.824	22097
878.951	22226
879.079	22398
879.206	22565
879.333	22360
879.461	22325
879.588	22337
879.715	22421
879.842	22398
879.97	22242
880.097	22059
880.224	21934
880.351	22055
880.478	22112
880.605	21854
880.732	22158
880.859	22200
880.986	22090
881.112	22002
881.239	21869
881.366	21774
881.493	21633
881.619	21473
881.746	21633
881.872	21576
881.999	21477
882.125	21610
882.252	21542
882.378	21587
882.505	21644
882.631	21485
882.757	21275
882.883	21256
883.01	21332
883.136	21142
883.262	21218
883.388	21165
883.514	21348
883.64	21272
883.766	21195
883.892	21165
884.018	21112
884.143	21272
884.269	21138
884.395	21017
884.52	20868
884.646	20941
884.772	20910
884.897	20796
885.023	20910
885.148	20994
885.274	21180
885.399	21062
885.524	20914
885.65	20887
885.775	20895
885.9	20853
886.025	21009
886.15	20914
886.275	20895
886.4	20883
886.525	20895
886.65	20838
886.775	20891
886.9	21055
887.025	21131
887.149	20792
887.274	20731
887.399	20701
887.523	20674
887.648	20613
887.773	20617
887.897	20670
888.021	20788
888.146	20701
888.27	20781
888.395	20724
888.519	20750
888.643	20644
888.767	20716
888.891	20640
889.015	20431
889.139	20549
889.263	20480
889.387	20583
889.511	20735
889.635	20640
889.759	20434
889.883	20530
890.006	20571
890.13	20568
890.254	20476
890.377	20518
890.501	20290
890.624	20180
890.748	20347
890.871	20320
890.995	20020
891.118	19974
891.241	20058
891.364	20122
891.488	20164
891.611	20126
891.734	20077
891.857	20130
891.98	19993
892.103	20073
892.226	20107
892.349	20016
892.471	19887
892.594	20046
892.717	20020
892.839	20065
892.962	20065
893.085	20088
893.207	19970
893.33	19814
893.452	19845
893.575	20092
893.697	19856
893.819	20126
893.941	20233
894.064	20050
894.186	19921
894.308	19906
894.43	20020
894.552	20187
894.674	20027
894.796	19883
894.918	20035
895.04	19852
895.161	20119
895.283	20016
895.405	19883
895.526	20008
895.648	19967
895.769	19963
895.891	19947
896.012	20054
896.134	20103
896.255	19978
896.376	19906
896.498	20046
896.619	20069
896.74	20050
896.861	20088
896.982	20275
897.103	20450
897.224	20317
897.345	20218
897.466	20008
897.587	20195
897.708	20286
897.828	20084
897.949	20180
898.07	20046
898.19	20031
898.311	20355
898.431	20069
898.552	20176
898.672	20183
898.792	20233
898.913	20130
899.033	20153
899.153	20084
899.273	19974
899.393	19917
899.513	19986
899.633	20005
899.753	20001
899.873	19822
899.993	19940
900.113	19902
900.232	19944
900.352	19970
900.472	19799
900.591	19841
900.711	19696
900.83	19799
900.95	19761
901.069	19814
901.189	19597
901.308	19312
901.427	19232
901.546	19285
901.665	19308
901.784	19244
901.904	19194
902.023	19129
902.141	18882
902.26	18840
902.379	18856
902.498	18852
902.617	18776
902.735	18909
902.854	18772
902.973	18821
903.091	18494
903.21	18479
903.328	18460
903.446	18346
903.565	18311
903.683	18350
903.801	18186
903.919	18327
904.038	18186
904.156	17984
904.274	18197
904.392	18060
904.51	18072
904.627	17977
904.745	18072
904.863	18076
904.981	17813
905.098	17779
905.216	17691
905.334	17847
905.451	17729
905.569	17851
905.686	17775
905.803	17627
905.921	17539
906.038	17630
906.155	17562
906.272	17497
906.389	17406
906.506	17284
906.623	17250
906.74	17277
906.857	17170
906.974	17178
907.091	17391
907.208	17299
907.324	17303
907.441	17227
907.557	17071
907.674	17064
907.79	17086
907.907	16862
908.023	17128
908.139	16965
908.256	16877
908.372	16957
908.488	16816
908.604	16759
908.72	16679
908.836	16733
908.952	16771
909.068	16729
909.184	16835
909.3	16755
909.415	16717
909.531	16771
909.647	16443
909.762	16447
909.878	16337
909.993	16394
910.108	16470
910.224	16375
910.339	16394
910.454	16379
910.57	16314
910.685	16154
910.8	16386
910.915	16409
911.03	16234
911.145	16120
911.259	16025
911.374	16071
911.489	15937
911.604	15869
911.718	15793
911.833	15842
911.947	15728
912.062	15591
912.176	15717
912.291	15762
912.405	15698
912.519	15964
912.633	15941
912.748	15876
912.862	15823
912.976	15648
913.09	15481
913.204	15534
913.318	15572
913.431	15610
913.545	15568
913.659	15789
913.772	15545
913.886	15332
914	15359
914.113	15450
914.226	15477
914.34	15511
914.453	15313
914.566	15412
914.68	15336
914.793	15195
914.906	15047
915.019	14899
915.132	14914
915.245	14914
915.358	14929
915.47	14933
915.583	14921
915.696	15093
915.809	15028
915.921	15066
916.034	14990
916.146	14895
916.259	14876
916.371	15024
916.483	14971
916.595	14758
916.708	14864
916.82	14815
916.932	14807
917.044	14819
917.156	14724
917.268	14560
917.38	14636
917.491	14590
917.603	14693
917.715	14727
917.826	14731
917.938	14610
918.049	14347
918.161	14530
918.272	14693
918.384	14724
918.495	14545
918.606	14423
918.717	14408
918.828	14522
918.939	14431
919.05	14317
919.161	14408
919.272	14191
919.383	14149
919.494	14419
919.604	14545
919.715	14404
919.826	14324
919.936	14442
920.047	14503
920.157	14423
920.267	14412
920.378	14461
920.488	14381
920.598	14518
920.708	14674
920.818	14575
920.928	14518
921.038	14682
921.148	14670
921.258	14351
921.368	14107
921.477	14153
921.587	14138
921.697	14088
921.806	14107
921.916	13997
922.025	13685
922.134	13742
922.244	13723
922.353	13826
922.462	13647
922.571	13594
922.68	13521
922.789	13434
922.898	13403
923.007	13369
923.116	13407
923.224	13358
923.333	13350
923.442	13236
923.55	13206
923.659	13285
923.767	13255
923.876	13240
923.984	13320
924.092	13190
924.201	13247
924.309	13156
924.417	13183
924.525	13053
924.633	13114
924.741	13871
924.849	12890
924.956	13015
925.064	12821
925.172	12783
925.279	12749
925.387	12821
925.494	12871
925.602	12993
925.709	12852
925.816	12795
925.924	12707
926.031	12878
926.138	12787
926.245	12734
926.352	12578
926.459	12814
926.566	12821
926.673	12662
926.779	12555
926.886	12540
926.993	12429
927.099	12319
927.206	12334
927.312	12334
927.419	12403
927.525	12429
927.631	12365
927.737	12346
927.843	12289
927.95	12171
928.056	12266
928.162	12262
928.267	12395
928.373	12802
928.479	12315
928.585	12053
928.69	12171
928.796	12224
928.901	12106
929.007	11988
929.112	12163
929.218	12007
929.323	11942
929.428	11992
929.533	12098
929.638	11870
929.743	11927
929.848	11931
929.953	11859
930.058	11832
930.163	11638
930.267	11718
930.372	11786
930.477	11638
930.581	11851
930.685	11676
930.79	11562
930.894	11596
930.998	11543
931.103	11577
931.207	11284
931.311	11265
931.415	11151
931.519	10873
931.623	10923
