Data from test_V78500241_2107.txt Node
Date: Fri Mar 25 15:24:31 CST 2022
User: usil
Spectrometer: V785-0024
Trigger mode: 0
Integration Time (sec): 4.000000E-1
Scans to average: 1
Nonlinearity correction enabled: false
Boxcar width: 0
Storing dark spectrum: false
XAxis mode: Wavelengths
Number of Pixels in Spectrum: 1024
>>>>>Begin Spectral Data<<<<<
801.071	27846
801.214	27914
801.356	27625
801.499	27447
801.641	27481
801.783	27515
801.926	27515
802.068	27325
802.211	27348
802.353	27279
802.496	27180
802.638	27116
802.78	27123
802.923	27207
803.065	27005
803.208	27013
803.35	27028
803.492	27108
803.635	27180
803.777	27051
803.919	27272
804.061	27709
804.204	27329
804.346	27138
804.488	27123
804.63	27283
804.773	27135
804.915	27264
805.057	27450
805.199	27154
805.341	27431
805.483	27450
805.626	27405
805.768	27310
805.91	27393
806.052	27496
806.194	27268
806.336	27599
806.478	27439
806.62	27393
806.762	27420
806.904	27644
807.046	27888
807.188	27838
807.33	27880
807.472	27873
807.614	27831
807.756	27736
807.898	27648
808.04	27576
808.182	27686
808.324	27637
808.465	27728
808.607	27987
808.749	28105
808.891	28109
809.033	28147
809.174	27983
809.316	28086
809.458	28044
809.6	27941
809.741	28029
809.883	28070
810.025	28253
810.166	28280
810.308	28329
810.45	28162
810.591	28253
810.733	28067
810.875	27888
811.016	27869
811.158	27869
811.299	28044
811.441	28158
811.582	28078
811.724	27975
811.865	28021
812.007	28101
812.148	27907
812.29	28070
812.431	28249
812.573	28249
812.714	28512
812.855	28489
812.997	28603
813.138	28679
813.279	28611
813.421	28500
813.562	28672
813.703	28440
813.845	28249
813.986	27892
814.127	27838
814.268	27736
814.41	27842
814.551	27686
814.692	27823
814.833	27644
814.974	27705
815.115	27762
815.256	27534
815.397	27629
815.539	27580
815.68	27416
815.821	27515
815.962	27595
816.103	27523
816.244	27336
816.385	27256
816.526	27260
816.666	27020
816.807	26971
816.948	27150
817.089	27123
817.23	27032
817.371	26948
817.512	27017
817.653	26979
817.793	26933
817.934	26979
818.075	26937
818.216	26998
818.356	26815
818.497	26731
818.638	26743
818.778	26773
818.919	26788
819.06	26891
819.2	26849
819.341	26994
819.481	26899
819.622	27138
819.762	27260
819.903	27157
820.043	27119
820.184	27119
820.324	27127
820.465	27218
820.605	27127
820.746	27028
820.886	26940
821.026	27017
821.167	26921
821.307	27180
821.447	26910
821.588	26861
821.728	26735
821.868	26522
822.008	26511
822.149	26648
822.289	26431
822.429	26275
822.569	26107
822.709	26229
822.849	26058
822.99	25970
823.13	26073
823.27	26027
823.41	25689
823.55	25738
823.69	25750
823.83	25734
823.97	25635
824.11	25559
824.25	25464
824.389	25586
824.529	25651
824.669	25537
824.809	25651
824.949	25818
825.089	25651
825.228	25514
825.368	25422
825.508	25449
825.648	25533
825.787	25464
825.927	25434
826.067	25491
826.206	25449
826.346	25392
826.485	25609
826.625	25422
826.765	25518
826.904	25468
827.044	25114
827.183	25240
827.323	25190
827.462	25240
827.601	25137
827.741	25129
827.88	25171
828.02	25031
828.159	25221
828.298	25046
828.437	25129
828.577	25152
828.716	25209
828.855	25084
828.994	24939
829.134	24814
829.273	24878
829.412	24897
829.551	24817
829.69	24871
829.829	24795
829.968	24920
830.107	24947
830.246	24867
830.385	24825
830.524	24722
830.663	24669
830.802	24570
830.941	24479
831.08	24441
831.219	24517
831.357	24582
831.496	24700
831.635	24486
831.774	24399
831.913	24380
832.051	24346
832.19	24144
832.329	24403
832.467	24190
832.606	24072
832.744	24117
832.883	24182
833.022	24015
833.16	24159
833.299	24209
833.437	24213
833.576	24228
833.714	24319
833.852	24289
833.991	24330
834.129	24247
834.267	24174
834.406	24247
834.544	24342
834.682	24190
834.821	24155
834.959	24426
835.097	24155
835.235	24182
835.373	24182
835.511	24186
835.65	24140
835.788	24125
835.926	23931
836.064	23882
836.202	23847
836.34	23961
836.478	24125
836.615	23992
836.753	24045
836.891	24117
837.029	23992
837.167	23942
837.305	24041
837.443	23897
837.58	23935
837.718	23939
837.856	23942
837.993	23847
838.131	23863
838.269	23783
838.406	23729
838.544	23630
838.681	23482
838.819	23467
838.956	23356
839.094	23387
839.231	23490
839.369	23604
839.506	23676
839.643	23638
839.781	23425
839.918	23311
840.055	23273
840.193	23261
840.33	23311
840.467	23372
840.604	23273
840.742	23520
840.879	23159
841.016	23147
841.153	23185
841.29	23448
841.427	23193
841.564	23299
841.701	23265
841.838	23174
841.975	23090
842.112	23254
842.249	23006
842.385	23048
842.522	23197
842.659	22987
842.796	23048
842.933	22987
843.069	22957
843.206	22999
843.343	23098
843.479	23090
843.616	22896
843.752	22755
843.889	22904
844.025	22968
844.162	22702
844.298	22881
844.435	22698
844.571	22786
844.708	22786
844.844	22908
844.98	22946
845.117	22736
845.253	22664
845.389	22584
845.525	22767
845.661	22664
845.798	22474
845.934	22615
846.07	22394
846.206	22584
846.342	22580
846.478	22424
846.614	22322
846.75	22154
846.886	22238
847.022	22333
847.158	22181
847.294	22352
847.429	22238
847.565	22257
847.701	22485
847.837	21964
847.972	21922
848.108	21983
848.244	22120
848.379	21922
848.515	21808
848.65	21915
848.786	21888
848.921	21880
849.057	22032
849.192	21892
849.328	21895
849.463	21797
849.598	21759
849.734	21827
849.869	21755
850.004	21720
850.14	21538
850.275	21743
850.41	21458
850.545	21644
850.68	21561
850.815	21622
850.95	21625
851.085	21778
851.22	21823
851.355	21606
851.49	21629
851.625	21720
851.76	21614
851.895	21572
852.03	21557
852.165	21587
852.299	21690
852.434	21785
852.569	21599
852.703	21713
852.838	21660
852.973	21675
853.107	21720
853.242	21603
853.376	21466
853.511	21351
853.645	21439
853.78	21564
853.914	21466
854.048	21420
854.183	21439
854.317	21587
854.451	21660
854.585	21272
854.72	21500
854.854	21553
854.988	21443
855.122	21431
855.256	21378
855.39	21473
855.524	21477
855.658	21504
855.792	21363
855.926	21511
856.06	21534
856.194	21652
856.327	21424
856.461	21306
856.595	21363
856.729	21397
856.862	21523
856.996	21614
857.13	21515
857.263	21545
857.397	21447
857.53	21492
857.664	21435
857.797	21515
857.931	21485
858.064	21515
858.197	21504
858.331	21485
858.464	21382
858.597	21264
858.731	21447
858.864	21389
858.997	21378
859.13	21519
859.263	21397
859.396	21591
859.529	21321
859.662	21412
859.795	21435
859.928	21481
860.061	21637
860.194	21705
860.327	21393
860.46	21488
860.592	21424
860.725	21538
860.858	21656
860.99	21363
861.123	21370
861.256	21534
861.388	21603
861.521	22131
861.653	21291
861.786	21332
861.918	21275
862.05	21397
862.183	21416
862.315	21382
862.447	21469
862.58	21321
862.712	21165
862.844	21055
862.976	21291
863.108	21245
863.24	21622
863.372	21146
863.504	21222
863.636	21074
863.768	21184
863.9	21218
864.032	21085
864.164	21070
864.296	21150
864.428	21363
864.559	21199
864.691	21233
864.823	21135
864.954	21077
865.086	21116
865.217	20944
865.349	20895
865.48	21058
865.612	21119
865.743	21176
865.875	20994
866.006	21055
866.137	21096
866.269	21062
866.4	21005
866.531	20960
866.662	20895
866.793	20823
866.924	20933
867.055	21001
867.186	21009
867.317	20952
867.448	20967
867.579	20963
867.71	20914
867.841	20872
867.972	21009
868.103	20925
868.233	20937
868.364	21001
868.495	21043
868.625	21161
868.756	21321
868.886	21176
869.017	21275
869.147	21108
869.278	21325
869.408	21176
869.539	21165
869.669	21340
869.799	21313
869.929	21329
870.06	21260
870.19	21526
870.32	21454
870.45	21511
870.58	21534
870.71	21743
870.84	21812
870.97	21652
871.1	21629
871.23	21789
871.36	21762
871.489	21698
871.619	21857
871.749	21698
871.879	21800
872.008	21861
872.138	21800
872.267	21812
872.397	21709
872.526	21698
872.656	21549
872.785	21713
872.915	21755
873.044	21892
873.173	21945
873.303	21831
873.432	21880
873.561	21865
873.69	21846
873.819	21854
873.948	21964
874.077	21857
874.206	21789
874.335	21941
874.464	21888
874.593	22048
874.722	22036
874.851	22097
874.979	22063
875.108	22185
875.237	21975
875.365	21937
875.494	21949
875.623	22067
875.751	22025
875.88	22150
876.008	22215
876.136	22344
876.265	22440
876.393	22573
876.521	22508
876.65	22443
876.778	22443
876.906	22265
877.034	22322
877.162	22489
877.29	22417
877.418	22500
877.546	22386
877.674	22390
877.802	22573
877.93	22341
878.058	22238
878.185	22295
878.313	22295
878.441	22306
878.568	22249
878.696	22291
878.824	22363
878.951	22428
879.079	22535
879.206	22645
879.333	22557
879.461	22497
879.588	22417
879.715	22694
879.842	22664
879.97	22577
880.097	22101
880.224	22207
880.351	22261
880.478	22265
880.605	22268
880.732	22158
880.859	22413
880.986	22143
881.112	22120
881.239	21960
881.366	21915
881.493	21915
881.619	21781
881.746	21778
881.872	21907
881.999	21743
882.125	21770
882.252	21827
882.378	21759
882.505	21797
882.631	21713
882.757	21515
882.883	21603
883.01	21492
883.136	21386
883.262	21249
883.388	21230
883.514	21424
883.64	21435
883.766	21485
883.892	21214
884.018	21443
884.143	21447
884.269	21435
884.395	21287
884.52	21066
884.646	21211
884.772	21089
884.897	20982
885.023	21043
885.148	21287
885.274	21237
885.399	21176
885.524	21173
885.65	21119
885.775	21116
885.9	21173
886.025	21150
886.15	21313
886.275	21150
886.4	21051
886.525	21180
886.65	20982
886.775	21085
886.9	21260
887.025	21252
887.149	21089
887.274	20811
887.399	20853
887.523	20834
887.648	20857
887.773	20758
887.897	21062
888.021	20853
888.146	20788
888.27	20929
888.395	20906
888.519	20979
888.643	20990
888.767	20918
888.891	20746
889.015	20724
889.139	20754
889.263	20686
889.387	20800
889.511	20823
889.635	20785
889.759	20636
889.883	20678
890.006	20902
890.13	20708
890.254	20636
890.377	20583
890.501	20404
890.624	20362
890.748	20370
890.871	20385
890.995	20328
891.118	20168
891.241	20358
891.364	20252
891.488	20404
891.611	20317
891.734	20290
891.857	20282
891.98	20275
892.103	20298
892.226	20309
892.349	20183
892.471	20031
892.594	20130
892.717	20248
892.839	20084
892.962	20130
893.085	20149
893.207	20134
893.33	20119
893.452	20115
893.575	20126
893.697	20103
893.819	20355
893.941	20381
894.064	20351
894.186	20084
894.308	20031
894.43	20202
894.552	20324
894.674	20187
894.796	20073
894.918	20180
895.04	20153
895.161	20084
895.283	20157
895.405	20054
895.526	20062
895.648	20084
895.769	20126
895.891	20145
896.012	20206
896.134	20259
896.255	20248
896.376	20187
896.498	20122
896.619	20244
896.74	20183
896.861	20328
896.982	20374
897.103	20590
897.224	20526
897.345	20275
897.466	20271
897.587	20442
897.708	20530
897.828	20438
897.949	20362
898.07	20176
898.19	20317
898.311	20404
898.431	20267
898.552	20537
898.672	20427
898.792	20571
898.913	20412
899.033	20259
899.153	20122
899.273	20065
899.393	20176
899.513	20153
899.633	20195
899.753	20259
899.873	20111
899.993	20119
900.113	20050
900.232	20115
900.352	20126
900.472	20005
900.591	19788
900.711	20016
900.83	19830
900.95	20069
901.069	20084
901.189	19757
901.308	19563
901.427	19518
901.546	19518
901.665	19613
901.784	19510
901.904	19350
902.023	19377
902.141	19164
902.26	18966
902.379	19122
902.498	18973
902.617	18977
902.735	19053
902.854	19012
902.973	18897
903.091	18749
903.21	18661
903.328	18688
903.446	18509
903.565	18559
903.683	18559
903.801	18422
903.919	18426
904.038	18372
904.156	18330
904.274	18342
904.392	18300
904.51	18167
904.627	18216
904.745	18285
904.863	18251
904.981	18015
905.098	18038
905.216	17863
905.334	17908
905.451	17904
905.569	17885
905.686	17901
905.803	17882
905.921	17661
906.038	17809
906.155	17767
906.272	17566
906.389	17585
906.506	17417
906.623	17383
906.74	17535
906.857	17296
906.974	17391
907.091	17433
907.208	17486
907.324	17512
907.441	17379
907.557	17223
907.674	17075
907.79	17147
907.907	17037
908.023	17162
908.139	17113
908.256	17109
908.372	17117
908.488	17022
908.604	17025
908.72	16896
908.836	16843
908.952	16831
909.068	16919
909.184	16980
909.3	16904
909.415	16927
909.531	16862
909.647	16603
909.762	16611
909.878	16611
909.993	16538
910.108	16584
910.224	16550
910.339	16550
910.454	16386
910.57	16382
910.685	16329
910.8	16554
910.915	16538
911.03	16485
911.145	16265
911.259	16169
911.374	16211
911.489	16059
911.604	16097
911.718	15850
911.833	15915
911.947	15884
912.062	15816
912.176	15915
912.291	15922
912.405	15949
912.519	16090
912.633	16105
912.748	15865
912.862	15918
912.976	15838
913.09	15568
913.204	15622
913.318	15671
913.431	15850
913.545	15774
913.659	15732
913.772	15701
913.886	15576
914	15504
914.113	15663
914.226	15595
914.34	15641
914.453	15477
914.566	15564
914.68	15454
914.793	15416
914.906	15188
915.019	15157
915.132	15085
915.245	15131
915.358	15104
915.47	15039
915.583	15188
915.696	15161
915.809	15233
915.921	15310
916.034	15047
916.146	15039
916.259	15039
916.371	15036
916.483	15104
916.595	14994
916.708	14902
916.82	14891
916.932	15020
917.044	14910
917.156	14914
917.268	14777
917.38	14765
917.491	14754
917.603	14792
917.715	14834
917.826	14857
917.938	14746
918.049	14602
918.161	14815
918.272	14849
918.384	14914
918.495	14739
918.606	14568
918.717	14522
918.828	14560
918.939	14552
919.05	14415
919.161	14568
919.272	14385
919.383	14248
919.494	14594
919.604	14689
919.715	14571
919.826	14495
919.936	14503
920.047	14587
920.157	14537
920.267	14743
920.378	14530
920.488	14492
920.598	14674
920.708	14777
920.818	14590
920.928	14644
921.038	14819
921.148	14716
921.258	14389
921.368	14465
921.477	14191
921.587	14294
921.697	14100
921.806	14202
921.916	14039
922.025	13898
922.134	13830
922.244	13902
922.353	13887
922.462	13833
922.571	13727
922.68	13597
922.789	13491
922.898	13502
923.007	13362
923.116	13559
923.224	13476
923.333	13502
923.442	13369
923.55	13384
923.659	13343
923.767	13457
923.876	13278
923.984	13327
924.092	13244
924.201	13388
924.309	13270
924.417	13240
924.525	13171
924.633	13213
924.741	13982
924.849	13050
924.956	13141
925.064	12973
925.172	12913
925.279	12920
925.387	12954
925.494	13004
925.602	13076
925.709	13012
925.816	12840
925.924	12871
926.031	12943
926.138	12871
926.245	12958
926.352	12833
926.459	12886
926.566	12935
926.673	12833
926.779	12738
926.886	12700
926.993	12551
927.099	12517
927.206	12391
927.312	12418
927.419	12544
927.525	12391
927.631	12464
927.737	12372
927.843	12323
927.95	12251
928.056	12315
928.162	12334
928.267	12334
928.373	12852
928.479	12445
928.585	12228
928.69	12315
928.796	12266
928.901	12186
929.007	12011
929.112	12140
929.218	12197
929.323	12053
929.428	12129
929.533	12194
929.638	12030
929.743	12030
929.848	12079
929.953	11999
930.058	11847
930.163	11798
930.267	11714
930.372	11855
930.477	11657
930.581	11954
930.685	11745
930.79	11604
930.894	11680
930.998	11611
931.103	11710
931.207	11421
931.311	11273
931.415	11265
931.519	11037
931.623	11006
