Data from test_V78500241_1898.txt Node
Date: Fri Mar 25 15:23:04 CST 2022
User: usil
Spectrometer: V785-0024
Trigger mode: 0
Integration Time (sec): 4.000000E-1
Scans to average: 1
Nonlinearity correction enabled: false
Boxcar width: 0
Storing dark spectrum: false
XAxis mode: Wavelengths
Number of Pixels in Spectrum: 1024
>>>>>Begin Spectral Data<<<<<
801.071	27728
801.214	27797
801.356	27568
801.499	27447
801.641	27504
801.783	27500
801.926	27298
802.068	27431
802.211	27298
802.353	27226
802.496	26979
802.638	27036
802.78	26986
802.923	27085
803.065	26967
803.208	26876
803.35	26975
803.492	27001
803.635	27237
803.777	27169
803.919	27233
804.061	27443
804.204	27218
804.346	27055
804.488	27142
804.63	27112
804.773	27089
804.915	27161
805.057	27279
805.199	27173
805.341	27150
805.483	27355
805.626	27332
805.768	27176
805.91	27389
806.052	27195
806.194	27294
806.336	27473
806.478	27374
806.62	27272
806.762	27443
806.904	27724
807.046	27686
807.188	27778
807.33	27812
807.472	27846
807.614	27614
807.756	27694
807.898	27530
808.04	27587
808.182	27633
808.324	27641
808.465	27568
808.607	27770
808.749	27846
808.891	27998
809.033	28181
809.174	27892
809.316	27911
809.458	27831
809.6	27972
809.741	27987
809.883	27998
810.025	28200
810.166	28284
810.308	28242
810.45	28131
810.591	28230
810.733	28105
810.875	27941
811.016	27934
811.158	27759
811.299	27914
811.441	28112
811.582	28006
811.724	27964
811.865	27941
812.007	27949
812.148	27869
812.29	27911
812.431	28070
812.573	28204
812.714	28363
812.855	28390
812.997	28569
813.138	28672
813.279	28679
813.421	28554
813.562	28497
813.703	28211
813.845	28128
813.986	27941
814.127	27842
814.268	27667
814.41	27713
814.551	27538
814.692	27766
814.833	27469
814.974	27652
815.115	27576
815.256	27507
815.397	27405
815.539	27405
815.68	27496
815.821	27401
815.962	27439
816.103	27370
816.244	27294
816.385	27340
816.526	27230
816.666	27009
816.807	26857
816.948	27051
817.089	26967
817.23	26971
817.371	26921
817.512	26891
817.653	26940
817.793	26868
817.934	27017
818.075	26739
818.216	26914
818.356	26868
818.497	26811
818.638	26621
818.778	26762
818.919	26636
819.06	26758
819.2	26769
819.341	26861
819.481	26956
819.622	27085
819.762	27306
819.903	27146
820.043	27256
820.184	27154
820.324	27020
820.465	26971
820.605	27074
820.746	27017
820.886	26845
821.026	27074
821.167	26967
821.307	27043
821.447	26994
821.588	26929
821.728	26701
821.868	26556
822.008	26446
822.149	26366
822.289	26415
822.429	26092
822.569	25970
822.709	26058
822.849	25890
822.99	25883
823.13	25921
823.27	25799
823.41	25822
823.55	25537
823.69	25765
823.83	25757
823.97	25731
824.11	25537
824.25	25586
824.389	25491
824.529	25567
824.669	25556
824.809	25624
824.949	25609
825.089	25662
825.228	25613
825.368	25373
825.508	25483
825.648	25270
825.787	25483
825.927	25479
826.067	25377
826.206	25384
826.346	25339
826.485	25422
826.625	25479
826.765	25681
826.904	25441
827.044	25209
827.183	25194
827.323	25236
827.462	25244
827.601	24996
827.741	25034
827.88	25225
828.02	25023
828.159	25129
828.298	25217
828.437	25187
828.577	25065
828.716	25251
828.855	25004
828.994	24924
829.134	24901
829.273	24913
829.412	24779
829.551	24829
829.69	24806
829.829	24825
829.968	24954
830.107	24909
830.246	24821
830.385	24753
830.524	24779
830.663	24753
830.802	24623
830.941	24536
831.08	24418
831.219	24536
831.357	24593
831.496	24646
831.635	24490
831.774	24475
831.913	24369
832.051	24315
832.19	24277
832.329	24178
832.467	24254
832.606	24121
832.744	24049
832.883	24201
833.022	24053
833.16	24129
833.299	24079
833.437	24159
833.576	24239
833.714	24205
833.852	24315
833.991	24220
834.129	24365
834.267	24357
834.406	24186
834.544	24327
834.682	24235
834.821	24247
834.959	24494
835.097	24129
835.235	24346
835.373	24190
835.511	24300
835.65	24049
835.788	24041
835.926	23958
836.064	23878
836.202	23897
836.34	24022
836.478	24125
836.615	23939
836.753	24125
836.891	24243
837.029	24117
837.167	23946
837.305	23958
837.443	23832
837.58	23889
837.718	23859
837.856	23843
837.993	23790
838.131	23775
838.269	23771
838.406	23813
838.544	23802
838.681	23672
838.819	23596
838.956	23379
839.094	23356
839.231	23376
839.369	23482
839.506	23691
839.643	23657
839.781	23425
839.918	23303
840.055	23372
840.193	23497
840.33	23307
840.467	23299
840.604	23239
840.742	23623
840.879	23132
841.016	23235
841.153	23178
841.29	23452
841.427	23273
841.564	23204
841.701	23356
841.838	23200
841.975	23223
842.112	23265
842.249	23311
842.385	23121
842.522	23254
842.659	23117
842.796	23025
842.933	23102
843.069	22999
843.206	23052
843.343	23143
843.479	23044
843.616	23022
843.752	22866
843.889	22820
844.025	22915
844.162	22778
844.298	22946
844.435	22820
844.571	22752
844.708	22759
844.844	22953
844.98	22946
845.117	23041
845.253	22778
845.389	22675
845.525	22691
845.661	22626
845.798	22577
845.934	22478
846.07	22478
846.206	22618
846.342	22607
846.478	22493
846.614	22386
846.75	22295
846.886	22280
847.022	22329
847.158	22287
847.294	22276
847.429	22348
847.565	22284
847.701	22519
847.837	22013
847.972	21994
848.108	22090
848.244	22116
848.379	21994
848.515	21915
848.65	21922
848.786	21838
848.921	21838
849.057	21842
849.192	21926
849.328	21941
849.463	21827
849.598	21865
849.734	21762
849.869	21717
850.004	21580
850.14	21724
850.275	21671
850.41	21625
850.545	21618
850.68	21660
850.815	21507
850.95	21637
851.085	21762
851.22	21690
851.355	21587
851.49	21660
851.625	21656
851.76	21599
851.895	21447
852.03	21580
852.165	21473
852.299	21637
852.434	21762
852.569	21755
852.703	21622
852.838	21781
852.973	21778
853.107	21694
853.242	21610
853.376	21580
853.511	21351
853.645	21378
853.78	21530
853.914	21545
854.048	21389
854.183	21378
854.317	21504
854.451	21675
854.585	21481
854.72	21370
854.854	21519
854.988	21431
855.122	21447
855.256	21268
855.39	21367
855.524	21511
855.658	21504
855.792	21542
855.926	21416
856.06	21462
856.194	21511
856.327	21466
856.461	21408
856.595	21496
856.729	21405
856.862	21572
856.996	21431
857.13	21469
857.263	21511
857.397	21595
857.53	21386
857.664	21481
857.797	21420
857.931	21424
858.064	21507
858.197	21473
858.331	21454
858.464	21496
858.597	21332
858.731	21435
858.864	21389
858.997	21447
859.13	21519
859.263	21416
859.396	21462
859.529	21477
859.662	21386
859.795	21386
859.928	21515
860.061	21633
860.194	21618
860.327	21416
860.46	21507
860.592	21549
860.725	21618
860.858	21690
860.99	21549
861.123	21306
861.256	21408
861.388	21389
861.521	22082
861.653	21374
861.786	21173
861.918	21332
862.05	21412
862.183	21389
862.315	21386
862.447	21416
862.58	21241
862.712	21214
862.844	21165
862.976	21329
863.108	21245
863.24	21576
863.372	21260
863.504	21195
863.636	21161
863.768	21245
863.9	21104
864.032	21043
864.164	21001
864.296	21287
864.428	21294
864.559	21256
864.691	21142
864.823	21173
864.954	21074
865.086	21062
865.217	21135
865.349	21112
865.48	21074
865.612	21135
865.743	21089
865.875	21093
866.006	21005
866.137	20868
866.269	21116
866.4	21013
866.531	20948
866.662	21051
866.793	20887
866.924	21085
867.055	20979
867.186	20952
867.317	20899
867.448	20963
867.579	21028
867.71	20910
867.841	20952
867.972	20956
868.103	20902
868.233	20941
868.364	20895
868.495	21085
868.625	21230
868.756	21298
868.886	21123
869.017	21214
869.147	21355
869.278	21260
869.408	21306
869.539	21169
869.669	21367
869.799	21272
869.929	21275
870.06	21355
870.19	21545
870.32	21450
870.45	21504
870.58	21622
870.71	21724
870.84	21759
870.97	21728
871.1	21583
871.23	21751
871.36	21789
871.489	21705
871.619	21724
871.749	21850
871.879	21778
872.008	21960
872.138	21907
872.267	21842
872.397	21686
872.526	21701
872.656	21610
872.785	21595
872.915	21831
873.044	21907
873.173	22017
873.303	21876
873.432	21953
873.561	21922
873.69	21861
873.819	21724
873.948	21918
874.077	21819
874.206	21789
874.335	21869
874.464	22025
874.593	22059
874.722	22044
874.851	22097
874.979	22029
875.108	22097
875.237	21983
875.365	21953
875.494	22025
875.623	22154
875.751	21915
875.88	22128
876.008	22101
876.136	22185
876.265	22660
876.393	22554
876.521	22504
876.65	22535
876.778	22489
876.906	22402
877.034	22344
877.162	22462
877.29	22409
877.418	22485
877.546	22485
877.674	22440
877.802	22428
877.93	22367
878.058	22276
878.185	22215
878.313	22344
878.441	22402
878.568	22074
878.696	22504
878.824	22451
878.951	22523
879.079	22561
879.206	22702
879.333	22538
879.461	22443
879.588	22421
879.715	22630
879.842	22713
879.97	22405
880.097	22219
880.224	22257
880.351	22284
880.478	22337
880.605	22177
880.732	22204
880.859	22348
880.986	22124
881.112	22242
881.239	22124
881.366	21998
881.493	21991
881.619	21949
881.746	21850
881.872	21854
881.999	21800
882.125	21850
882.252	21785
882.378	21816
882.505	21972
882.631	21580
882.757	21572
882.883	21641
883.01	21572
883.136	21466
883.262	21256
883.388	21424
883.514	21568
883.64	21587
883.766	21443
883.892	21279
884.018	21344
884.143	21450
884.269	21500
884.395	21249
884.52	21165
884.646	21119
884.772	21123
884.897	21001
885.023	21161
885.148	21226
885.274	21412
885.399	21321
885.524	21207
885.65	21173
885.775	21230
885.9	21119
886.025	21192
886.15	21142
886.275	21161
886.4	21077
886.525	21150
886.65	20910
886.775	20941
886.9	21214
887.025	21321
887.149	21150
887.274	21047
887.399	20823
887.523	21066
887.648	20845
887.773	20933
887.897	21062
888.021	20929
888.146	20857
888.27	20914
888.395	20967
888.519	20979
888.643	21051
888.767	21058
888.891	20811
889.015	20796
889.139	20758
889.263	20659
889.387	20864
889.511	20864
889.635	20758
889.759	20712
889.883	20625
890.006	20739
890.13	20773
890.254	20609
890.377	20670
890.501	20431
890.624	20412
890.748	20495
890.871	20366
890.995	20157
891.118	20301
891.241	20374
891.364	20309
891.488	20377
891.611	20450
891.734	20187
891.857	20381
891.98	20206
892.103	20271
892.226	20290
892.349	20149
892.471	20084
892.594	20263
892.717	20229
892.839	20084
892.962	20256
893.085	20286
893.207	20195
893.33	20149
893.452	20081
893.575	20122
893.697	20168
893.819	20339
893.941	20446
894.064	20176
894.186	20168
894.308	20054
894.43	20259
894.552	20324
894.674	20237
894.796	20100
894.918	20126
895.04	20081
895.161	20221
895.283	20259
895.405	20100
895.526	20214
895.648	20130
895.769	20195
895.891	20317
896.012	20210
896.134	20145
896.255	20210
896.376	20206
896.498	20225
896.619	20225
896.74	20206
896.861	20138
896.982	20473
897.103	20568
897.224	20366
897.345	20240
897.466	20332
897.587	20347
897.708	20522
897.828	20263
897.949	20317
898.07	20305
898.19	20271
898.311	20377
898.431	20339
898.552	20355
898.672	20495
898.792	20419
898.913	20473
899.033	20252
899.153	20202
899.273	20130
899.393	20145
899.513	20267
899.633	20103
899.753	20248
899.873	20130
899.993	20176
900.113	20088
900.232	20153
900.352	20069
900.472	20001
900.591	19879
900.711	19799
900.83	19932
900.95	20039
901.069	20081
901.189	19776
901.308	19586
901.427	19483
901.546	19529
901.665	19472
901.784	19468
901.904	19335
902.023	19293
902.141	19015
902.26	19164
902.379	19046
902.498	19031
902.617	18989
902.735	19129
902.854	19050
902.973	18928
903.091	18654
903.21	18665
903.328	18654
903.446	18506
903.565	18521
903.683	18498
903.801	18380
903.919	18403
904.038	18445
904.156	18247
904.274	18308
904.392	18254
904.51	18311
904.627	18262
904.745	18220
904.863	18395
904.981	18019
905.098	17927
905.216	17893
905.334	17946
905.451	17893
905.569	17863
905.686	17904
905.803	17824
905.921	17783
906.038	17779
906.155	17821
906.272	17600
906.389	17585
906.506	17395
906.623	17615
906.74	17474
906.857	17372
906.974	17273
907.091	17414
907.208	17532
907.324	17547
907.441	17417
907.557	17193
907.674	17128
907.79	17166
907.907	17178
908.023	17159
908.139	17223
908.256	17098
908.372	17060
908.488	17071
908.604	17075
908.72	16881
908.836	16972
908.952	16824
909.068	16949
909.184	16881
909.3	17003
909.415	16835
909.531	16839
909.647	16569
909.762	16691
909.878	16546
909.993	16592
910.108	16641
910.224	16535
910.339	16489
910.454	16398
910.57	16348
910.685	16325
910.8	16618
910.915	16516
911.03	16527
911.145	16276
911.259	16207
911.374	16226
911.489	16032
911.604	16120
911.718	15983
911.833	15975
911.947	15831
912.062	15698
912.176	15899
912.291	15846
912.405	16002
912.519	16040
912.633	16166
912.748	16029
912.862	15949
912.976	15785
913.09	15606
913.204	15675
913.318	15751
913.431	15876
913.545	15785
913.659	15880
913.772	15701
913.886	15614
914	15542
914.113	15614
914.226	15679
914.34	15637
914.453	15424
914.566	15603
914.68	15435
914.793	15397
914.906	15184
915.019	15116
915.132	15123
915.245	15112
915.358	15222
915.47	15176
915.583	15249
915.696	15184
915.809	15176
915.921	15211
916.034	15066
916.146	15058
916.259	15005
916.371	15241
916.483	15066
916.595	14952
916.708	15051
916.82	14982
916.932	14872
917.044	14906
917.156	14785
917.268	14735
917.38	14830
917.491	14731
917.603	14876
917.715	14842
917.826	14876
917.938	14765
918.049	14705
918.161	14750
918.272	14781
918.384	14864
918.495	14716
918.606	14686
918.717	14541
918.828	14598
918.939	14617
919.05	14541
919.161	14651
919.272	14393
919.383	14457
919.494	14648
919.604	14834
919.715	14541
919.826	14522
919.936	14526
920.047	14560
920.157	14613
920.267	14629
920.378	14465
920.488	14518
920.598	14682
920.708	14804
920.818	14727
920.928	14571
921.038	14769
921.148	14720
921.258	14507
921.368	14332
921.477	14271
921.587	14164
921.697	14111
921.806	14153
921.916	14084
922.025	13978
922.134	13925
922.244	13864
922.353	13906
922.462	13811
922.571	13715
922.68	13700
922.789	13468
922.898	13597
923.007	13540
923.116	13559
923.224	13464
923.333	13544
923.442	13388
923.55	13346
923.659	13373
923.767	13468
923.876	13255
923.984	13400
924.092	13255
924.201	13362
924.309	13251
924.417	13228
924.525	13194
924.633	13266
924.741	14130
924.849	13076
924.956	13183
925.064	12996
925.172	12973
925.279	13008
925.387	12951
925.494	12981
925.602	13107
925.709	13034
925.816	12787
925.924	12939
926.031	12951
926.138	12844
926.245	12913
926.352	12852
926.459	12913
926.566	13008
926.673	12856
926.779	12795
926.886	12738
926.993	12540
927.099	12608
927.206	12509
927.312	12498
927.419	12502
927.525	12570
927.631	12559
927.737	12437
927.843	12365
927.95	12296
928.056	12296
928.162	12403
928.267	12384
928.373	12913
928.479	12464
928.585	12197
928.69	12346
928.796	12292
928.901	12224
929.007	12098
929.112	12190
929.218	12171
929.323	12102
929.428	12079
929.533	12258
929.638	11988
929.743	12026
929.848	12087
929.953	12034
930.058	11969
930.163	11745
930.267	11786
930.372	11885
930.477	11718
930.581	11965
930.685	11824
930.79	11672
930.894	11718
930.998	11570
931.103	11729
931.207	11353
931.311	11318
931.415	11204
931.519	11060
931.623	11029
