Data from test_V78500241_2617.txt Node
Date: Fri Mar 25 15:28:04 CST 2022
User: usil
Spectrometer: V785-0024
Trigger mode: 0
Integration Time (sec): 4.000000E-1
Scans to average: 1
Nonlinearity correction enabled: false
Boxcar width: 0
Storing dark spectrum: false
XAxis mode: Wavelengths
Number of Pixels in Spectrum: 1024
>>>>>Begin Spectral Data<<<<<
801.071	27165
801.214	27058
801.356	26864
801.499	26853
801.641	26640
801.783	26606
801.926	26731
802.068	26625
802.211	26552
802.353	26560
802.496	26210
802.638	26332
802.78	26324
802.923	26031
803.065	26180
803.208	26263
803.35	26309
803.492	26473
803.635	26499
803.777	26336
803.919	26514
804.061	26678
804.204	26587
804.346	26374
804.488	26355
804.63	26541
804.773	26389
804.915	26545
805.057	26499
805.199	26347
805.341	26343
805.483	26560
805.626	26434
805.768	26408
805.91	26423
806.052	26461
806.194	26488
806.336	26811
806.478	26453
806.62	26533
806.762	26533
806.904	26689
807.046	27062
807.188	26845
807.33	26975
807.472	26982
807.614	26796
807.756	26781
807.898	26781
808.04	26792
808.182	26746
808.324	26804
808.465	26845
808.607	26937
808.749	27089
808.891	27378
809.033	27264
809.174	27241
809.316	26956
809.458	27024
809.6	27066
809.741	27104
809.883	27207
810.025	27329
810.166	27233
810.308	27294
810.45	27363
810.591	27252
810.733	27192
810.875	27055
811.016	26902
811.158	27013
811.299	27230
811.441	27310
811.582	27283
811.724	27119
811.865	27176
812.007	26956
812.148	26967
812.29	27100
812.431	27207
812.573	27374
812.714	27622
812.855	27652
812.997	27774
813.138	27759
813.279	27762
813.421	27576
813.562	27466
813.703	27317
813.845	27329
813.986	26975
814.127	26826
814.268	26758
814.41	26754
814.551	26644
814.692	26944
814.833	26800
814.974	26746
815.115	26689
815.256	26674
815.397	26549
815.539	26590
815.68	26682
815.821	26434
815.962	26575
816.103	26434
816.244	26370
816.385	26202
816.526	26244
816.666	26058
816.807	26058
816.948	26058
817.089	26176
817.23	25986
817.371	25993
817.512	25986
817.653	26016
817.793	25871
817.934	26058
818.075	26081
818.216	26088
818.356	26035
818.497	25925
818.638	25643
818.778	25613
818.919	25799
819.06	25913
819.2	25841
819.341	26062
819.481	25951
819.622	26092
819.762	26320
819.903	26275
820.043	26069
820.184	26134
820.324	26172
820.465	26172
820.605	26168
820.746	26111
820.886	25974
821.026	26130
821.167	26005
821.307	26054
821.447	25871
821.588	25852
821.728	25639
821.868	25704
822.008	25476
822.149	25548
822.289	25506
822.429	25350
822.569	25202
822.709	25171
822.849	24985
822.99	24992
823.13	25012
823.27	24939
823.41	24734
823.55	24795
823.69	24821
823.83	24840
823.97	24730
824.11	24665
824.25	24646
824.389	24722
824.529	24677
824.669	24566
824.809	24802
824.949	24654
825.089	24707
825.228	24612
825.368	24559
825.508	24445
825.648	24555
825.787	24441
825.927	24601
826.067	24509
826.206	24555
826.346	24494
826.485	24536
826.625	24570
826.765	24532
826.904	24536
827.044	24258
827.183	24296
827.323	24327
827.462	24289
827.601	24235
827.741	24167
827.88	24289
828.02	24163
828.159	24209
828.298	24174
828.437	24262
828.577	24117
828.716	24243
828.855	24159
828.994	23927
829.134	23863
829.273	23927
829.412	23809
829.551	23836
829.69	24011
829.829	24053
829.968	24007
830.107	24007
830.246	23958
830.385	23794
830.524	23908
830.663	23748
830.802	23726
830.941	23608
831.08	23509
831.219	23558
831.357	23668
831.496	23802
831.635	23668
831.774	23448
831.913	23376
832.051	23326
832.19	23364
832.329	23383
832.467	23174
832.606	23181
832.744	23307
832.883	23246
833.022	23280
833.16	23235
833.299	23334
833.437	23299
833.576	23383
833.714	23334
833.852	23311
833.991	23311
834.129	23315
834.267	23353
834.406	23376
834.544	23277
834.682	23398
834.821	23280
834.959	23406
835.097	23212
835.235	23478
835.373	23402
835.511	23299
835.65	23102
835.788	23288
835.926	23010
836.064	22972
836.202	23052
836.34	23239
836.478	23299
836.615	23086
836.753	23235
836.891	23216
837.029	23117
837.167	23162
837.305	23124
837.443	23060
837.58	23064
837.718	23018
837.856	22938
837.993	23025
838.131	22896
838.269	22881
838.406	22949
838.544	22767
838.681	22561
838.819	22672
838.956	22546
839.094	22459
839.231	22360
839.369	22733
839.506	22862
839.643	22816
839.781	22516
839.918	22432
840.055	22519
840.193	22527
840.33	22493
840.467	22447
840.604	22493
840.742	22820
840.879	22276
841.016	22402
841.153	22424
841.29	22592
841.427	22348
841.564	22405
841.701	22402
841.838	22371
841.975	22333
842.112	22371
842.249	22337
842.385	22242
842.522	22485
842.659	22238
842.796	22249
842.933	22124
843.069	22158
843.206	22169
843.343	22204
843.479	22154
843.616	22139
843.752	21937
843.889	21876
844.025	22120
844.162	21979
844.298	21987
844.435	21926
844.571	21983
844.708	21949
844.844	22215
844.98	22185
845.117	22105
845.253	21778
845.389	21808
845.525	21907
845.661	21884
845.798	21728
845.934	21804
846.07	21724
846.206	21701
846.342	21854
846.478	21595
846.614	21561
846.75	21466
846.886	21397
847.022	21462
847.158	21568
847.294	21431
847.429	21572
847.565	21458
847.701	21603
847.837	21180
847.972	21165
848.108	21382
848.244	21245
848.379	21116
848.515	21127
848.65	20929
848.786	21093
848.921	20975
849.057	21093
849.192	21119
849.328	21043
849.463	21070
849.598	21001
849.734	21017
849.869	20910
850.004	20750
850.14	20811
850.275	20864
850.41	20678
850.545	20727
850.68	20712
850.815	20773
850.95	20792
851.085	20963
851.22	20845
851.355	20883
851.49	20788
851.625	20735
851.76	20834
851.895	20644
852.03	20758
852.165	20823
852.299	20880
852.434	20925
852.569	20834
852.703	20693
852.838	20899
852.973	20918
853.107	20941
853.242	20697
853.376	20594
853.511	20427
853.645	20492
853.78	20689
853.914	20632
854.048	20670
854.183	20617
854.317	20609
854.451	20823
854.585	20670
854.72	20632
854.854	20697
854.988	20507
855.122	20720
855.256	20396
855.39	20594
855.524	20682
855.658	20693
855.792	20659
855.926	20678
856.06	20693
856.194	20686
856.327	20609
856.461	20560
856.595	20568
856.729	20613
856.862	20746
856.996	20587
857.13	20659
857.263	20708
857.397	20765
857.53	20568
857.664	20663
857.797	20602
857.931	20518
858.064	20549
858.197	20804
858.331	20571
858.464	20609
858.597	20442
858.731	20575
858.864	20526
858.997	20511
859.13	20655
859.263	20655
859.396	20773
859.529	20552
859.662	20492
859.795	20579
859.928	20606
860.061	20823
860.194	20811
860.327	20708
860.46	20678
860.592	20492
860.725	20727
860.858	20750
860.99	20473
861.123	20533
861.256	20571
861.388	20651
861.521	21317
861.653	20434
861.786	20461
861.918	20564
862.05	20419
862.183	20427
862.315	20587
862.447	20632
862.58	20568
862.712	20278
862.844	20313
862.976	20385
863.108	20294
863.24	20834
863.372	20267
863.504	20286
863.636	20377
863.768	20480
863.9	20320
864.032	20237
864.164	20256
864.296	20320
864.428	20507
864.559	20362
864.691	20332
864.823	20328
864.954	20339
865.086	20336
865.217	20221
865.349	20164
865.48	20290
865.612	20313
865.743	20419
865.875	20240
866.006	19963
866.137	20240
866.269	20317
866.4	20233
866.531	20122
866.662	20073
866.793	20199
866.924	20153
867.055	20256
867.186	20202
867.317	20145
867.448	20039
867.579	20111
867.71	20145
867.841	20180
867.972	20168
868.103	20176
868.233	20084
868.364	20172
868.495	20256
868.625	20442
868.756	20533
868.886	20214
869.017	20336
869.147	20476
869.278	20609
869.408	20400
869.539	20446
869.669	20552
869.799	20461
869.929	20488
870.06	20507
870.19	20701
870.32	20617
870.45	20724
870.58	20777
870.71	20952
870.84	20861
870.97	20887
871.1	20853
871.23	20971
871.36	21020
871.489	20941
871.619	20887
871.749	20891
871.879	21055
872.008	21062
872.138	21077
872.267	20956
872.397	20948
872.526	20819
872.656	20842
872.785	20937
872.915	20982
873.044	21195
873.173	20948
873.303	21009
873.432	21013
873.561	21066
873.69	20960
873.819	20971
873.948	21081
874.077	21081
874.206	21047
874.335	21047
874.464	21142
874.593	21317
874.722	21176
874.851	21298
874.979	21233
875.108	21306
875.237	21329
875.365	21245
875.494	21199
875.623	21351
875.751	21313
875.88	21260
876.008	21283
876.136	21420
876.265	21637
876.393	21888
876.521	21819
876.65	21899
876.778	21667
876.906	21622
877.034	21587
877.162	21713
877.29	21580
877.418	21625
877.546	21675
877.674	21694
877.802	21709
877.93	21660
878.058	21660
878.185	21485
878.313	21629
878.441	21591
878.568	21348
878.696	21610
878.824	21751
878.951	21686
879.079	21842
879.206	21983
879.333	21884
879.461	21713
879.588	21793
879.715	21861
879.842	21884
879.97	21686
880.097	21473
880.224	21329
880.351	21580
880.478	21545
880.605	21397
880.732	21500
880.859	21690
880.986	21481
881.112	21435
881.239	21367
881.366	21283
881.493	21028
881.619	21089
881.746	21180
881.872	21047
881.999	21005
882.125	20963
882.252	21154
882.378	21070
882.505	21077
882.631	20895
882.757	20693
882.883	20792
883.01	20758
883.136	20689
883.262	20670
883.388	20678
883.514	20781
883.64	20792
883.766	20678
883.892	20556
884.018	20579
884.143	20670
884.269	20849
884.395	20450
884.52	20522
884.646	20415
884.772	20385
884.897	20396
885.023	20355
885.148	20587
885.274	20423
885.399	20545
885.524	20400
885.65	20320
885.775	20476
885.9	20389
886.025	20457
886.15	20522
886.275	20419
886.4	20389
886.525	20404
886.65	20358
886.775	20294
886.9	20499
887.025	20670
887.149	20511
887.274	20138
887.399	20153
887.523	20134
887.648	20157
887.773	20054
887.897	20214
888.021	20187
888.146	20119
888.27	20362
888.395	20282
888.519	20218
888.643	20202
888.767	20161
888.891	20138
889.015	20005
889.139	20031
889.263	20012
889.387	20001
889.511	20100
889.635	20199
889.759	19947
889.883	20012
890.006	19959
890.13	20024
890.254	19837
890.377	19940
890.501	19791
890.624	19693
890.748	19799
890.871	19723
890.995	19613
891.118	19544
891.241	19624
891.364	19567
891.488	19666
891.611	19582
891.734	19544
891.857	19658
891.98	19533
892.103	19643
892.226	19537
892.349	19472
892.471	19331
892.594	19327
892.717	19476
892.839	19426
892.962	19419
893.085	19613
893.207	19460
893.33	19491
893.452	19373
893.575	19396
893.697	19563
893.819	19518
893.941	19677
894.064	19563
894.186	19369
894.308	19415
894.43	19537
894.552	19662
894.674	19544
894.796	19403
894.918	19544
895.04	19483
895.161	19464
895.283	19476
895.405	19419
895.526	19525
895.648	19392
895.769	19594
895.891	19594
896.012	19563
896.134	19502
896.255	19514
896.376	19381
896.498	19468
896.619	19563
896.74	19453
896.861	19670
896.982	19814
897.103	19807
897.224	19780
897.345	19742
897.466	19662
897.587	19753
897.708	19871
897.828	19727
897.949	19677
898.07	19548
898.19	19578
898.311	19776
898.431	19651
898.552	19769
898.672	19723
898.792	19765
898.913	19746
899.033	19712
899.153	19578
899.273	19502
899.393	19464
899.513	19502
899.633	19491
899.753	19400
899.873	19392
899.993	19548
900.113	19457
900.232	19407
900.352	19346
900.472	19301
900.591	19110
900.711	19350
900.83	19282
900.95	19411
901.069	19228
901.189	19160
901.308	18935
901.427	18806
901.546	18913
901.665	18920
901.784	18890
901.904	18696
902.023	18612
902.141	18433
902.26	18338
902.379	18441
902.498	18426
902.617	18437
902.735	18464
902.854	18315
902.973	18251
903.091	18163
903.21	18022
903.328	18114
903.446	17931
903.565	17942
903.683	17802
903.801	17649
903.919	17859
904.038	17786
904.156	17646
904.274	17729
904.392	17608
904.51	17539
904.627	17646
904.745	17703
904.863	17710
904.981	17414
905.098	17292
905.216	17269
905.334	17307
905.451	17356
905.569	17277
905.686	17341
905.803	17284
905.921	17006
906.038	17250
906.155	17159
906.272	16987
906.389	17067
906.506	16767
906.623	16778
906.74	16820
906.857	16752
906.974	16744
907.091	16847
907.208	16911
907.324	17003
907.441	16759
907.557	16603
907.674	16618
907.79	16535
907.907	16637
908.023	16596
908.139	16546
908.256	16481
908.372	16470
908.488	16352
908.604	16265
908.72	16234
908.836	16265
908.952	16234
909.068	16379
909.184	16402
909.3	16272
909.415	16230
909.531	16261
909.647	16025
909.762	16048
909.878	16074
909.993	16021
910.108	15918
910.224	15945
910.339	15983
910.454	15907
910.57	15831
910.685	15785
910.8	16059
910.915	16093
911.03	15770
911.145	15709
911.259	15568
911.374	15641
911.489	15625
911.604	15530
911.718	15287
911.833	15378
911.947	15313
912.062	15264
912.176	15424
912.291	15496
912.405	15393
912.519	15515
912.633	15606
912.748	15408
912.862	15332
912.976	15150
913.09	15154
913.204	15211
913.318	15188
913.431	15256
913.545	15302
913.659	15260
913.772	15066
913.886	15100
914	15017
914.113	15074
914.226	15077
914.34	15184
914.453	14838
914.566	15039
914.68	14880
914.793	14918
914.906	14610
915.019	14613
915.132	14530
915.245	14594
915.358	14682
915.47	14636
915.583	14701
915.696	14644
915.809	14796
915.921	14754
916.034	14541
916.146	14495
916.259	14423
916.371	14613
916.483	14602
916.595	14492
916.708	14438
916.82	14446
916.932	14370
917.044	14336
917.156	14393
917.268	14248
917.38	14286
917.491	14278
917.603	14210
917.715	14275
917.826	14374
917.938	14187
918.049	14206
918.161	14282
918.272	14419
918.384	14400
918.495	14138
918.606	14031
918.717	14043
918.828	14065
918.939	14077
919.05	13982
919.161	13986
919.272	13830
919.383	13887
919.494	14062
919.604	14225
919.715	13963
919.826	13959
919.936	14005
920.047	14100
920.157	14054
920.267	14229
920.378	14069
920.488	14115
920.598	14309
920.708	14290
920.818	14210
920.928	14088
921.038	14332
921.148	14187
921.258	13932
921.368	13875
921.477	13830
921.587	13750
921.697	13696
921.806	13761
921.916	13704
922.025	13518
922.134	13441
922.244	13411
922.353	13556
922.462	13316
922.571	13217
922.68	13129
922.789	13057
922.898	13065
923.007	13000
923.116	13046
923.224	13050
923.333	12939
923.442	12833
923.55	12852
923.659	12795
923.767	12973
923.876	12875
923.984	12958
924.092	12863
924.201	12802
924.309	12772
924.417	12787
924.525	12779
924.633	12745
924.741	13670
924.849	12479
924.956	12753
925.064	12589
925.172	12547
925.279	12601
925.387	12498
925.494	12467
925.602	12582
925.709	12525
925.816	12483
925.924	12536
926.031	12604
926.138	12467
926.245	12517
926.352	12422
926.459	12540
926.566	12582
926.673	12452
926.779	12258
926.886	12258
926.993	12129
927.099	12064
927.206	12087
927.312	12038
927.419	12171
927.525	12114
927.631	12045
927.737	11969
927.843	11901
927.95	11794
928.056	12011
928.162	11980
928.267	11961
928.373	12502
928.479	11992
928.585	11783
928.69	11863
928.796	11954
928.901	11718
929.007	11661
929.112	11737
929.218	11760
929.323	11661
929.428	11653
929.533	11764
929.638	11570
929.743	11619
929.848	11642
929.953	11505
930.058	11539
930.163	11322
930.267	11296
930.372	11509
930.477	11284
930.581	11570
930.685	11288
930.79	11284
930.894	11261
930.998	11231
931.103	11383
931.207	10991
931.311	10908
931.415	10873
931.519	10618
931.623	10516
