Data from test_V78500241_2796.txt Node
Date: Fri Mar 25 15:29:19 CST 2022
User: usil
Spectrometer: V785-0024
Trigger mode: 0
Integration Time (sec): 4.000000E-1
Scans to average: 1
Nonlinearity correction enabled: false
Boxcar width: 0
Storing dark spectrum: false
XAxis mode: Wavelengths
Number of Pixels in Spectrum: 1024
>>>>>Begin Spectral Data<<<<<
801.071	27165
801.214	27199
801.356	26971
801.499	26857
801.641	26689
801.783	26705
801.926	26697
802.068	26613
802.211	26583
802.353	26682
802.496	26484
802.638	26339
802.78	26370
802.923	26259
803.065	26229
803.208	26168
803.35	26317
803.492	26412
803.635	26431
803.777	26408
803.919	26488
804.061	26868
804.204	26594
804.346	26404
804.488	26412
804.63	26476
804.773	26374
804.915	26457
805.057	26549
805.199	26598
805.341	26556
805.483	26636
805.626	26663
805.768	26400
805.91	26492
806.052	26686
806.194	26442
806.336	26777
806.478	26537
806.62	26686
806.762	26697
806.904	26735
807.046	27119
807.188	27051
807.33	27154
807.472	27089
807.614	26982
807.756	26963
807.898	26842
808.04	26868
808.182	26921
808.324	26819
808.465	26952
808.607	27058
808.749	27294
808.891	27424
809.033	27386
809.174	27226
809.316	27283
809.458	27291
809.6	27214
809.741	27416
809.883	27378
810.025	27599
810.166	27603
810.308	27515
810.45	27397
810.591	27397
810.733	27283
810.875	27135
811.016	27047
811.158	27226
811.299	27351
811.441	27466
811.582	27473
811.724	27070
811.865	27157
812.007	27169
812.148	27226
812.29	27302
812.431	27492
812.573	27538
812.714	27637
812.855	27663
812.997	27717
813.138	27808
813.279	27755
813.421	27576
813.562	27622
813.703	27469
813.845	27332
813.986	27161
814.127	26876
814.268	26925
814.41	26937
814.551	26921
814.692	26944
814.833	26861
814.974	26849
815.115	26834
815.256	26655
815.397	26807
815.539	26762
815.68	26689
815.821	26446
815.962	26640
816.103	26629
816.244	26526
816.385	26415
816.526	26518
816.666	26195
816.807	26153
816.948	26183
817.089	26168
817.23	26130
817.371	26119
817.512	26172
817.653	26088
817.793	26027
817.934	26153
818.075	26225
818.216	26065
818.356	26199
818.497	25986
818.638	25837
818.778	25822
818.919	25864
819.06	25940
819.2	26119
819.341	26096
819.481	26187
819.622	26298
819.762	26393
819.903	26218
820.043	26301
820.184	26301
820.324	26103
820.465	26248
820.605	26286
820.746	26161
820.886	26065
821.026	26134
821.167	26161
821.307	26187
821.447	26027
821.588	25986
821.728	25822
821.868	25693
822.008	25559
822.149	25597
822.289	25533
822.429	25343
822.569	25148
822.709	25266
822.849	25202
822.99	25209
823.13	25065
823.27	25053
823.41	24939
823.55	24810
823.69	24954
823.83	24909
823.97	24779
824.11	24734
824.25	24741
824.389	24684
824.529	24700
824.669	24753
824.809	24768
824.949	24825
825.089	24913
825.228	24795
825.368	24464
825.508	24616
825.648	24574
825.787	24700
825.927	24540
826.067	24525
826.206	24604
826.346	24578
826.485	24677
826.625	24475
826.765	24665
826.904	24650
827.044	24311
827.183	24418
827.323	24304
827.462	24414
827.601	24292
827.741	24239
827.88	24270
828.02	24174
828.159	24136
828.298	24273
828.437	24319
828.577	24338
828.716	24346
828.855	24239
828.994	23946
829.134	23859
829.273	24068
829.412	23840
829.551	23904
829.69	23840
829.829	23992
829.968	23992
830.107	24117
830.246	23931
830.385	23809
830.524	23866
830.663	23718
830.802	23710
830.941	23615
831.08	23528
831.219	23642
831.357	23600
831.496	23767
831.635	23543
831.774	23531
831.913	23531
832.051	23337
832.19	23330
832.329	23395
832.467	23387
832.606	23193
832.744	23128
832.883	23216
833.022	23318
833.16	23391
833.299	23433
833.437	23261
833.576	23429
833.714	23254
833.852	23353
833.991	23425
834.129	23421
834.267	23444
834.406	23398
834.544	23315
834.682	23334
834.821	23330
834.959	23478
835.097	23254
835.235	23376
835.373	23334
835.511	23353
835.65	23242
835.788	23170
835.926	22953
836.064	22946
836.202	22930
836.34	23185
836.478	23261
836.615	23079
836.753	23151
836.891	23216
837.029	23216
837.167	23204
837.305	23151
837.443	23056
837.58	22995
837.718	22991
837.856	23041
837.993	22957
838.131	23014
838.269	22919
838.406	23056
838.544	22774
838.681	22683
838.819	22656
838.956	22504
839.094	22382
839.231	22622
839.369	22615
839.506	22984
839.643	22641
839.781	22462
839.918	22329
840.055	22375
840.193	22466
840.33	22348
840.467	22394
840.604	22447
840.742	22721
840.879	22242
841.016	22295
841.153	22268
841.29	22466
841.427	22344
841.564	22325
841.701	22367
841.838	22402
841.975	22280
842.112	22413
842.249	22386
842.385	22196
842.522	22440
842.659	22261
842.796	22143
842.933	22124
843.069	22040
843.206	22051
843.343	22310
843.479	22143
843.616	22109
843.752	21972
843.889	21907
844.025	22055
844.162	21903
844.298	21953
844.435	21934
844.571	21903
844.708	21998
844.844	22013
844.98	22021
845.117	21983
845.253	21751
845.389	21690
845.525	21812
845.661	21846
845.798	21667
845.934	21770
846.07	21751
846.206	21701
846.342	21854
846.478	21732
846.614	21511
846.75	21355
846.886	21401
847.022	21439
847.158	21428
847.294	21443
847.429	21428
847.565	21325
847.701	21622
847.837	21214
847.972	21211
848.108	21256
848.244	21203
848.379	21096
848.515	21020
848.65	20937
848.786	21077
848.921	21184
849.057	21108
849.192	21024
849.328	21020
849.463	21028
849.598	21028
849.734	20975
849.869	20845
850.004	20872
850.14	20777
850.275	20887
850.41	20594
850.545	20727
850.68	20731
850.815	20800
850.95	20815
851.085	20941
851.22	20918
851.355	20785
851.49	20739
851.625	20720
851.76	20906
851.895	20708
852.03	20758
852.165	20739
852.299	20811
852.434	20902
852.569	20815
852.703	20754
852.838	20887
852.973	21017
853.107	20800
853.242	20720
853.376	20667
853.511	20484
853.645	20507
853.78	20735
853.914	20606
854.048	20674
854.183	20579
854.317	20697
854.451	20773
854.585	20560
854.72	20552
854.854	20625
854.988	20518
855.122	20689
855.256	20488
855.39	20625
855.524	20625
855.658	20674
855.792	20625
855.926	20651
856.06	20621
856.194	20606
856.327	20629
856.461	20514
856.595	20541
856.729	20571
856.862	20705
856.996	20526
857.13	20602
857.263	20735
857.397	20651
857.53	20590
857.664	20602
857.797	20663
857.931	20720
858.064	20629
858.197	20743
858.331	20476
858.464	20514
858.597	20606
858.731	20613
858.864	20533
858.997	20511
859.13	20689
859.263	20583
859.396	20708
859.529	20571
859.662	20598
859.795	20503
859.928	20518
860.061	20708
860.194	20819
860.327	20571
860.46	20651
860.592	20762
860.725	20777
860.858	20720
860.99	20598
861.123	20522
861.256	20457
861.388	20632
861.521	21214
861.653	20480
861.786	20438
861.918	20457
862.05	20461
862.183	20533
862.315	20488
862.447	20705
862.58	20480
862.712	20488
862.844	20286
862.976	20423
863.108	20427
863.24	20804
863.372	20290
863.504	20377
863.636	20362
863.768	20366
863.9	20423
864.032	20271
864.164	20237
864.296	20434
864.428	20469
864.559	20370
864.691	20374
864.823	20351
864.954	20355
865.086	20290
865.217	20244
865.349	20199
865.48	20248
865.612	20142
865.743	20351
865.875	20210
866.006	20145
866.137	20164
866.269	20259
866.4	20244
866.531	20161
866.662	20126
866.793	20138
866.924	20161
867.055	20145
867.186	20218
867.317	20142
867.448	20058
867.579	20107
867.71	20020
867.841	20138
867.972	20187
868.103	20191
868.233	20221
868.364	20206
868.495	20214
868.625	20381
868.756	20537
868.886	20366
869.017	20358
869.147	20495
869.278	20602
869.408	20438
869.539	20324
869.669	20454
869.799	20423
869.929	20461
870.06	20617
870.19	20716
870.32	20602
870.45	20720
870.58	20781
870.71	21005
870.84	20933
870.97	20921
871.1	20842
871.23	20925
871.36	21085
871.489	20823
871.619	20956
871.749	20998
871.879	21066
872.008	21138
872.138	21055
872.267	20880
872.397	20750
872.526	20750
872.656	20937
872.785	20807
872.915	21051
873.044	21119
873.173	20960
873.303	21047
873.432	20986
873.561	21123
873.69	21020
873.819	21070
873.948	21062
874.077	21051
874.206	21032
874.335	20994
874.464	21150
874.593	21367
874.722	21222
874.851	21332
874.979	21344
875.108	21203
875.237	21230
875.365	21211
875.494	21138
875.623	21332
875.751	21218
875.88	21249
876.008	21348
876.136	21477
876.265	21732
876.393	21781
876.521	21686
876.65	21743
876.778	21736
876.906	21515
877.034	21720
877.162	21622
877.29	21538
877.418	21633
877.546	21606
877.674	21618
877.802	21606
877.93	21644
878.058	21633
878.185	21564
878.313	21610
878.441	21618
878.568	21534
878.696	21564
878.824	21595
878.951	21800
879.079	21816
879.206	22010
879.333	21774
879.461	21576
879.588	21694
879.715	21759
879.842	21789
879.97	21690
880.097	21416
880.224	21363
880.351	21473
880.478	21534
880.605	21515
880.732	21454
880.859	21633
880.986	21397
881.112	21359
881.239	21329
881.366	21214
881.493	21161
881.619	20933
881.746	21009
881.872	21066
881.999	20807
882.125	20944
882.252	21100
882.378	20948
882.505	21093
882.631	21001
882.757	20693
882.883	20811
883.01	20746
883.136	20659
883.262	20606
883.388	20625
883.514	20762
883.64	20765
883.766	20663
883.892	20545
884.018	20625
884.143	20724
884.269	20716
884.395	20461
884.52	20446
884.646	20503
884.772	20298
884.897	20298
885.023	20552
885.148	20431
885.274	20598
885.399	20530
885.524	20454
885.65	20370
885.775	20317
885.9	20450
886.025	20450
886.15	20469
886.275	20305
886.4	20336
886.525	20355
886.65	20370
886.775	20233
886.9	20568
887.025	20568
887.149	20290
887.274	20157
887.399	20126
887.523	20119
887.648	20153
887.773	19970
887.897	20263
888.021	20298
888.146	20138
888.27	20263
888.395	20343
888.519	20142
888.643	20240
888.767	20233
888.891	20145
889.015	20024
889.139	19993
889.263	19967
889.387	20043
889.511	20187
889.635	20043
889.759	19890
889.883	20027
890.006	20050
890.13	20180
890.254	19780
890.377	19894
890.501	19708
890.624	19651
890.748	19731
890.871	19537
890.995	19635
891.118	19518
891.241	19693
891.364	19548
891.488	19647
891.611	19575
891.734	19613
891.857	19719
891.98	19571
892.103	19685
892.226	19529
892.349	19506
892.471	19289
892.594	19396
892.717	19449
892.839	19460
892.962	19521
893.085	19502
893.207	19525
893.33	19354
893.452	19449
893.575	19533
893.697	19388
893.819	19582
893.941	19696
894.064	19548
894.186	19472
894.308	19362
894.43	19601
894.552	19624
894.674	19537
894.796	19327
894.918	19559
895.04	19354
895.161	19563
895.283	19419
895.405	19426
895.526	19537
895.648	19430
895.769	19396
895.891	19441
896.012	19685
896.134	19544
896.255	19514
896.376	19510
896.498	19449
896.619	19460
896.74	19495
896.861	19518
896.982	19879
897.103	19856
897.224	19776
897.345	19708
897.466	19624
897.587	19647
897.708	19830
897.828	19849
897.949	19605
898.07	19586
898.19	19601
898.311	19795
898.431	19685
898.552	19639
898.672	19757
898.792	19803
898.913	19712
899.033	19674
899.153	19502
899.273	19487
899.393	19449
899.513	19495
899.633	19544
899.753	19392
899.873	19403
899.993	19525
900.113	19445
900.232	19384
900.352	19381
900.472	19350
900.591	19293
900.711	19259
900.83	19282
900.95	19373
901.069	19396
901.189	19175
901.308	18954
901.427	18890
901.546	18852
901.665	18856
901.784	18909
901.904	18760
902.023	18593
902.141	18471
902.26	18388
902.379	18448
902.498	18369
902.617	18388
902.735	18380
902.854	18361
902.973	18209
903.091	18125
903.21	18030
903.328	18045
903.446	17988
903.565	17851
903.683	17980
903.801	17794
903.919	17798
904.038	17703
904.156	17661
904.274	17646
904.392	17627
904.51	17634
904.627	17551
904.745	17680
904.863	17767
904.981	17501
905.098	17322
905.216	17376
905.334	17410
905.451	17288
905.569	17311
905.686	17318
905.803	17322
905.921	17086
906.038	17216
906.155	17147
906.272	17029
906.389	17090
906.506	16854
906.623	16797
906.74	16854
906.857	16786
906.974	16767
907.091	16987
907.208	16900
907.324	16923
907.441	16702
907.557	16611
907.674	16645
907.79	16531
907.907	16573
908.023	16653
908.139	16538
908.256	16523
908.372	16481
908.488	16405
908.604	16303
908.72	16188
908.836	16303
908.952	16234
909.068	16226
909.184	16466
909.3	16230
909.415	16280
909.531	16344
909.647	16025
909.762	16063
909.878	16067
909.993	16044
910.108	16048
910.224	15892
910.339	16059
910.454	15861
910.57	15861
910.685	15736
910.8	16067
910.915	15915
911.03	15812
911.145	15538
911.259	15568
911.374	15622
911.489	15568
911.604	15507
911.718	15230
911.833	15382
911.947	15192
912.062	15302
912.176	15450
912.291	15355
912.405	15416
912.519	15564
912.633	15542
912.748	15340
912.862	15313
912.976	15199
913.09	15116
913.204	15100
913.318	15154
913.431	15344
913.545	15260
913.659	15237
913.772	15138
913.886	15009
914	15036
914.113	15165
914.226	15176
914.34	15028
914.453	14895
914.566	15036
914.68	14838
914.793	14830
914.906	14720
915.019	14602
915.132	14644
915.245	14613
915.358	14629
915.47	14530
915.583	14602
915.696	14598
915.809	14746
915.921	14708
916.034	14606
916.146	14492
916.259	14484
916.371	14625
916.483	14587
916.595	14355
916.708	14324
916.82	14396
916.932	14446
917.044	14393
917.156	14381
917.268	14252
917.38	14355
917.491	14256
917.603	14252
917.715	14336
917.826	14336
917.938	14233
918.049	14138
918.161	14294
918.272	14366
918.384	14332
918.495	14210
918.606	14065
918.717	13978
918.828	14058
918.939	14126
919.05	13852
919.161	14084
919.272	13890
919.383	13841
919.494	14149
919.604	14187
919.715	14027
919.826	13887
919.936	13909
920.047	13993
920.157	14145
920.267	14199
920.378	14058
920.488	13959
920.598	14233
920.708	14320
920.818	14233
920.928	14153
921.038	14301
921.148	14267
921.258	13940
921.368	13879
921.477	13795
921.587	13784
921.697	13632
921.806	13780
921.916	13651
922.025	13392
922.134	13445
922.244	13373
922.353	13441
922.462	13259
922.571	13247
922.68	13145
922.789	13046
922.898	13107
923.007	12981
923.116	13050
923.224	12973
923.333	13050
923.442	12928
923.55	12932
923.659	12913
923.767	12989
923.876	12768
923.984	12871
924.092	12829
924.201	12776
924.309	12882
924.417	12916
924.525	12757
924.633	12760
924.741	13495
924.849	12627
924.956	12684
925.064	12559
925.172	12513
925.279	12509
925.387	12486
925.494	12509
925.602	12673
925.709	12585
925.816	12460
925.924	12445
926.031	12525
926.138	12357
926.245	12475
926.352	12388
926.459	12460
926.566	12585
926.673	12422
926.779	12296
926.886	12178
926.993	12167
927.099	12057
927.206	12117
927.312	12030
927.419	12114
927.525	12216
927.631	12144
927.737	12030
927.843	11901
927.95	11790
928.056	11920
928.162	11946
928.267	11935
928.373	12559
928.479	12053
928.585	11805
928.69	11901
928.796	11927
928.901	11935
929.007	11649
929.112	11851
929.218	11733
929.323	11695
929.428	11638
929.533	11878
929.638	11577
929.743	11558
929.848	11707
929.953	11672
930.058	11463
930.163	11379
930.267	11349
930.372	11535
930.477	11265
930.581	11516
930.685	11471
930.79	11242
930.894	11345
930.998	11235
931.103	11353
931.207	10930
931.311	10896
931.415	10839
931.519	10592
931.623	10660
