Data from test_V78500241_3406.txt Node
Date: Fri Mar 25 15:33:34 CST 2022
User: usil
Spectrometer: V785-0024
Trigger mode: 0
Integration Time (sec): 4.000000E-1
Scans to average: 1
Nonlinearity correction enabled: false
Boxcar width: 0
Storing dark spectrum: false
XAxis mode: Wavelengths
Number of Pixels in Spectrum: 1024
>>>>>Begin Spectral Data<<<<<
801.071	27310
801.214	27211
801.356	26921
801.499	26891
801.641	26902
801.783	26853
801.926	26857
802.068	26921
802.211	26811
802.353	26632
802.496	26469
802.638	26476
802.78	26400
802.923	26381
803.065	26336
803.208	26298
803.35	26549
803.492	26754
803.635	26655
803.777	26385
803.919	26693
804.061	26975
804.204	26686
804.346	26526
804.488	26571
804.63	26564
804.773	26549
804.915	26659
805.057	26659
805.199	26415
805.341	26598
805.483	26659
805.626	26773
805.768	26530
805.91	26629
806.052	26632
806.194	26648
806.336	26861
806.478	26602
806.62	26716
806.762	26754
806.904	26921
807.046	27176
807.188	27096
807.33	27024
807.472	27123
807.614	27096
807.756	27119
807.898	26914
808.04	26940
808.182	26906
808.324	26819
808.465	26758
808.607	27036
808.749	27207
808.891	27469
809.033	27469
809.174	27329
809.316	27195
809.458	27283
809.6	27112
809.741	27351
809.883	27420
810.025	27447
810.166	27504
810.308	27538
810.45	27485
810.591	27591
810.733	27389
810.875	27146
811.016	27146
811.158	27180
811.299	27165
811.441	27454
811.582	27515
811.724	27154
811.865	27173
812.007	27203
812.148	27165
812.29	27214
812.431	27435
812.573	27728
812.714	27732
812.855	27850
812.997	27854
813.138	27907
813.279	27835
813.421	27861
813.562	27660
813.703	27477
813.845	27431
813.986	27310
814.127	26998
814.268	26883
814.41	26937
814.551	26834
814.692	27055
814.833	26864
814.974	26826
815.115	26933
815.256	26758
815.397	26792
815.539	26727
815.68	26701
815.821	26754
815.962	26708
816.103	26720
816.244	26492
816.385	26450
816.526	26446
816.666	26263
816.807	26161
816.948	26252
817.089	26195
817.23	26202
817.371	26263
817.512	26065
817.653	26157
817.793	26122
817.934	26202
818.075	26218
818.216	26199
818.356	26096
818.497	26199
818.638	25909
818.778	26092
818.919	25902
819.06	25963
819.2	26164
819.341	26180
819.481	26195
819.622	26400
819.762	26518
819.903	26480
820.043	26362
820.184	26328
820.324	26248
820.465	26298
820.605	26358
820.746	26328
820.886	26259
821.026	26339
821.167	26343
821.307	26191
821.447	26301
821.588	26191
821.728	26008
821.868	25894
822.008	25727
822.149	25723
822.289	25689
822.429	25510
822.569	25373
822.709	25464
822.849	25206
822.99	25259
823.13	25236
823.27	25107
823.41	24928
823.55	24890
823.69	25057
823.83	24973
823.97	24901
824.11	24738
824.25	24829
824.389	24802
824.529	25061
824.669	24791
824.809	24844
824.949	24932
825.089	24913
825.228	24871
825.368	24707
825.508	24772
825.648	24681
825.787	24734
825.927	24722
826.067	24589
826.206	24726
826.346	24760
826.485	24760
826.625	24715
826.765	24677
826.904	24806
827.044	24410
827.183	24570
827.323	24384
827.462	24399
827.601	24270
827.741	24365
827.88	24464
828.02	24407
828.159	24414
828.298	24399
828.437	24441
828.577	24384
828.716	24448
828.855	24350
828.994	24140
829.134	24186
829.273	24144
829.412	24205
829.551	24121
829.69	24087
829.829	24144
829.968	24194
830.107	24182
830.246	24209
830.385	24060
830.524	24106
830.663	23996
830.802	23893
830.941	23843
831.08	23672
831.219	23836
831.357	23794
831.496	24003
831.635	23764
831.774	23623
831.913	23596
832.051	23615
832.19	23638
832.329	23676
832.467	23440
832.606	23478
832.744	23273
832.883	23490
833.022	23330
833.16	23501
833.299	23482
833.437	23433
833.576	23630
833.714	23383
833.852	23516
833.991	23577
834.129	23619
834.267	23531
834.406	23459
834.544	23623
834.682	23497
834.821	23474
834.959	23604
835.097	23448
835.235	23573
835.373	23471
835.511	23493
835.65	23368
835.788	23223
835.926	23098
836.064	23109
836.202	23254
836.34	23440
836.478	23478
836.615	23315
836.753	23273
836.891	23467
837.029	23368
837.167	23284
837.305	23280
837.443	23315
837.58	23159
837.718	23284
837.856	23212
837.993	23166
838.131	23185
838.269	23132
838.406	23181
838.544	23090
838.681	22972
838.819	22839
838.956	22694
839.094	22512
839.231	22752
839.369	22831
839.506	23014
839.643	23006
839.781	22706
839.918	22580
840.055	22668
840.193	22588
840.33	22550
840.467	22717
840.604	22740
840.742	22835
840.879	22417
841.016	22607
841.153	22516
841.29	22782
841.427	22580
841.564	22622
841.701	22634
841.838	22436
841.975	22424
842.112	22535
842.249	22459
842.385	22344
842.522	22622
842.659	22523
842.796	22478
842.933	22405
843.069	22314
843.206	22394
843.343	22360
843.479	22348
843.616	22348
843.752	22162
843.889	22200
844.025	22325
844.162	22143
844.298	22261
844.435	22070
844.571	22051
844.708	22158
844.844	22325
844.98	22272
845.117	22390
845.253	22090
845.389	21945
845.525	21968
845.661	22017
845.798	21800
845.934	21937
846.07	21850
846.206	21903
846.342	21884
846.478	21816
846.614	21759
846.75	21671
846.886	21557
847.022	21694
847.158	21557
847.294	21641
847.429	21728
847.565	21599
847.701	21755
847.837	21306
847.972	21260
848.108	21450
848.244	21370
848.379	21287
848.515	21291
848.65	21157
848.786	21195
848.921	21249
849.057	21408
849.192	21325
849.328	21272
849.463	21241
849.598	21089
849.734	21119
849.869	21142
850.004	20948
850.14	20941
850.275	20986
850.41	21009
850.545	20826
850.68	20914
850.815	20861
850.95	21051
851.085	21161
851.22	21028
851.355	21055
851.49	20994
851.625	20902
851.76	20952
851.895	20975
852.03	20967
852.165	20967
852.299	20979
852.434	21184
852.569	21013
852.703	21051
852.838	21074
852.973	21173
853.107	21039
853.242	20956
853.376	20804
853.511	20720
853.645	20781
853.78	20872
853.914	20811
854.048	20819
854.183	20800
854.317	20796
854.451	20982
854.585	20769
854.72	20857
854.854	20914
854.988	20792
855.122	20891
855.256	20689
855.39	20796
855.524	20861
855.658	20826
855.792	20765
855.926	20849
856.06	20864
856.194	20849
856.327	20731
856.461	20602
856.595	20743
856.729	20823
856.862	20823
856.996	20800
857.13	20853
857.263	20864
857.397	20765
857.53	20625
857.664	20754
857.797	20883
857.931	20910
858.064	20876
858.197	20971
858.331	20849
858.464	20651
858.597	20739
858.731	20804
858.864	20674
858.997	20731
859.13	20845
859.263	20811
859.396	20933
859.529	20834
859.662	20727
859.795	20792
859.928	20815
860.061	20899
860.194	21024
860.327	20902
860.46	20815
860.592	20979
860.725	20880
860.858	20887
860.99	20838
861.123	20644
861.256	20632
861.388	20941
861.521	21450
861.653	20743
861.786	20663
861.918	20712
862.05	20636
862.183	20781
862.315	20705
862.447	20750
862.58	20758
862.712	20404
862.844	20495
862.976	20632
863.108	20590
863.24	21039
863.372	20385
863.504	20541
863.636	20575
863.768	20545
863.9	20560
864.032	20362
864.164	20484
864.296	20541
864.428	20632
864.559	20579
864.691	20682
864.823	20499
864.954	20511
865.086	20514
865.217	20533
865.349	20278
865.48	20537
865.612	20492
865.743	20545
865.875	20408
866.006	20442
866.137	20457
866.269	20377
866.4	20328
866.531	20370
866.662	20298
866.793	20286
866.924	20313
867.055	20343
867.186	20324
867.317	20290
867.448	20233
867.579	20434
867.71	20202
867.841	20374
867.972	20454
868.103	20358
868.233	20419
868.364	20221
868.495	20393
868.625	20606
868.756	20617
868.886	20556
869.017	20644
869.147	20629
869.278	20609
869.408	20609
869.539	20571
869.669	20644
869.799	20648
869.929	20819
870.06	20811
870.19	20933
870.32	20864
870.45	20986
870.58	20979
870.71	21036
870.84	21150
870.97	20994
871.1	21039
871.23	21131
871.36	21119
871.489	21203
871.619	21275
871.749	21047
871.879	21230
872.008	21203
872.138	21226
872.267	21252
872.397	21104
872.526	21131
872.656	21009
872.785	21100
872.915	21108
873.044	21241
873.173	21321
873.303	21184
873.432	21279
873.561	21264
873.69	21313
873.819	21279
873.948	21283
874.077	21195
874.206	21108
874.335	21199
874.464	21405
874.593	21408
874.722	21412
874.851	21488
874.979	21542
875.108	21481
875.237	21466
875.365	21287
875.494	21443
875.623	21458
875.751	21348
875.88	21450
876.008	21603
876.136	21622
876.265	21937
876.393	22044
876.521	21918
876.65	22063
876.778	21846
876.906	21861
877.034	21835
877.162	21827
877.29	21842
877.418	21694
877.546	21884
877.674	21800
877.802	21770
877.93	21869
878.058	21793
878.185	21698
878.313	21800
878.441	21736
878.568	21618
878.696	21728
878.824	21816
878.951	21941
879.079	21934
879.206	22040
879.333	21956
879.461	21816
879.588	21941
879.715	22044
879.842	22154
879.97	21998
880.097	21656
880.224	21561
880.351	21762
880.478	21671
880.605	21679
880.732	21629
880.859	21895
880.986	21789
881.112	21648
881.239	21572
881.366	21492
881.493	21412
881.619	21279
881.746	21245
881.872	21325
881.999	21283
882.125	21180
882.252	21283
882.378	21116
882.505	21226
882.631	21142
882.757	20887
882.883	21009
883.01	20963
883.136	20891
883.262	20967
883.388	20842
883.514	21013
883.64	20921
883.766	20921
883.892	20796
884.018	20857
884.143	20971
884.269	21009
884.395	20670
884.52	20484
884.646	20629
884.772	20632
884.897	20400
885.023	20644
885.148	20708
885.274	20762
885.399	20826
885.524	20697
885.65	20549
885.775	20663
885.9	20476
886.025	20655
886.15	20613
886.275	20556
886.4	20454
886.525	20575
886.65	20549
886.775	20636
886.9	20670
887.025	20819
887.149	20579
887.274	20480
887.399	20412
887.523	20275
887.648	20358
887.773	20210
887.897	20396
888.021	20332
888.146	20237
888.27	20385
888.395	20431
888.519	20358
888.643	20423
888.767	20503
888.891	20263
889.015	20183
889.139	20237
889.263	20218
889.387	20324
889.511	20332
889.635	20298
889.759	20191
889.883	20096
890.006	20191
890.13	20149
890.254	20084
890.377	20142
890.501	19856
890.624	19887
890.748	20008
890.871	19799
890.995	19715
891.118	19742
891.241	19830
891.364	19727
891.488	19856
891.611	19765
891.734	19715
891.857	19860
891.98	19647
892.103	19807
892.226	19864
892.349	19620
892.471	19548
892.594	19666
892.717	19655
892.839	19700
892.962	19753
893.085	19772
893.207	19525
893.33	19571
893.452	19658
893.575	19609
893.697	19666
893.819	19868
893.941	19807
894.064	19772
894.186	19594
894.308	19540
894.43	19811
894.552	19769
894.674	19696
894.796	19544
894.918	19624
895.04	19639
895.161	19655
895.283	19677
895.405	19628
895.526	19624
895.648	19696
895.769	19719
895.891	19655
896.012	19849
896.134	19632
896.255	19696
896.376	19594
896.498	19677
896.619	19727
896.74	19639
896.861	19685
896.982	19989
897.103	20081
897.224	19932
897.345	19925
897.466	19795
897.587	19898
897.708	20046
897.828	19860
897.949	19807
898.07	19742
898.19	19727
898.311	19955
898.431	19811
898.552	19917
898.672	19788
898.792	19967
898.913	19864
899.033	19818
899.153	19719
899.273	19563
899.393	19616
899.513	19620
899.633	19571
899.753	19712
899.873	19556
899.993	19655
900.113	19537
900.232	19715
900.352	19559
900.472	19525
900.591	19426
900.711	19434
900.83	19297
900.95	19487
901.069	19499
901.189	19289
901.308	19122
901.427	18825
901.546	18916
901.665	19000
901.784	19103
901.904	18810
902.023	18711
902.141	18673
902.26	18536
902.379	18669
902.498	18536
902.617	18479
902.735	18525
902.854	18441
902.973	18426
903.091	18045
903.21	18239
903.328	18270
903.446	18095
903.565	17931
903.683	18102
903.801	17790
903.919	17897
904.038	17912
904.156	17741
904.274	17813
904.392	17710
904.51	17707
904.627	17737
904.745	17748
904.863	17840
904.981	17585
905.098	17402
905.216	17501
905.334	17490
905.451	17459
905.569	17455
905.686	17463
905.803	17482
905.921	17261
906.038	17273
906.155	17204
906.272	17155
906.389	17113
906.506	16957
906.623	17041
906.74	17006
906.857	16930
906.974	16965
907.091	17048
907.208	17029
907.324	16900
907.441	16919
907.557	16801
907.674	16694
907.79	16664
907.907	16653
908.023	16721
908.139	16733
908.256	16584
908.372	16584
908.488	16573
908.604	16481
908.72	16371
908.836	16424
908.952	16462
909.068	16356
909.184	16493
909.3	16470
909.415	16363
909.531	16390
909.647	16074
909.762	16101
909.878	16078
909.993	16135
910.108	16029
910.224	16105
910.339	16147
910.454	16059
910.57	15945
910.685	15846
910.8	16162
910.915	16116
911.03	15884
911.145	15679
911.259	15739
911.374	15743
911.489	15694
911.604	15622
911.718	15572
911.833	15568
911.947	15454
912.062	15252
912.176	15572
912.291	15595
912.405	15545
912.519	15759
912.633	15622
912.748	15469
912.862	15428
912.976	15363
913.09	15252
913.204	15374
913.318	15332
913.431	15485
913.545	15359
913.659	15412
913.772	15161
913.886	15157
914	15074
914.113	15260
914.226	15199
914.34	15173
914.453	15017
914.566	15176
914.68	15013
914.793	15005
914.906	14762
915.019	14792
915.132	14735
915.245	14689
915.358	14819
915.47	14712
915.583	14678
915.696	14735
915.809	14868
915.921	14925
916.034	14731
916.146	14632
916.259	14625
916.371	14765
916.483	14644
916.595	14598
916.708	14636
916.82	14590
916.932	14606
917.044	14511
917.156	14499
917.268	14309
917.38	14381
917.491	14473
917.603	14438
917.715	14507
917.826	14492
917.938	14393
918.049	14271
918.161	14328
918.272	14457
918.384	14518
918.495	14370
918.606	14225
918.717	14164
918.828	14206
918.939	14142
919.05	14062
919.161	14157
919.272	13944
919.383	14024
919.494	14210
919.604	14374
919.715	14081
919.826	14126
919.936	14252
920.047	14271
920.157	14138
920.267	14385
920.378	14142
920.488	14024
920.598	14320
920.708	14492
920.818	14294
920.928	14259
921.038	14465
921.148	14351
921.258	14062
921.368	13963
921.477	13913
921.587	13822
921.697	13738
921.806	13978
921.916	13723
922.025	13544
922.134	13533
922.244	13544
922.353	13582
922.462	13453
922.571	13365
922.68	13217
922.789	13145
922.898	13221
923.007	13160
923.116	13198
923.224	13095
923.333	13179
923.442	13080
923.55	13023
923.659	13061
923.767	13015
923.876	12985
923.984	13008
924.092	12894
924.201	12981
924.309	12943
924.417	12962
924.525	12821
924.633	12882
924.741	13795
924.849	12707
924.956	12738
925.064	12650
925.172	12551
925.279	12612
925.387	12654
925.494	12681
925.602	12783
925.709	12665
925.816	12471
925.924	12532
926.031	12700
926.138	12623
926.245	12517
926.352	12506
926.459	12582
926.566	12639
926.673	12559
926.779	12372
926.886	12308
926.993	12194
927.099	12197
927.206	12133
927.312	12163
927.419	12228
927.525	12194
927.631	12235
927.737	12155
927.843	12015
927.95	11897
928.056	11980
928.162	12045
928.267	12038
928.373	12551
928.479	12079
928.585	11912
928.69	11977
928.796	12038
928.901	11912
929.007	11707
929.112	11843
929.218	11805
929.323	11882
929.428	11794
929.533	11901
929.638	11745
929.743	11676
929.848	11779
929.953	11661
930.058	11570
930.163	11379
930.267	11520
930.372	11554
930.477	11379
930.581	11634
930.685	11520
930.79	11406
930.894	11391
930.998	11322
931.103	11455
931.207	11075
931.311	11052
931.415	10934
931.519	10706
931.623	10714
