Data from test_V78500241_3203.txt Node
Date: Fri Mar 25 15:32:09 CST 2022
User: usil
Spectrometer: V785-0024
Trigger mode: 0
Integration Time (sec): 4.000000E-1
Scans to average: 1
Nonlinearity correction enabled: false
Boxcar width: 0
Storing dark spectrum: false
XAxis mode: Wavelengths
Number of Pixels in Spectrum: 1024
>>>>>Begin Spectral Data<<<<<
801.071	27104
801.214	27047
801.356	26842
801.499	26887
801.641	26697
801.783	26549
801.926	26609
802.068	26545
802.211	26636
802.353	26488
802.496	26408
802.638	26336
802.78	26187
802.923	26183
803.065	26122
803.208	26183
803.35	26294
803.492	26336
803.635	26530
803.777	26343
803.919	26415
804.061	26788
804.204	26484
804.346	26347
804.488	26339
804.63	26362
804.773	26298
804.915	26275
805.057	26366
805.199	26377
805.341	26389
805.483	26560
805.626	26587
805.768	26412
805.91	26393
806.052	26480
806.194	26530
806.336	26640
806.478	26389
806.62	26507
806.762	26609
806.904	26788
807.046	26967
807.188	26864
807.33	26956
807.472	27039
807.614	26906
807.756	26845
807.898	26758
808.04	26568
808.182	26602
808.324	26796
808.465	26758
808.607	26998
808.749	27150
808.891	27173
809.033	27203
809.174	27237
809.316	27176
809.458	27001
809.6	27028
809.741	27192
809.883	27230
810.025	27443
810.166	27241
810.308	27401
810.45	27260
810.591	27294
810.733	27108
810.875	27062
811.016	26975
811.158	27081
811.299	27077
811.441	27180
811.582	27291
811.724	27184
811.865	27142
812.007	26967
812.148	27138
812.29	27146
812.431	27237
812.573	27306
812.714	27523
812.855	27504
812.997	27698
813.138	27842
813.279	27675
813.421	27618
813.562	27511
813.703	27534
813.845	27321
813.986	27005
814.127	26781
814.268	26682
814.41	26743
814.551	26739
814.692	26750
814.833	26758
814.974	26777
815.115	26693
815.256	26674
815.397	26705
815.539	26514
815.68	26606
815.821	26457
815.962	26575
816.103	26564
816.244	26393
816.385	26294
816.526	26294
816.666	26138
816.807	26065
816.948	26176
817.089	26092
817.23	25902
817.371	25925
817.512	26134
817.653	26115
817.793	25982
817.934	25879
818.075	26039
818.216	26039
818.356	25944
818.497	25925
818.638	25761
818.778	25666
818.919	25757
819.06	25780
819.2	25845
819.341	25970
819.481	25959
819.622	26100
819.762	26423
819.903	26336
820.043	26214
820.184	26107
820.324	26081
820.465	26134
820.605	26187
820.746	26058
820.886	25868
821.026	25989
821.167	25974
821.307	26073
821.447	25890
821.588	25814
821.728	25643
821.868	25693
822.008	25590
822.149	25518
822.289	25377
822.429	25278
822.569	25148
822.709	25027
822.849	24932
822.99	25012
823.13	24935
823.27	24878
823.41	24757
823.55	24669
823.69	24852
823.83	24719
823.97	24856
824.11	24661
824.25	24570
824.389	24639
824.529	24703
824.669	24692
824.809	24578
824.949	24646
825.089	24677
825.228	24544
825.368	24357
825.508	24464
825.648	24372
825.787	24585
825.927	24475
826.067	24403
826.206	24391
826.346	24559
826.485	24505
826.625	24532
826.765	24604
826.904	24426
827.044	24311
827.183	24197
827.323	24129
827.462	24171
827.601	24087
827.741	24155
827.88	24136
828.02	24095
828.159	24098
828.298	24266
828.437	24182
828.577	24015
828.716	24277
828.855	24034
828.994	23893
829.134	23889
829.273	23821
829.412	23836
829.551	23665
829.69	23984
829.829	23958
829.968	23942
830.107	23802
830.246	23954
830.385	23813
830.524	23726
830.663	23748
830.802	23543
830.941	23585
831.08	23535
831.219	23516
831.357	23547
831.496	23733
831.635	23459
831.774	23410
831.913	23376
832.051	23353
832.19	23242
832.329	23353
832.467	23178
832.606	23204
832.744	23140
832.883	23261
833.022	23220
833.16	23197
833.299	23265
833.437	23197
833.576	23330
833.714	23155
833.852	23250
833.991	23345
834.129	23398
834.267	23330
834.406	23254
834.544	23242
834.682	23181
834.821	23220
834.959	23425
835.097	23174
835.235	23242
835.373	23250
835.511	23223
835.65	23170
835.788	23121
835.926	22953
836.064	22850
836.202	23067
836.34	23124
836.478	23208
836.615	23041
836.753	22976
836.891	23155
837.029	23071
837.167	23071
837.305	23060
837.443	22942
837.58	22953
837.718	22972
837.856	22984
837.993	22839
838.131	22889
838.269	22828
838.406	22869
838.544	22752
838.681	22615
838.819	22577
838.956	22459
839.094	22405
839.231	22523
839.369	22542
839.506	22862
839.643	22569
839.781	22402
839.918	22432
840.055	22360
840.193	22523
840.33	22333
840.467	22382
840.604	22276
840.742	22630
840.879	22188
841.016	22280
841.153	22112
841.29	22516
841.427	22341
841.564	22516
841.701	22352
841.838	22333
841.975	22246
842.112	22234
842.249	22154
842.385	22120
842.522	22344
842.659	22226
842.796	22032
842.933	22150
843.069	22021
843.206	22109
843.343	22143
843.479	22181
843.616	22112
843.752	21937
843.889	22013
844.025	22048
844.162	21823
844.298	21903
844.435	21930
844.571	21819
844.708	21892
844.844	22067
844.98	22010
845.117	21953
845.253	21785
845.389	21622
845.525	21945
845.661	21701
845.798	21576
845.934	21679
846.07	21561
846.206	21568
846.342	21671
846.478	21629
846.614	21344
846.75	21348
846.886	21294
847.022	21435
847.158	21298
847.294	21310
847.429	21443
847.565	21355
847.701	21622
847.837	21131
847.972	21039
848.108	21104
848.244	21230
848.379	21055
848.515	21051
848.65	20963
848.786	20872
848.921	21058
849.057	21104
849.192	20979
849.328	21047
849.463	20948
849.598	20853
849.734	20887
849.869	20948
850.004	20716
850.14	20765
850.275	20765
850.41	20663
850.545	20708
850.68	20674
850.815	20765
850.95	20697
851.085	20887
851.22	20796
851.355	20838
851.49	20731
851.625	20670
851.76	20731
851.895	20678
852.03	20609
852.165	20826
852.299	20807
852.434	20895
852.569	20735
852.703	20819
852.838	20823
852.973	20823
853.107	20796
853.242	20609
853.376	20644
853.511	20492
853.645	20495
853.78	20625
853.914	20648
854.048	20537
854.183	20438
854.317	20636
854.451	20720
854.585	20625
854.72	20507
854.854	20587
854.988	20488
855.122	20438
855.256	20492
855.39	20549
855.524	20712
855.658	20629
855.792	20613
855.926	20507
856.06	20621
856.194	20678
856.327	20530
856.461	20465
856.595	20434
856.729	20488
856.862	20560
856.996	20537
857.13	20632
857.263	20617
857.397	20552
857.53	20587
857.664	20632
857.797	20564
857.931	20769
858.064	20568
858.197	20568
858.331	20488
858.464	20564
858.597	20571
858.731	20541
858.864	20488
858.997	20499
859.13	20594
859.263	20598
859.396	20621
859.529	20556
859.662	20457
859.795	20549
859.928	20526
860.061	20651
860.194	20659
860.327	20530
860.46	20522
860.592	20579
860.725	20716
860.858	20655
860.99	20579
861.123	20594
861.256	20454
861.388	20632
861.521	21180
861.653	20355
861.786	20362
861.918	20324
862.05	20473
862.183	20545
862.315	20469
862.447	20545
862.58	20495
862.712	20214
862.844	20206
862.976	20400
863.108	20385
863.24	20560
863.372	20210
863.504	20145
863.636	20263
863.768	20332
863.9	20233
864.032	20157
864.164	20142
864.296	20282
864.428	20328
864.559	20244
864.691	20313
864.823	20328
864.954	20275
865.086	20233
865.217	20096
865.349	20107
865.48	20180
865.612	20130
865.743	20385
865.875	20252
866.006	20054
866.137	20233
866.269	20157
866.4	20164
866.531	20126
866.662	20134
866.793	20107
866.924	20115
867.055	20058
867.186	20107
867.317	20111
867.448	20035
867.579	20016
867.71	20065
867.841	20096
867.972	20294
868.103	20157
868.233	20149
868.364	20122
868.495	20126
868.625	20328
868.756	20518
868.886	20347
869.017	20309
869.147	20377
869.278	20476
869.408	20336
869.539	20446
869.669	20526
869.799	20400
869.929	20480
870.06	20457
870.19	20826
870.32	20640
870.45	20781
870.58	20670
870.71	20937
870.84	20823
870.97	20769
871.1	20689
871.23	20902
871.36	20933
871.489	20887
871.619	20952
871.749	20937
871.879	21142
872.008	21036
872.138	20994
872.267	20956
872.397	20762
872.526	20746
872.656	20731
872.785	20788
872.915	20967
873.044	21047
873.173	21001
873.303	20963
873.432	20971
873.561	21165
873.69	21108
873.819	20998
873.948	20895
874.077	20986
874.206	21028
874.335	21001
874.464	21096
874.593	21268
874.722	21211
874.851	21291
874.979	21275
875.108	21291
875.237	21294
875.365	21089
875.494	21245
875.623	21363
875.751	21211
875.88	21325
876.008	21420
876.136	21393
876.265	21633
876.393	21816
876.521	21713
876.65	21622
876.778	21622
876.906	21564
877.034	21576
877.162	21637
877.29	21431
877.418	21572
877.546	21618
877.674	21667
877.802	21724
877.93	21618
878.058	21583
878.185	21599
878.313	21553
878.441	21610
878.568	21397
878.696	21557
878.824	21644
878.951	21728
879.079	21781
879.206	21991
879.333	21831
879.461	21580
879.588	21648
879.715	21739
879.842	21831
879.97	21644
880.097	21370
880.224	21435
880.351	21515
880.478	21389
880.605	21431
880.732	21355
880.859	21557
880.986	21500
881.112	21325
881.239	21325
881.366	21184
881.493	21146
881.619	20925
881.746	21024
881.872	21089
881.999	20994
882.125	20929
882.252	20979
882.378	21005
882.505	21024
882.631	20788
882.757	20712
882.883	20788
883.01	20701
883.136	20575
883.262	20625
883.388	20514
883.514	20712
883.64	20644
883.766	20613
883.892	20530
884.018	20522
884.143	20659
884.269	20762
884.395	20492
884.52	20423
884.646	20339
884.772	20237
884.897	20370
885.023	20381
885.148	20461
885.274	20541
885.399	20434
885.524	20278
885.65	20332
885.775	20438
885.9	20305
886.025	20541
886.15	20457
886.275	20408
886.4	20286
886.525	20309
886.65	20286
886.775	20256
886.9	20404
887.025	20568
887.149	20278
887.274	20225
887.399	20077
887.523	20126
887.648	20043
887.773	20065
887.897	20164
888.021	20180
888.146	20046
888.27	20252
888.395	20286
888.519	20153
888.643	20134
888.767	20229
888.891	20100
889.015	19993
889.139	19947
889.263	19925
889.387	20096
889.511	20134
889.635	20012
889.759	19921
889.883	19932
890.006	19989
890.13	20039
890.254	19887
890.377	20001
890.501	19723
890.624	19681
890.748	19814
890.871	19719
890.995	19506
891.118	19449
891.241	19613
891.364	19590
891.488	19635
891.611	19510
891.734	19525
891.857	19552
891.98	19533
892.103	19662
892.226	19495
892.349	19529
892.471	19308
892.594	19422
892.717	19411
892.839	19480
892.962	19472
893.085	19510
893.207	19525
893.33	19335
893.452	19392
893.575	19438
893.697	19460
893.819	19647
893.941	19769
894.064	19540
894.186	19400
894.308	19381
894.43	19518
894.552	19540
894.674	19495
894.796	19362
894.918	19415
895.04	19415
895.161	19540
895.283	19441
895.405	19518
895.526	19422
895.648	19571
895.769	19350
895.891	19392
896.012	19457
896.134	19430
896.255	19491
896.376	19449
896.498	19476
896.619	19434
896.74	19476
896.861	19506
896.982	19868
897.103	19883
897.224	19655
897.345	19605
897.466	19567
897.587	19658
897.708	19757
897.828	19826
897.949	19518
898.07	19571
898.19	19601
898.311	19712
898.431	19597
898.552	19757
898.672	19765
898.792	19635
898.913	19700
899.033	19597
899.153	19438
899.273	19422
899.393	19521
899.513	19441
899.633	19411
899.753	19396
899.873	19228
899.993	19430
900.113	19381
900.232	19464
900.352	19430
900.472	19259
900.591	19217
900.711	19289
900.83	19301
900.95	19365
901.069	19327
901.189	19160
901.308	18966
901.427	18840
901.546	18833
901.665	18730
901.784	18821
901.904	18692
902.023	18544
902.141	18350
902.26	18471
902.379	18433
902.498	18304
902.617	18353
902.735	18357
902.854	18380
902.973	18148
903.091	18022
903.21	18087
903.328	18045
903.446	17863
903.565	17855
903.683	17832
903.801	17630
903.919	17786
904.038	17729
904.156	17619
904.274	17661
904.392	17566
904.51	17623
904.627	17512
904.745	17604
904.863	17657
904.981	17455
905.098	17273
905.216	17261
905.334	17398
905.451	17299
905.569	17197
905.686	17197
905.803	17273
905.921	17094
906.038	17136
906.155	17067
906.272	16968
906.389	17022
906.506	16809
906.623	16889
906.74	16744
906.857	16679
906.974	16740
907.091	16812
907.208	16961
907.324	16908
907.441	16759
907.557	16611
907.674	16493
907.79	16508
907.907	16508
908.023	16584
908.139	16527
908.256	16474
908.372	16386
908.488	16527
908.604	16291
908.72	16211
908.836	16147
908.952	16173
909.068	16268
909.184	16379
909.3	16226
909.415	16246
909.531	16261
909.647	16017
909.762	15964
909.878	15937
909.993	16067
910.108	16093
910.224	15983
910.339	15975
910.454	15774
910.57	15880
910.685	15603
910.8	15949
910.915	15918
911.03	15816
911.145	15572
911.259	15637
911.374	15603
911.489	15580
911.604	15458
911.718	15321
911.833	15329
911.947	15325
912.062	15150
912.176	15370
912.291	15412
912.405	15504
912.519	15629
912.633	15466
912.748	15332
912.862	15310
912.976	15268
913.09	14990
913.204	15112
913.318	15123
913.431	15214
913.545	15108
913.659	15214
913.772	15097
913.886	15032
914	15013
914.113	15062
914.226	15051
914.34	15032
914.453	14815
914.566	15093
914.68	14880
914.793	14750
914.906	14644
915.019	14598
915.132	14526
915.245	14564
915.358	14579
915.47	14473
915.583	14556
915.696	14625
915.809	14758
915.921	14765
916.034	14552
916.146	14480
916.259	14492
916.371	14484
916.483	14571
916.595	14389
916.708	14366
916.82	14476
916.932	14415
917.044	14396
917.156	14362
917.268	14229
917.38	14244
917.491	14317
917.603	14271
917.715	14267
917.826	14237
917.938	14164
918.049	14058
918.161	14218
918.272	14286
918.384	14332
918.495	14248
918.606	14073
918.717	13978
918.828	14073
918.939	14062
919.05	13921
919.161	14046
919.272	13761
919.383	13913
919.494	13978
919.604	14206
919.715	14039
919.826	13887
919.936	14001
920.047	14046
920.157	14027
920.267	14145
920.378	14134
920.488	14001
920.598	14229
920.708	14278
920.818	14142
920.928	14065
921.038	14286
921.148	14237
921.258	14005
921.368	13913
921.477	13738
921.587	13677
921.697	13647
921.806	13795
921.916	13670
922.025	13441
922.134	13453
922.244	13388
922.353	13369
922.462	13232
922.571	13293
922.68	13107
922.789	13084
922.898	13042
923.007	12962
923.116	13072
923.224	13072
923.333	13050
923.442	12901
923.55	12875
923.659	12970
923.767	12829
923.876	12890
923.984	12909
924.092	12833
924.201	12897
924.309	12776
924.417	12878
924.525	12730
924.633	12768
924.741	13639
924.849	12513
924.956	12654
925.064	12555
925.172	12502
925.279	12513
925.387	12483
925.494	12456
925.602	12631
925.709	12574
925.816	12388
925.924	12380
926.031	12540
926.138	12410
926.245	12464
926.352	12448
926.459	12445
926.566	12471
926.673	12315
926.779	12262
926.886	12338
926.993	12136
927.099	12117
927.206	12030
927.312	12007
927.419	12015
927.525	12049
927.631	12087
927.737	11950
927.843	11897
927.95	11802
928.056	11920
928.162	11920
928.267	11977
928.373	12536
928.479	11920
928.585	11817
928.69	11786
928.796	11775
928.901	11817
929.007	11600
929.112	11722
929.218	11748
929.323	11657
929.428	11630
929.533	11798
929.638	11570
929.743	11566
929.848	11676
929.953	11535
930.058	11395
930.163	11322
930.267	11307
930.372	11455
930.477	11337
930.581	11547
930.685	11368
930.79	11223
930.894	11231
930.998	11231
931.103	11288
931.207	10965
931.311	10843
931.415	10778
931.519	10664
931.623	10656
