Data from test_V78500241_1383.txt Node
Date: Fri Mar 25 15:19:29 CST 2022
User: usil
Spectrometer: V785-0024
Trigger mode: 0
Integration Time (sec): 4.000000E-1
Scans to average: 1
Nonlinearity correction enabled: false
Boxcar width: 0
Storing dark spectrum: false
XAxis mode: Wavelengths
Number of Pixels in Spectrum: 1024
>>>>>Begin Spectral Data<<<<<
801.071	28310
801.214	28131
801.356	27850
801.499	27804
801.641	27812
801.783	27633
801.926	27842
802.068	27705
802.211	27739
802.353	27671
802.496	27500
802.638	27416
802.78	27431
802.923	27226
803.065	27447
803.208	27329
803.35	27462
803.492	27504
803.635	27481
803.777	27389
803.919	27614
804.061	27869
804.204	27568
804.346	27618
804.488	27618
804.63	27530
804.773	27641
804.915	27599
805.057	27800
805.199	27568
805.341	27876
805.483	27854
805.626	27762
805.768	27663
805.91	27819
806.052	27690
806.194	27717
806.336	27953
806.478	27774
806.62	27698
806.762	27975
806.904	27960
807.046	28432
807.188	28185
807.33	28196
807.472	28204
807.614	28173
807.756	28371
807.898	27956
808.04	28090
808.182	28067
808.324	28010
808.465	28139
808.607	28280
808.749	28443
808.891	28500
809.033	28481
809.174	28504
809.316	28470
809.458	28424
809.6	28306
809.741	28622
809.883	28592
810.025	28915
810.166	28790
810.308	28824
810.45	28679
810.591	28713
810.733	28398
810.875	28504
811.016	28276
811.158	28310
811.299	28512
811.441	28618
811.582	28630
811.724	28386
811.865	28371
812.007	28451
812.148	28527
812.29	28523
812.431	28664
812.573	28729
812.714	28797
812.855	29037
812.997	29121
813.138	29261
813.279	29185
813.421	29010
813.562	29010
813.703	28869
813.845	28656
813.986	28318
814.127	28234
814.268	28059
814.41	28192
814.551	28067
814.692	28299
814.833	27991
814.974	27983
815.115	28295
815.256	27975
815.397	28090
815.539	27979
815.68	27846
815.821	27819
815.962	27838
816.103	27797
816.244	27861
816.385	27713
816.526	27686
816.666	27450
816.807	27519
816.948	27530
817.089	27549
817.23	27481
817.371	27504
817.512	27500
817.653	27367
817.793	27279
817.934	27393
818.075	27424
818.216	27473
818.356	27310
818.497	27214
818.638	27203
818.778	27157
818.919	27104
819.06	27207
819.2	27431
819.341	27462
819.481	27424
819.622	27557
819.762	27736
819.903	27686
820.043	27701
820.184	27652
820.324	27595
820.465	27610
820.605	27595
820.746	27542
820.886	27469
821.026	27542
821.167	27549
821.307	27595
821.447	27458
821.588	27272
821.728	27165
821.868	27051
822.008	26940
822.149	26891
822.289	26792
822.429	26781
822.569	26575
822.709	26651
822.849	26541
822.99	26415
823.13	26343
823.27	26381
823.41	26180
823.55	25955
823.69	26134
823.83	26153
823.97	26161
824.11	26103
824.25	26050
824.389	26035
824.529	26149
824.669	25982
824.809	26157
824.949	26142
825.089	26138
825.228	26054
825.368	25811
825.508	26005
825.648	25944
825.787	25879
825.927	26065
826.067	25860
826.206	25753
826.346	25944
826.485	26035
826.625	25879
826.765	26122
826.904	25890
827.044	25643
827.183	25639
827.323	25635
827.462	25837
827.601	25647
827.741	25537
827.88	25708
828.02	25643
828.159	25613
828.298	25643
828.437	25788
828.577	25624
828.716	25715
828.855	25563
828.994	25297
829.134	25457
829.273	25441
829.412	25365
829.551	25266
829.69	25441
829.829	25354
829.968	25514
830.107	25354
830.246	25327
830.385	25358
830.524	25141
830.663	25004
830.802	25034
830.941	25019
831.08	24966
831.219	25027
831.357	24943
831.496	25156
831.635	24970
831.774	24894
831.913	24943
832.051	24821
832.19	24692
832.329	24791
832.467	24620
832.606	24661
832.744	24551
832.883	24684
833.022	24566
833.16	24555
833.299	24635
833.437	24665
833.576	24760
833.714	24692
833.852	24665
833.991	24787
834.129	24741
834.267	24665
834.406	24620
834.544	24798
834.682	24688
834.821	24639
834.959	24878
835.097	24623
835.235	24734
835.373	24574
835.511	24715
835.65	24513
835.788	24456
835.926	24327
836.064	24319
836.202	24441
836.34	24471
836.478	24555
836.615	24471
836.753	24547
836.891	24559
837.029	24544
837.167	24395
837.305	24479
837.443	24445
837.58	24292
837.718	24437
837.856	24414
837.993	24216
838.131	24311
838.269	24254
838.406	24209
838.544	24159
838.681	23920
838.819	24079
838.956	23828
839.094	23798
839.231	23836
839.369	23969
839.506	24060
839.643	23984
839.781	23802
839.918	23767
840.055	23752
840.193	23817
840.33	23729
840.467	23783
840.604	23821
840.742	24038
840.879	23570
841.016	23653
841.153	23699
841.29	23741
841.427	23581
841.564	23710
841.701	23638
841.838	23592
841.975	23581
842.112	23611
842.249	23452
842.385	23368
842.522	23695
842.659	23459
842.796	23269
842.933	23528
843.069	23414
843.206	23398
843.343	23463
843.479	23452
843.616	23524
843.752	23239
843.889	23265
844.025	23261
844.162	23193
844.298	23356
844.435	23204
844.571	23189
844.708	23246
844.844	23417
844.98	23395
845.117	23334
845.253	23265
845.389	23159
845.525	23159
845.661	23018
845.798	22904
845.934	23086
846.07	22972
846.206	23010
846.342	22987
846.478	22854
846.614	22626
846.75	22706
846.886	22733
847.022	22683
847.158	22687
847.294	22611
847.429	22698
847.565	22679
847.701	22900
847.837	22379
847.972	22379
848.108	22360
848.244	22462
848.379	22314
848.515	22253
848.65	22344
848.786	22284
848.921	22310
849.057	22299
849.192	22466
849.328	22356
849.463	22223
849.598	22120
849.734	22169
849.869	22082
850.004	21934
850.14	22147
850.275	22040
850.41	21983
850.545	21960
850.68	22101
850.815	22044
850.95	22017
851.085	22101
851.22	22067
851.355	22074
851.49	21979
851.625	22025
851.76	21945
851.895	21987
852.03	21915
852.165	22032
852.299	22040
852.434	22013
852.569	22097
852.703	22120
852.838	22036
852.973	22166
853.107	22139
853.242	22116
853.376	21850
853.511	21743
853.645	21835
853.78	21884
853.914	21930
854.048	21770
854.183	21747
854.317	21960
854.451	22055
854.585	21903
854.72	21865
854.854	21953
854.988	21717
855.122	21918
855.256	21660
855.39	21759
855.524	21991
855.658	21842
855.792	21926
855.926	21873
856.06	21926
856.194	21968
856.327	21770
856.461	21785
856.595	21918
856.729	21797
856.862	21903
856.996	21915
857.13	21873
857.263	21956
857.397	22036
857.53	21804
857.664	21854
857.797	21960
857.931	21964
858.064	21972
858.197	21972
858.331	21861
858.464	21793
858.597	21614
858.731	21892
858.864	21888
858.997	21880
859.13	21827
859.263	21736
859.396	21960
859.529	21823
859.662	21800
859.795	21846
859.928	21838
860.061	21930
860.194	22025
860.327	21819
860.46	21762
860.592	21922
860.725	22101
860.858	21865
860.99	21842
861.123	21835
861.256	21804
861.388	21956
861.521	22447
861.653	21762
861.786	21595
861.918	21755
862.05	21682
862.183	21781
862.315	21785
862.447	21869
862.58	21736
862.712	21629
862.844	21629
862.976	21667
863.108	21694
863.24	21964
863.372	21462
863.504	21519
863.636	21549
863.768	21564
863.9	21500
864.032	21496
864.164	21374
864.296	21564
864.428	21629
864.559	21564
864.691	21663
864.823	21507
864.954	21511
865.086	21412
865.217	21542
865.349	21500
865.48	21534
865.612	21439
865.743	21671
865.875	21496
866.006	21507
866.137	21420
866.269	21416
866.4	21340
866.531	21393
866.662	21393
866.793	21367
866.924	21260
867.055	21439
867.186	21431
867.317	21321
867.448	21264
867.579	21283
867.71	21313
867.841	21207
867.972	21382
868.103	21370
868.233	21302
868.364	21367
868.495	21534
868.625	21561
868.756	21667
868.886	21507
869.017	21500
869.147	21675
869.278	21736
869.408	21641
869.539	21526
869.669	21633
869.799	21606
869.929	21819
870.06	21679
870.19	21892
870.32	21869
870.45	21949
870.58	21987
870.71	22074
870.84	22074
870.97	22055
871.1	22063
871.23	22177
871.36	22318
871.489	22048
871.619	22158
871.749	22196
871.879	22131
872.008	22242
872.138	22295
872.267	22200
872.397	22021
872.526	22048
872.656	21975
872.785	21960
872.915	22188
873.044	22299
873.173	22223
873.303	22215
873.432	22166
873.561	22318
873.69	22158
873.819	22173
873.948	22223
874.077	22287
874.206	22291
874.335	22238
874.464	22314
874.593	22493
874.722	22371
874.851	22459
874.979	22519
875.108	22588
875.237	22318
875.365	22352
875.494	22432
875.623	22462
875.751	22394
875.88	22481
876.008	22462
876.136	22512
876.265	22725
876.393	23003
876.521	22896
876.65	22900
876.778	22774
876.906	22805
877.034	22733
877.162	22771
877.29	22713
877.418	22828
877.546	22748
877.674	22771
877.802	22691
877.93	22771
878.058	22675
878.185	22611
878.313	22645
878.441	22721
878.568	22615
878.696	22725
878.824	22820
878.951	22850
879.079	22873
879.206	22987
879.333	22953
879.461	22835
879.588	22862
879.715	22980
879.842	22991
879.97	22843
880.097	22630
880.224	22588
880.351	22672
880.478	22733
880.605	22580
880.732	22607
880.859	22839
880.986	22580
881.112	22603
881.239	22341
881.366	22348
881.493	22318
881.619	22105
881.746	22272
881.872	22166
881.999	22234
882.125	22249
882.252	22295
882.378	22055
882.505	22276
882.631	22006
882.757	21937
882.883	21972
883.01	21838
883.136	21895
883.262	21762
883.388	21660
883.514	21869
883.64	21850
883.766	21671
883.892	21568
884.018	21561
884.143	21850
884.269	21766
884.395	21599
884.52	21496
884.646	21492
884.772	21359
884.897	21367
885.023	21466
885.148	21583
885.274	21622
885.399	21576
885.524	21435
885.65	21412
885.775	21545
885.9	21431
886.025	21557
886.15	21545
886.275	21496
886.4	21420
886.525	21568
886.65	21447
886.775	21389
886.9	21523
887.025	21564
887.149	21428
887.274	21302
887.399	21321
887.523	21291
887.648	21146
887.773	21157
887.897	21310
888.021	21302
888.146	21150
888.27	21367
888.395	21367
888.519	21466
888.643	21218
888.767	21268
888.891	21123
889.015	21089
889.139	21169
889.263	21081
889.387	21211
889.511	21287
889.635	21161
889.759	21119
889.883	21058
890.006	21104
890.13	21192
890.254	20868
890.377	20838
890.501	20838
890.624	20785
890.748	20876
890.871	20720
890.995	20552
891.118	20537
891.241	20594
891.364	20571
891.488	20758
891.611	20750
891.734	20678
891.857	20686
891.98	20659
892.103	20708
892.226	20571
892.349	20495
892.471	20404
892.594	20537
892.717	20473
892.839	20427
892.962	20484
893.085	20438
893.207	20423
893.33	20393
893.452	20434
893.575	20568
893.697	20461
893.819	20594
893.941	20629
894.064	20621
894.186	20484
894.308	20381
894.43	20552
894.552	20708
894.674	20564
894.796	20332
894.918	20446
895.04	20488
895.161	20545
895.283	20518
895.405	20488
895.526	20511
895.648	20499
895.769	20484
895.891	20499
896.012	20579
896.134	20480
896.255	20507
896.376	20461
896.498	20545
896.619	20488
896.74	20480
896.861	20625
896.982	20758
897.103	20941
897.224	20815
897.345	20689
897.466	20804
897.587	20712
897.708	20804
897.828	20743
897.949	20678
898.07	20549
898.19	20629
898.311	20853
898.431	20606
898.552	20632
898.672	20807
898.792	20731
898.913	20796
899.033	20541
899.153	20419
899.273	20347
899.393	20366
899.513	20461
899.633	20431
899.753	20427
899.873	20396
899.993	20473
900.113	20317
900.232	20358
900.352	20339
900.472	20233
900.591	20214
900.711	20305
900.83	20206
900.95	20358
901.069	20419
901.189	20111
901.308	19906
901.427	19769
901.546	19830
901.665	19769
901.784	19833
901.904	19590
902.023	19624
902.141	19445
902.26	19209
902.379	19381
902.498	19369
902.617	19274
902.735	19388
902.854	19160
902.973	19236
903.091	18943
903.21	19084
903.328	18973
903.446	18913
903.565	18734
903.683	18817
903.801	18734
903.919	18730
904.038	18757
904.156	18582
904.274	18642
904.392	18464
904.51	18555
904.627	18525
904.745	18536
904.863	18506
904.981	18350
905.098	18243
905.216	18152
905.334	18323
905.451	18365
905.569	18182
905.686	18209
905.803	18182
905.921	17961
906.038	18053
906.155	17999
906.272	17840
906.389	17878
906.506	17779
906.623	17790
906.74	17817
906.857	17604
906.974	17642
907.091	17798
907.208	17923
907.324	17805
907.441	17585
907.557	17452
907.674	17467
907.79	17395
907.907	17448
908.023	17478
908.139	17516
908.256	17398
908.372	17455
908.488	17265
908.604	17166
908.72	17136
908.836	17155
908.952	17067
909.068	17136
909.184	17292
909.3	17166
909.415	17159
909.531	17170
909.647	16972
909.762	16919
909.878	16881
909.993	16892
910.108	16820
910.224	16866
910.339	16911
910.454	16713
910.57	16630
910.685	16565
910.8	16782
910.915	16713
911.03	16679
911.145	16611
911.259	16405
911.374	16462
911.489	16299
911.604	16363
911.718	16238
911.833	16150
911.947	16090
912.062	16025
912.176	16207
912.291	16120
912.405	16173
912.519	16314
912.633	16299
912.748	16150
912.862	16162
912.976	15994
913.09	16017
913.204	16010
913.318	15972
913.431	16093
913.545	16086
913.659	16147
913.772	16002
913.886	15876
914	15903
914.113	15831
914.226	15857
914.34	15778
914.453	15698
914.566	15831
914.68	15785
914.793	15694
914.906	15416
915.019	15439
915.132	15351
915.245	15412
915.358	15458
915.47	15386
915.583	15374
915.696	15428
915.809	15420
915.921	15633
916.034	15317
916.146	15218
916.259	15203
916.371	15317
916.483	15378
916.595	15256
916.708	15279
916.82	15222
916.932	15142
917.044	15085
917.156	15074
917.268	15112
917.38	15039
917.491	15032
917.603	15081
917.715	15146
917.826	15074
917.938	15013
918.049	14899
918.161	14944
918.272	15066
918.384	15077
918.495	15009
918.606	14773
918.717	14754
918.828	14868
918.939	14883
919.05	14788
919.161	14701
919.272	14686
919.383	14594
919.494	14906
919.604	14975
919.715	14743
919.826	14697
919.936	14712
920.047	14872
920.157	14777
920.267	14944
920.378	14716
920.488	14670
920.598	14845
920.708	15058
920.818	14887
920.928	14986
921.038	15017
921.148	14956
921.258	14667
921.368	14651
921.477	14594
921.587	14499
921.697	14438
921.806	14514
921.916	14298
922.025	14172
922.134	14225
922.244	14043
922.353	14142
922.462	14012
922.571	13902
922.68	13799
922.789	13757
922.898	13864
923.007	13605
923.116	13704
923.224	13696
923.333	13712
923.442	13575
923.55	13601
923.659	13548
923.767	13666
923.876	13594
923.984	13666
924.092	13521
924.201	13525
924.309	13544
924.417	13411
924.525	13434
924.633	13304
924.741	14221
924.849	13259
924.956	13381
925.064	13209
925.172	13107
925.279	13145
925.387	13209
925.494	13263
925.602	13255
925.709	13168
925.816	13004
925.924	13118
926.031	13152
926.138	13065
926.245	13110
926.352	13046
926.459	13095
926.566	13126
926.673	12966
926.779	12920
926.886	12928
926.993	12719
927.099	12764
927.206	12673
927.312	12722
927.419	12833
927.525	12798
927.631	12833
927.737	12601
927.843	12502
927.95	12441
928.056	12532
928.162	12551
928.267	12521
928.373	13065
928.479	12677
928.585	12448
928.69	12525
928.796	12532
928.901	12330
929.007	12308
929.112	12315
929.218	12323
929.323	12239
929.428	12304
929.533	12369
929.638	12171
929.743	12194
929.848	12239
929.953	12209
930.058	12114
930.163	11904
930.267	11980
930.372	12083
930.477	11897
930.581	12152
930.685	12003
930.79	11813
930.894	11874
930.998	11786
931.103	11893
931.207	11554
931.311	11524
931.415	11356
931.519	11296
931.623	11140
