Data from test_V78500241_3209.txt Node
Date: Fri Mar 25 15:32:12 CST 2022
User: usil
Spectrometer: V785-0024
Trigger mode: 0
Integration Time (sec): 4.000000E-1
Scans to average: 1
Nonlinearity correction enabled: false
Boxcar width: 0
Storing dark spectrum: false
XAxis mode: Wavelengths
Number of Pixels in Spectrum: 1024
>>>>>Begin Spectral Data<<<<<
801.071	27089
801.214	26956
801.356	26792
801.499	26765
801.641	26674
801.783	26632
801.926	26758
802.068	26587
802.211	26708
802.353	26530
802.496	26362
802.638	26336
802.78	26343
802.923	26240
803.065	26168
803.208	26187
803.35	26263
803.492	26370
803.635	26423
803.777	26309
803.919	26336
804.061	26636
804.204	26488
804.346	26400
804.488	26332
804.63	26427
804.773	26313
804.915	26404
805.057	26552
805.199	26408
805.341	26358
805.483	26617
805.626	26549
805.768	26381
805.91	26545
806.052	26575
806.194	26507
806.336	26621
806.478	26575
806.62	26431
806.762	26579
806.904	26632
807.046	27093
807.188	26956
807.33	26864
807.472	27005
807.614	26830
807.756	26731
807.898	26800
808.04	26678
808.182	26705
808.324	26746
808.465	26815
808.607	27009
808.749	27039
808.891	27272
809.033	27272
809.174	27195
809.316	27036
809.458	27108
809.6	27131
809.741	27214
809.883	27218
810.025	27294
810.166	27431
810.308	27325
810.45	27252
810.591	27180
810.733	27017
810.875	27100
811.016	26967
811.158	27077
811.299	27176
811.441	27230
811.582	27230
811.724	27180
811.865	27051
812.007	27020
812.148	27024
812.29	27138
812.431	27329
812.573	27443
812.714	27397
812.855	27507
812.997	27713
813.138	27667
813.279	27743
813.421	27488
813.562	27648
813.703	27340
813.845	27332
813.986	27028
814.127	26948
814.268	26731
814.41	26804
814.551	26651
814.692	26811
814.833	26629
814.974	26644
815.115	26735
815.256	26659
815.397	26697
815.539	26670
815.68	26583
815.821	26362
815.962	26613
816.103	26453
816.244	26469
816.385	26339
816.526	26233
816.666	26130
816.807	26054
816.948	26012
817.089	26164
817.23	25875
817.371	25826
817.512	25997
817.653	25982
817.793	25932
817.934	25936
818.075	26008
818.216	26005
818.356	26119
818.497	25936
818.638	25784
818.778	25757
818.919	25826
819.06	25807
819.2	25856
819.341	25997
819.481	26005
819.622	26115
819.762	26332
819.903	26149
820.043	26103
820.184	26046
820.324	26073
820.465	26084
820.605	26130
820.746	26062
820.886	26016
821.026	26081
821.167	26161
821.307	26107
821.447	25944
821.588	25890
821.728	25974
821.868	25677
822.008	25426
822.149	25533
822.289	25476
822.429	25202
822.569	25164
822.709	25179
822.849	24992
822.99	25015
823.13	25027
823.27	24894
823.41	24848
823.55	24764
823.69	24741
823.83	24856
823.97	24764
824.11	24563
824.25	24509
824.389	24547
824.529	24547
824.669	24677
824.809	24616
824.949	24566
825.089	24627
825.228	24677
825.368	24456
825.508	24407
825.648	24540
825.787	24448
825.927	24456
826.067	24350
826.206	24452
826.346	24445
826.485	24505
826.625	24502
826.765	24578
826.904	24585
827.044	24228
827.183	24304
827.323	24171
827.462	24159
827.601	24068
827.741	24266
827.88	24110
828.02	23999
828.159	24114
828.298	24228
828.437	24258
828.577	23946
828.716	24235
828.855	24315
828.994	23843
829.134	24007
829.273	23965
829.412	23965
829.551	23885
829.69	23779
829.829	23977
829.968	24007
830.107	23882
830.246	23901
830.385	23901
830.524	23783
830.663	23661
830.802	23733
830.941	23600
831.08	23444
831.219	23684
831.357	23604
831.496	23676
831.635	23535
831.774	23379
831.913	23258
832.051	23376
832.19	23277
832.329	23288
832.467	23189
832.606	23083
832.744	23071
832.883	23155
833.022	23117
833.16	23102
833.299	23242
833.437	23220
833.576	23216
833.714	23239
833.852	23258
833.991	23425
834.129	23269
834.267	23326
834.406	23170
834.544	23117
834.682	23273
834.821	23269
834.959	23402
835.097	23132
835.235	23277
835.373	23193
835.511	23181
835.65	23086
835.788	23140
835.926	22938
836.064	22847
836.202	22976
836.34	23044
836.478	23178
836.615	23136
836.753	23105
836.891	23090
837.029	23056
837.167	22999
837.305	23098
837.443	22854
837.58	22915
837.718	23029
837.856	23041
837.993	22930
838.131	23018
838.269	22869
838.406	22824
838.544	22786
838.681	22675
838.819	22519
838.956	22535
839.094	22485
839.231	22599
839.369	22626
839.506	22828
839.643	22584
839.781	22512
839.918	22363
840.055	22485
840.193	22470
840.33	22409
840.467	22470
840.604	22455
840.742	22752
840.879	22322
841.016	22333
841.153	22291
841.29	22485
841.427	22306
841.564	22405
841.701	22329
841.838	22287
841.975	22223
842.112	22249
842.249	22147
842.385	22196
842.522	22284
842.659	22268
842.796	22029
842.933	22055
843.069	22074
843.206	22143
843.343	22188
843.479	22124
843.616	22086
843.752	21907
843.889	21869
844.025	22051
844.162	21926
844.298	22131
844.435	21975
844.571	21854
844.708	21994
844.844	22055
844.98	22044
845.117	21945
845.253	21747
845.389	21800
845.525	21808
845.661	21778
845.798	21648
845.934	21629
846.07	21694
846.206	21625
846.342	21755
846.478	21751
846.614	21530
846.75	21332
846.886	21439
847.022	21431
847.158	21378
847.294	21367
847.429	21431
847.565	21321
847.701	21625
847.837	21047
847.972	21146
848.108	21252
848.244	21146
848.379	20929
848.515	21047
848.65	20914
848.786	20838
848.921	20994
849.057	21058
849.192	20990
849.328	21020
849.463	21058
849.598	20941
849.734	20845
849.869	20796
850.004	20701
850.14	20868
850.275	20823
850.41	20632
850.545	20636
850.68	20712
850.815	20705
850.95	20686
851.085	20899
851.22	20781
851.355	20868
851.49	20815
851.625	20811
851.76	20754
851.895	20686
852.03	20716
852.165	20902
852.299	20788
852.434	20731
852.569	20773
852.703	20701
852.838	20956
852.973	20891
853.107	20849
853.242	20606
853.376	20560
853.511	20438
853.645	20560
853.78	20720
853.914	20594
854.048	20518
854.183	20640
854.317	20587
854.451	20609
854.585	20613
854.72	20469
854.854	20636
854.988	20568
855.122	20549
855.256	20473
855.39	20625
855.524	20708
855.658	20495
855.792	20640
855.926	20678
856.06	20632
856.194	20651
856.327	20507
856.461	20476
856.595	20415
856.729	20697
856.862	20667
856.996	20492
857.13	20606
857.263	20659
857.397	20659
857.53	20705
857.664	20575
857.797	20590
857.931	20621
858.064	20545
858.197	20682
858.331	20533
858.464	20583
858.597	20499
858.731	20545
858.864	20583
858.997	20590
859.13	20552
859.263	20613
859.396	20564
859.529	20579
859.662	20568
859.795	20549
859.928	20583
860.061	20705
860.194	20701
860.327	20598
860.46	20644
860.592	20686
860.725	20754
860.858	20731
860.99	20640
861.123	20431
861.256	20526
861.388	20693
861.521	21157
861.653	20381
861.786	20351
861.918	20377
862.05	20434
862.183	20507
862.315	20590
862.447	20613
862.58	20434
862.712	20225
862.844	20210
862.976	20358
863.108	20469
863.24	20674
863.372	20298
863.504	20248
863.636	20351
863.768	20244
863.9	20305
864.032	20229
864.164	20271
864.296	20305
864.428	20457
864.559	20309
864.691	20282
864.823	20320
864.954	20248
865.086	20244
865.217	20229
865.349	20119
865.48	20176
865.612	20206
865.743	20362
865.875	20183
866.006	20221
866.137	20214
866.269	20199
866.4	20221
866.531	20092
866.662	20096
866.793	20115
866.924	20145
867.055	20225
867.186	20054
867.317	20134
867.448	20122
867.579	20100
867.71	20065
867.841	20012
867.972	20103
868.103	20187
868.233	20119
868.364	20145
868.495	20168
868.625	20419
868.756	20408
868.886	20267
869.017	20324
869.147	20526
869.278	20533
869.408	20457
869.539	20438
869.669	20499
869.799	20454
869.929	20518
870.06	20533
870.19	20754
870.32	20590
870.45	20731
870.58	20716
870.71	20823
870.84	20853
870.97	20750
871.1	20811
871.23	20914
871.36	20929
871.489	20941
871.619	21009
871.749	20941
871.879	20994
872.008	21051
872.138	21017
872.267	20963
872.397	20819
872.526	20792
872.656	20864
872.785	20899
872.915	20842
873.044	21100
873.173	21062
873.303	21051
873.432	21024
873.561	21150
873.69	21009
873.819	20975
873.948	21058
874.077	21135
874.206	20994
874.335	21047
874.464	21146
874.593	21298
874.722	21173
874.851	21233
874.979	21310
875.108	21283
875.237	21256
875.365	21226
875.494	21131
875.623	21256
875.751	21272
875.88	21264
876.008	21473
876.136	21386
876.265	21720
876.393	21778
876.521	21660
876.65	21743
876.778	21599
876.906	21576
877.034	21576
877.162	21568
877.29	21507
877.418	21671
877.546	21694
877.674	21614
877.802	21675
877.93	21648
878.058	21625
878.185	21580
878.313	21496
878.441	21599
878.568	21329
878.696	21526
878.824	21599
878.951	21713
879.079	21622
879.206	21991
879.333	21663
879.461	21648
879.588	21778
879.715	21778
879.842	21903
879.97	21671
880.097	21515
880.224	21401
880.351	21454
880.478	21523
880.605	21275
880.732	21431
880.859	21686
880.986	21420
881.112	21401
881.239	21355
881.366	21291
881.493	21119
881.619	20952
881.746	21089
881.872	21116
881.999	21028
882.125	20872
882.252	21173
882.378	20982
882.505	21127
882.631	20948
882.757	20838
882.883	20785
883.01	20659
883.136	20731
883.262	20636
883.388	20423
883.514	20838
883.64	20640
883.766	20743
883.892	20431
884.018	20533
884.143	20712
884.269	20762
884.395	20427
884.52	20370
884.646	20332
884.772	20286
884.897	20263
885.023	20358
885.148	20450
885.274	20492
885.399	20514
885.524	20473
885.65	20259
885.775	20309
885.9	20252
886.025	20423
886.15	20469
886.275	20355
886.4	20298
886.525	20514
886.65	20305
886.775	20259
886.9	20476
887.025	20518
887.149	20339
887.274	20286
887.399	20088
887.523	20191
887.648	20096
887.773	20005
887.897	20202
888.021	20218
888.146	20058
888.27	20195
888.395	20237
888.519	20161
888.643	20084
888.767	20107
888.891	20012
889.015	20008
889.139	19963
889.263	20077
889.387	20020
889.511	20244
889.635	20096
889.759	19936
889.883	20065
890.006	19936
890.13	20065
890.254	19841
890.377	19826
890.501	19693
890.624	19616
890.748	19734
890.871	19613
890.995	19430
891.118	19609
891.241	19544
891.364	19445
891.488	19731
891.611	19597
891.734	19548
891.857	19571
891.98	19403
892.103	19533
892.226	19578
892.349	19537
892.471	19419
892.594	19407
892.717	19384
892.839	19384
892.962	19537
893.085	19499
893.207	19400
893.33	19365
893.452	19324
893.575	19616
893.697	19396
893.819	19609
893.941	19651
894.064	19647
894.186	19335
894.308	19369
894.43	19483
894.552	19677
894.674	19540
894.796	19415
894.918	19457
895.04	19369
895.161	19616
895.283	19483
895.405	19422
895.526	19415
895.648	19460
895.769	19400
895.891	19453
896.012	19506
896.134	19483
896.255	19438
896.376	19529
896.498	19518
896.619	19434
896.74	19491
896.861	19548
896.982	19757
897.103	19849
897.224	19738
897.345	19753
897.466	19689
897.587	19750
897.708	19856
897.828	19788
897.949	19635
898.07	19635
898.19	19746
898.311	19841
898.431	19605
898.552	19715
898.672	19799
898.792	19769
898.913	19738
899.033	19533
899.153	19548
899.273	19445
899.393	19499
899.513	19525
899.633	19415
899.753	19415
899.873	19518
899.993	19529
900.113	19346
900.232	19388
900.352	19350
900.472	19289
900.591	19209
900.711	19297
900.83	19251
900.95	19270
901.069	19384
901.189	19107
901.308	18973
901.427	18894
901.546	18867
901.665	18871
901.784	18863
901.904	18642
902.023	18604
902.141	18502
902.26	18403
902.379	18388
902.498	18323
902.617	18346
902.735	18494
902.854	18353
902.973	18209
903.091	18114
903.21	18117
903.328	17973
903.446	17965
903.565	17767
903.683	17920
903.801	17741
903.919	17783
904.038	17809
904.156	17707
904.274	17668
904.392	17661
904.51	17558
904.627	17554
904.745	17642
904.863	17733
904.981	17391
905.098	17258
905.216	17246
905.334	17269
905.451	17334
905.569	17265
905.686	17391
905.803	17330
905.921	17086
906.038	17155
906.155	17098
906.272	16968
906.389	16946
906.506	16896
906.623	16991
906.74	16744
906.857	16717
906.974	16812
907.091	16938
907.208	16881
907.324	16919
907.441	16679
907.557	16649
907.674	16519
907.79	16459
907.907	16664
908.023	16577
908.139	16573
908.256	16561
908.372	16398
908.488	16474
908.604	16348
908.72	16291
908.836	16242
908.952	16188
909.068	16276
909.184	16413
909.3	16257
909.415	16287
909.531	16207
909.647	16120
909.762	15941
909.878	16002
909.993	15842
910.108	15945
910.224	15926
910.339	15884
910.454	15873
910.57	15789
910.685	15747
910.8	15972
910.915	15949
911.03	15717
911.145	15705
911.259	15519
911.374	15545
911.489	15568
911.604	15416
911.718	15412
911.833	15340
911.947	15260
912.062	15154
912.176	15408
912.291	15348
912.405	15401
912.519	15549
912.633	15477
912.748	15386
912.862	15325
912.976	15195
913.09	15005
913.204	15169
913.318	15131
913.431	15230
913.545	15211
913.659	15268
913.772	15112
913.886	15081
914	14891
914.113	15024
914.226	15058
914.34	15077
914.453	14891
914.566	15028
914.68	14902
914.793	14819
914.906	14712
915.019	14579
915.132	14533
915.245	14590
915.358	14701
915.47	14610
915.583	14583
915.696	14670
915.809	14686
915.921	14598
916.034	14545
916.146	14518
916.259	14518
916.371	14571
916.483	14450
916.595	14374
916.708	14476
916.82	14495
916.932	14434
917.044	14415
917.156	14377
917.268	14221
917.38	14282
917.491	14237
917.603	14248
917.715	14324
917.826	14286
917.938	14145
918.049	14096
918.161	14153
918.272	14286
918.384	14320
918.495	14237
918.606	14058
918.717	13993
918.828	14130
918.939	14092
919.05	13883
919.161	13970
919.272	13849
919.383	13875
919.494	14062
919.604	14259
919.715	14058
919.826	13955
919.936	14039
920.047	14145
920.157	13982
920.267	14221
920.378	13959
920.488	14031
920.598	14153
920.708	14309
920.818	14187
920.928	14210
921.038	14278
921.148	14195
921.258	13974
921.368	13879
921.477	13776
921.587	13746
921.697	13628
921.806	13700
921.916	13533
922.025	13487
922.134	13521
922.244	13381
922.353	13491
922.462	13289
922.571	13164
922.68	13088
922.789	13076
922.898	13080
923.007	13053
923.116	13050
923.224	13015
923.333	13027
923.442	12932
923.55	12859
923.659	12932
923.767	12901
923.876	12905
923.984	13015
924.092	12741
924.201	12791
924.309	12757
924.417	12787
924.525	12741
924.633	12840
924.741	13651
924.849	12574
924.956	12730
925.064	12536
925.172	12388
925.279	12448
925.387	12559
925.494	12559
925.602	12555
925.709	12551
925.816	12410
925.924	12376
926.031	12532
926.138	12429
926.245	12532
926.352	12346
926.459	12547
926.566	12547
926.673	12369
926.779	12311
926.886	12342
926.993	12144
927.099	12083
927.206	11958
927.312	11999
927.419	12087
927.525	12034
927.631	12155
927.737	11999
927.843	11897
927.95	11866
928.056	11920
928.162	11984
928.267	11927
928.373	12631
928.479	12022
928.585	11790
928.69	11859
928.796	11996
928.901	11813
929.007	11581
929.112	11794
929.218	11726
929.323	11688
929.428	11649
929.533	11779
929.638	11630
929.743	11657
929.848	11547
929.953	11653
930.058	11505
930.163	11235
930.267	11318
930.372	11429
930.477	11356
930.581	11539
930.685	11360
930.79	11246
930.894	11239
930.998	11284
931.103	11261
931.207	11048
931.311	10949
931.415	10835
931.519	10675
931.623	10558
