Data from test_V78500241_2823.txt Node
Date: Fri Mar 25 15:29:31 CST 2022
User: usil
Spectrometer: V785-0024
Trigger mode: 0
Integration Time (sec): 4.000000E-1
Scans to average: 1
Nonlinearity correction enabled: false
Boxcar width: 0
Storing dark spectrum: false
XAxis mode: Wavelengths
Number of Pixels in Spectrum: 1024
>>>>>Begin Spectral Data<<<<<
801.071	27214
801.214	27157
801.356	27157
801.499	26952
801.641	26705
801.783	26823
801.926	26765
802.068	26815
802.211	26750
802.353	26606
802.496	26507
802.638	26423
802.78	26434
802.923	26282
803.065	26362
803.208	26218
803.35	26564
803.492	26781
803.635	26659
803.777	26450
803.919	26689
804.061	26788
804.204	26545
804.346	26545
804.488	26389
804.63	26522
804.773	26358
804.915	26541
805.057	26613
805.199	26469
805.341	26609
805.483	26575
805.626	26705
805.768	26655
805.91	26571
806.052	26674
806.194	26575
806.336	26861
806.478	26689
806.62	26651
806.762	26678
806.904	26811
807.046	27192
807.188	27184
807.33	27096
807.472	27188
807.614	27043
807.756	27074
807.898	26925
808.04	26708
808.182	26826
808.324	26868
808.465	26914
808.607	27173
808.749	27279
808.891	27420
809.033	27519
809.174	27397
809.316	27268
809.458	27252
809.6	27199
809.741	27401
809.883	27466
810.025	27500
810.166	27553
810.308	27561
810.45	27382
810.591	27443
810.733	27405
810.875	27340
811.016	27241
811.158	27268
811.299	27386
811.441	27644
811.582	27389
811.724	27283
811.865	27321
812.007	27203
812.148	27313
812.29	27424
812.431	27382
812.573	27462
812.714	27743
812.855	27861
812.997	27728
813.138	27953
813.279	27869
813.421	27766
813.562	27732
813.703	27427
813.845	27378
813.986	27192
814.127	27051
814.268	26864
814.41	27047
814.551	26940
814.692	26986
814.833	26876
814.974	26872
815.115	26910
815.256	26777
815.397	26765
815.539	26705
815.68	26602
815.821	26651
815.962	26724
816.103	26785
816.244	26583
816.385	26583
816.526	26564
816.666	26214
816.807	26172
816.948	26309
817.089	26225
817.23	26096
817.371	26168
817.512	26149
817.653	26183
817.793	26103
817.934	26183
818.075	26172
818.216	26153
818.356	26084
818.497	26001
818.638	25902
818.778	26016
818.919	25906
819.06	26012
819.2	26225
819.341	26278
819.481	26145
819.622	26225
819.762	26552
819.903	26431
820.043	26381
820.184	26343
820.324	26164
820.465	26438
820.605	26237
820.746	26336
820.886	26134
821.026	26248
821.167	26119
821.307	26225
821.447	26187
821.588	26187
821.728	26020
821.868	25879
822.008	25677
822.149	25529
822.289	25670
822.429	25373
822.569	25274
822.709	25468
822.849	25145
822.99	25156
823.13	25152
823.27	25148
823.41	25019
823.55	24867
823.69	25031
823.83	24970
823.97	24954
824.11	24681
824.25	24719
824.389	24684
824.529	24920
824.669	24757
824.809	24897
824.949	24924
825.089	24844
825.228	24814
825.368	24669
825.508	24593
825.648	24623
825.787	24589
825.927	24745
826.067	24635
826.206	24536
826.346	24669
826.485	24642
826.625	24608
826.765	24829
826.904	24798
827.044	24410
827.183	24532
827.323	24178
827.462	24448
827.601	24296
827.741	24437
827.88	24247
828.02	24178
828.159	24365
828.298	24262
828.437	24365
828.577	24311
828.716	24407
828.855	24235
828.994	23999
829.134	23996
829.273	24083
829.412	24003
829.551	23954
829.69	24045
829.829	24064
829.968	24087
830.107	24209
830.246	23992
830.385	24007
830.524	23965
830.663	23851
830.802	23802
830.941	23714
831.08	23611
831.219	23665
831.357	23600
831.496	23802
831.635	23551
831.774	23573
831.913	23414
832.051	23452
832.19	23349
832.329	23448
832.467	23334
832.606	23364
832.744	23109
832.883	23269
833.022	23288
833.16	23330
833.299	23322
833.437	23292
833.576	23474
833.714	23372
833.852	23398
833.991	23406
834.129	23455
834.267	23417
834.406	23402
834.544	23356
834.682	23280
834.821	23288
834.959	23551
835.097	23406
835.235	23364
835.373	23402
835.511	23360
835.65	23193
835.788	23212
835.926	23086
836.064	23022
836.202	23098
836.34	23128
836.478	23277
836.615	23242
836.753	23181
836.891	23269
837.029	23273
837.167	23143
837.305	23086
837.443	23056
837.58	22995
837.718	22995
837.856	23109
837.993	23044
838.131	23071
838.269	22930
838.406	23006
838.544	22869
838.681	22698
838.819	22664
838.956	22489
839.094	22584
839.231	22603
839.369	22793
839.506	22923
839.643	22847
839.781	22554
839.918	22485
840.055	22405
840.193	22462
840.33	22459
840.467	22493
840.604	22637
840.742	22828
840.879	22329
841.016	22348
841.153	22421
841.29	22596
841.427	22436
841.564	22580
841.701	22421
841.838	22417
841.975	22344
842.112	22447
842.249	22341
842.385	22272
842.522	22432
842.659	22280
842.796	22348
842.933	22314
843.069	22249
843.206	22139
843.343	22173
843.479	22253
843.616	22337
843.752	21838
843.889	22036
844.025	22185
844.162	22070
844.298	22120
844.435	21968
844.571	21972
844.708	22131
844.844	22131
844.98	22044
845.117	22063
845.253	21964
845.389	21854
845.525	21842
845.661	21926
845.798	21690
845.934	21667
846.07	21652
846.206	21694
846.342	21766
846.478	21705
846.614	21405
846.75	21401
846.886	21405
847.022	21553
847.158	21488
847.294	21488
847.429	21603
847.565	21515
847.701	21739
847.837	21176
847.972	21119
848.108	21306
848.244	21256
848.379	21142
848.515	20952
848.65	21066
848.786	21093
848.921	21214
849.057	21058
849.192	21150
849.328	21096
849.463	21100
849.598	21032
849.734	20982
849.869	20876
850.004	20758
850.14	20686
850.275	20800
850.41	20678
850.545	20705
850.68	20804
850.815	20864
850.95	20762
851.085	21089
851.22	21085
851.355	20868
851.49	20864
851.625	20758
851.76	20864
851.895	20746
852.03	20640
852.165	20758
852.299	20853
852.434	20853
852.569	20864
852.703	20819
852.838	20929
852.973	20982
853.107	20849
853.242	20796
853.376	20552
853.511	20552
853.645	20541
853.78	20811
853.914	20549
854.048	20602
854.183	20625
854.317	20708
854.451	20876
854.585	20579
854.72	20644
854.854	20712
854.988	20629
855.122	20724
855.256	20514
855.39	20640
855.524	20682
855.658	20720
855.792	20663
855.926	20667
856.06	20720
856.194	20697
856.327	20632
856.461	20571
856.595	20541
856.729	20541
856.862	20670
856.996	20739
857.13	20758
857.263	20682
857.397	20720
857.53	20648
857.664	20708
857.797	20731
857.931	20697
858.064	20644
858.197	20727
858.331	20613
858.464	20541
858.597	20568
858.731	20564
858.864	20648
858.997	20522
859.13	20606
859.263	20697
859.396	20819
859.529	20629
859.662	20682
859.795	20594
859.928	20625
860.061	20773
860.194	20838
860.327	20674
860.46	20743
860.592	20762
860.725	20746
860.858	20830
860.99	20785
861.123	20480
861.256	20583
861.388	20602
861.521	21260
861.653	20617
861.786	20480
861.918	20431
862.05	20587
862.183	20602
862.315	20552
862.447	20587
862.58	20499
862.712	20408
862.844	20271
862.976	20499
863.108	20381
863.24	20807
863.372	20271
863.504	20377
863.636	20393
863.768	20454
863.9	20377
864.032	20370
864.164	20298
864.296	20400
864.428	20564
864.559	20412
864.691	20434
864.823	20419
864.954	20294
865.086	20309
865.217	20195
865.349	20301
865.48	20298
865.612	20332
865.743	20457
865.875	20263
866.006	20191
866.137	20252
866.269	20275
866.4	20256
866.531	20320
866.662	20069
866.793	20294
866.924	20183
867.055	20183
867.186	20290
867.317	20134
867.448	20103
867.579	20153
867.71	20119
867.841	20282
867.972	20172
868.103	20138
868.233	20202
868.364	20233
868.495	20267
868.625	20499
868.756	20682
868.886	20438
869.017	20442
869.147	20571
869.278	20560
869.408	20663
869.539	20328
869.669	20621
869.799	20587
869.929	20549
870.06	20674
870.19	20819
870.32	20663
870.45	20845
870.58	20921
870.71	20937
870.84	20971
870.97	21043
871.1	20918
871.23	21089
871.36	21184
871.489	20944
871.619	21108
871.749	21085
871.879	20979
872.008	21108
872.138	21070
872.267	21218
872.397	20929
872.526	20876
872.656	20845
872.785	20967
872.915	21116
873.044	21100
873.173	21142
873.303	21096
873.432	21252
873.561	21291
873.69	21119
873.819	21203
873.948	21108
874.077	21211
874.206	21028
874.335	21127
874.464	21207
874.593	21264
874.722	21298
874.851	21294
874.979	21389
875.108	21264
875.237	21306
875.365	21245
875.494	21370
875.623	21363
875.751	21397
875.88	21443
876.008	21443
876.136	21572
876.265	21743
876.393	21827
876.521	21888
876.65	21937
876.778	21720
876.906	21610
877.034	21591
877.162	21625
877.29	21648
877.418	21736
877.546	21701
877.674	21641
877.802	21698
877.93	21682
878.058	21641
878.185	21542
878.313	21557
878.441	21789
878.568	21481
878.696	21583
878.824	21713
878.951	21812
879.079	21846
879.206	21926
879.333	21838
879.461	21694
879.588	21884
879.715	21762
879.842	21869
879.97	21720
880.097	21515
880.224	21557
880.351	21545
880.478	21568
880.605	21431
880.732	21469
880.859	21739
880.986	21511
881.112	21583
881.239	21428
881.366	21268
881.493	21233
881.619	21104
881.746	21176
881.872	21119
881.999	20921
882.125	21146
882.252	21032
882.378	20967
882.505	21211
882.631	20891
882.757	20727
882.883	20830
883.01	20800
883.136	20739
883.262	20670
883.388	20568
883.514	20880
883.64	20800
883.766	20739
883.892	20568
884.018	20667
884.143	20769
884.269	20765
884.395	20594
884.52	20568
884.646	20514
884.772	20423
884.897	20332
885.023	20450
885.148	20575
885.274	20469
885.399	20602
885.524	20454
885.65	20488
885.775	20461
885.9	20484
886.025	20488
886.15	20503
886.275	20404
886.4	20454
886.525	20415
886.65	20412
886.775	20370
886.9	20571
887.025	20636
887.149	20419
887.274	20145
887.399	20229
887.523	20214
887.648	20145
887.773	20161
887.897	20275
888.021	20252
888.146	20195
888.27	20313
888.395	20237
888.519	20183
888.643	20332
888.767	20381
888.891	20214
889.015	20005
889.139	20035
889.263	19997
889.387	20084
889.511	20221
889.635	20149
889.759	20046
889.883	20092
890.006	20050
890.13	20100
890.254	20016
890.377	19864
890.501	19928
890.624	19742
890.748	19837
890.871	19898
890.995	19601
891.118	19533
891.241	19700
891.364	19708
891.488	19693
891.611	19563
891.734	19609
891.857	19807
891.98	19586
892.103	19723
892.226	19708
892.349	19491
892.471	19354
892.594	19552
892.717	19620
892.839	19544
892.962	19632
893.085	19548
893.207	19575
893.33	19407
893.452	19445
893.575	19597
893.697	19377
893.819	19662
893.941	19753
894.064	19715
894.186	19384
894.308	19426
894.43	19651
894.552	19651
894.674	19525
894.796	19434
894.918	19533
895.04	19559
895.161	19685
895.283	19586
895.405	19434
895.526	19586
895.648	19464
895.769	19575
895.891	19605
896.012	19586
896.134	19533
896.255	19563
896.376	19457
896.498	19540
896.619	19556
896.74	19533
896.861	19597
896.982	19967
897.103	19906
897.224	19875
897.345	19731
897.466	19784
897.587	19849
897.708	19841
897.828	19757
897.949	19655
898.07	19605
898.19	19693
898.311	19879
898.431	19734
898.552	19742
898.672	19799
898.792	19875
898.913	19830
899.033	19666
899.153	19723
899.273	19521
899.393	19510
899.513	19624
899.633	19499
899.753	19613
899.873	19468
899.993	19510
900.113	19407
900.232	19464
900.352	19415
900.472	19350
900.591	19194
900.711	19293
900.83	19411
900.95	19430
901.069	19384
901.189	19240
901.308	18973
901.427	18863
901.546	18905
901.665	18890
901.784	18977
901.904	18776
902.023	18741
902.141	18483
902.26	18536
902.379	18620
902.498	18498
902.617	18426
902.735	18483
902.854	18365
902.973	18467
903.091	18117
903.21	18053
903.328	17999
903.446	18053
903.565	17931
903.683	17832
903.801	17885
903.919	17897
904.038	17870
904.156	17619
904.274	17764
904.392	17691
904.51	17661
904.627	17767
904.745	17714
904.863	17703
904.981	17547
905.098	17455
905.216	17288
905.334	17452
905.451	17395
905.569	17410
905.686	17315
905.803	17379
905.921	17136
906.038	17185
906.155	17136
906.272	17094
906.389	17098
906.506	16923
906.623	17033
906.74	16911
906.857	16706
906.974	16843
907.091	16942
907.208	17064
907.324	16980
907.441	16805
907.557	16733
907.674	16691
907.79	16664
907.907	16668
908.023	16584
908.139	16664
908.256	16561
908.372	16531
908.488	16474
908.604	16398
908.72	16367
908.836	16379
908.952	16299
909.068	16455
909.184	16542
909.3	16314
909.415	16344
909.531	16329
909.647	16242
909.762	16097
909.878	16059
909.993	16029
910.108	16002
910.224	16067
910.339	16074
910.454	16090
910.57	15831
910.685	15854
910.8	16032
910.915	16078
911.03	15892
911.145	15694
911.259	15584
911.374	15580
911.489	15679
911.604	15580
911.718	15412
911.833	15431
911.947	15348
912.062	15260
912.176	15393
912.291	15481
912.405	15477
912.519	15641
912.633	15553
912.748	15420
912.862	15367
912.976	15256
913.09	15138
913.204	15180
913.318	15195
913.431	15382
913.545	15306
913.659	15325
913.772	15180
913.886	15062
914	15108
914.113	15047
914.226	15184
914.34	15017
914.453	14891
914.566	15024
914.68	14918
914.793	14960
914.906	14705
915.019	14678
915.132	14530
915.245	14765
915.358	14735
915.47	14651
915.583	14663
915.696	14659
915.809	14758
915.921	14739
916.034	14644
916.146	14469
916.259	14480
916.371	14610
916.483	14594
916.595	14579
916.708	14492
916.82	14556
916.932	14404
917.044	14457
917.156	14473
917.268	14263
917.38	14370
917.491	14313
917.603	14351
917.715	14434
917.826	14404
917.938	14191
918.049	14282
918.161	14275
918.272	14434
918.384	14438
918.495	14195
918.606	14149
918.717	14084
918.828	14176
918.939	14088
919.05	14069
919.161	14050
919.272	13849
919.383	14027
919.494	14111
919.604	14199
919.715	14065
919.826	14024
919.936	14081
920.047	14244
920.157	14050
920.267	14157
920.378	14168
920.488	14039
920.598	14290
920.708	14415
920.818	14161
920.928	14183
921.038	14400
921.148	14332
921.258	14039
921.368	14001
921.477	13811
921.587	13761
921.697	13738
921.806	13795
921.916	13616
922.025	13582
922.134	13514
922.244	13449
922.353	13502
922.462	13373
922.571	13263
922.68	13221
922.789	13118
922.898	13107
923.007	13053
923.116	13107
923.224	13084
923.333	13008
923.442	12966
923.55	12916
923.659	13023
923.767	13118
923.876	12970
923.984	12935
924.092	12814
924.201	12909
924.309	12901
924.417	12852
924.525	12837
924.633	12829
924.741	13472
924.849	12547
924.956	12745
925.064	12608
925.172	12620
925.279	12544
925.387	12502
925.494	12540
925.602	12551
925.709	12627
925.816	12418
925.924	12566
926.031	12631
926.138	12479
926.245	12521
926.352	12346
926.459	12513
926.566	12494
926.673	12399
926.779	12262
926.886	12243
926.993	12258
927.099	12152
927.206	12057
927.312	12098
927.419	12102
927.525	12019
927.631	12095
927.737	12083
927.843	12007
927.95	11843
928.056	11942
928.162	11980
928.267	12030
928.373	12650
928.479	12064
928.585	11798
928.69	11912
928.796	11916
928.901	11836
929.007	11718
929.112	11836
929.218	11748
929.323	11809
929.428	11695
929.533	11836
929.638	11604
929.743	11619
929.848	11703
929.953	11638
930.058	11512
930.163	11429
930.267	11414
930.372	11562
930.477	11398
930.581	11600
930.685	11402
930.79	11246
930.894	11326
930.998	11280
931.103	11402
931.207	11045
931.311	10953
931.415	10877
931.519	10698
931.623	10649
