Data from test_V78500241_2314.txt Node
Date: Fri Mar 25 15:25:58 CST 2022
User: usil
Spectrometer: V785-0024
Trigger mode: 0
Integration Time (sec): 4.000000E-1
Scans to average: 1
Nonlinearity correction enabled: false
Boxcar width: 0
Storing dark spectrum: false
XAxis mode: Wavelengths
Number of Pixels in Spectrum: 1024
>>>>>Begin Spectral Data<<<<<
801.071	27481
801.214	27424
801.356	27222
801.499	27093
801.641	26971
801.783	26918
801.926	27089
802.068	27009
802.211	26963
802.353	26769
802.496	26697
802.638	26568
802.78	26667
802.923	26625
803.065	26579
803.208	26518
803.35	26530
803.492	26648
803.635	26746
803.777	26686
803.919	26914
804.061	27089
804.204	26777
804.346	26785
804.488	26807
804.63	26819
804.773	26796
804.915	26815
805.057	26918
805.199	26716
805.341	26872
805.483	26914
805.626	26979
805.768	26765
805.91	26880
806.052	26994
806.194	26899
806.336	27074
806.478	26902
806.62	26861
806.762	26876
806.904	27252
807.046	27351
807.188	27367
807.33	27431
807.472	27393
807.614	27264
807.756	27279
807.898	27199
808.04	27188
808.182	27058
808.324	27237
808.465	27245
808.607	27393
808.749	27564
808.891	27603
809.033	27648
809.174	27466
809.316	27431
809.458	27473
809.6	27526
809.741	27679
809.883	27682
810.025	27823
810.166	27808
810.308	27686
810.45	27876
810.591	27641
810.733	27549
810.875	27443
811.016	27386
811.158	27336
811.299	27500
811.441	27652
811.582	27496
811.724	27443
811.865	27515
812.007	27435
812.148	27450
812.29	27580
812.431	27720
812.573	27835
812.714	28013
812.855	28029
812.997	28128
813.138	28268
813.279	28143
813.421	28154
813.562	28040
813.703	27850
813.845	27633
813.986	27504
814.127	27370
814.268	27211
814.41	27222
814.551	27108
814.692	27351
814.833	27184
814.974	27127
815.115	27291
815.256	27032
815.397	27085
815.539	26948
815.68	26921
815.821	26849
815.962	27017
816.103	26853
816.244	26838
816.385	26697
816.526	26792
816.666	26583
816.807	26522
816.948	26507
817.089	26461
817.23	26533
817.371	26469
817.512	26446
817.653	26339
817.793	26351
817.934	26461
818.075	26606
818.216	26537
818.356	26400
818.497	26313
818.638	26172
818.778	26214
818.919	26286
819.06	26370
819.2	26488
819.341	26503
819.481	26568
819.622	26621
819.762	26800
819.903	26727
820.043	26560
820.184	26511
820.324	26526
820.465	26663
820.605	26503
820.746	26564
820.886	26522
821.026	26564
821.167	26453
821.307	26514
821.447	26549
821.588	26347
821.728	26339
821.868	26100
822.008	25974
822.149	25982
822.289	25913
822.429	25814
822.569	25590
822.709	25510
822.849	25476
822.99	25343
823.13	25244
823.27	25384
823.41	25320
823.55	25171
823.69	25289
823.83	25285
823.97	25160
824.11	24939
824.25	24913
824.389	25088
824.529	25076
824.669	25061
824.809	25103
824.949	25236
825.089	25050
825.228	25114
825.368	24947
825.508	24947
825.648	24943
825.787	24943
825.927	24920
826.067	24943
826.206	24905
826.346	25099
826.485	24905
826.625	24833
826.765	25046
826.904	24882
827.044	24696
827.183	24768
827.323	24585
827.462	24791
827.601	24738
827.741	24639
827.88	24658
828.02	24452
828.159	24669
828.298	24585
828.437	24639
828.577	24700
828.716	24757
828.855	24563
828.994	24403
829.134	24418
829.273	24456
829.412	24361
829.551	24323
829.69	24311
829.829	24357
829.968	24334
830.107	24525
830.246	24216
830.385	24235
830.524	24121
830.663	24068
830.802	24064
830.941	24098
831.08	24011
831.219	24121
831.357	23992
831.496	24133
831.635	23935
831.774	23927
831.913	23813
832.051	23775
832.19	23794
832.329	23649
832.467	23657
832.606	23566
832.744	23531
832.883	23714
833.022	23558
833.16	23646
833.299	23646
833.437	23653
833.576	23752
833.714	23627
833.852	23687
833.991	23756
834.129	23855
834.267	23699
834.406	23710
834.544	23748
834.682	23714
834.821	23505
834.959	23726
835.097	23592
835.235	23710
835.373	23794
835.511	23638
835.65	23623
835.788	23436
835.926	23376
836.064	23341
836.202	23349
836.34	23402
836.478	23672
836.615	23360
836.753	23452
836.891	23623
837.029	23512
837.167	23520
837.305	23436
837.443	23349
837.58	23368
837.718	23509
837.856	23490
837.993	23197
838.131	23383
838.269	23280
838.406	23334
838.544	23223
838.681	23094
838.819	22968
838.956	22858
839.094	22896
839.231	22835
839.369	23041
839.506	23250
839.643	23003
839.781	22858
839.918	22786
840.055	22820
840.193	22801
840.33	22790
840.467	22786
840.604	22771
840.742	23067
840.879	22512
841.016	22702
841.153	22641
841.29	22862
841.427	22713
841.564	22839
841.701	22721
841.838	22767
841.975	22622
842.112	22599
842.249	22508
842.385	22512
842.522	22660
842.659	22565
842.796	22451
842.933	22481
843.069	22413
843.206	22436
843.343	22546
843.479	22478
843.616	22489
843.752	22352
843.889	22367
844.025	22329
844.162	22223
844.298	22306
844.435	22265
844.571	22207
844.708	22253
844.844	22432
844.98	22360
845.117	22314
845.253	22253
845.389	22078
845.525	22021
845.661	22154
845.798	21945
845.934	22128
846.07	21987
846.206	22017
846.342	22105
846.478	22048
846.614	21937
846.75	21724
846.886	21743
847.022	21781
847.158	21838
847.294	21682
847.429	21728
847.565	21774
847.701	22040
847.837	21416
847.972	21443
848.108	21473
848.244	21511
848.379	21405
848.515	21382
848.65	21321
848.786	21329
848.921	21428
849.057	21553
849.192	21393
849.328	21351
849.463	21450
849.598	21291
849.734	21275
849.869	21165
850.004	21116
850.14	21100
850.275	21161
850.41	21028
850.545	20994
850.68	21055
850.815	21089
850.95	21070
851.085	21294
851.22	21218
851.355	20963
851.49	21135
851.625	21169
851.76	21119
851.895	21009
852.03	21055
852.165	21062
852.299	21154
852.434	21051
852.569	21116
852.703	20971
852.838	21096
852.973	21184
853.107	21195
853.242	21104
853.376	20830
853.511	20918
853.645	20857
853.78	21009
853.914	20716
854.048	20944
854.183	20960
854.317	21009
854.451	21096
854.585	20880
854.72	20861
854.854	20982
854.988	20910
855.122	20891
855.256	20838
855.39	20910
855.524	21085
855.658	20982
855.792	20826
855.926	21062
856.06	21005
856.194	21047
856.327	20960
856.461	20910
856.595	20857
856.729	20979
856.862	20994
856.996	20960
857.13	21039
857.263	21081
857.397	20944
857.53	20929
857.664	21001
857.797	20952
857.931	21036
858.064	20910
858.197	20986
858.331	20895
858.464	20777
858.597	20971
858.731	20948
858.864	20929
858.997	20864
859.13	20902
859.263	20895
859.396	21081
859.529	20876
859.662	20887
859.795	21001
859.928	20925
860.061	21043
860.194	21077
860.327	20967
860.46	20933
860.592	20952
860.725	21047
860.858	21131
860.99	21009
861.123	20883
861.256	20746
861.388	20887
861.521	21641
861.653	20838
861.786	20788
861.918	20845
862.05	20895
862.183	20826
862.315	20800
862.447	20914
862.58	20762
862.712	20621
862.844	20701
862.976	20720
863.108	20750
863.24	21112
863.372	20625
863.504	20712
863.636	20590
863.768	20670
863.9	20689
864.032	20670
864.164	20560
864.296	20651
864.428	20701
864.559	20682
864.691	20663
864.823	20613
864.954	20724
865.086	20583
865.217	20594
865.349	20442
865.48	20590
865.612	20514
865.743	20590
865.875	20655
866.006	20564
866.137	20556
866.269	20617
866.4	20473
866.531	20415
866.662	20438
866.793	20454
866.924	20461
867.055	20461
867.186	20431
867.317	20408
867.448	20404
867.579	20564
867.71	20275
867.841	20412
867.972	20404
868.103	20488
868.233	20530
868.364	20613
868.495	20480
868.625	20670
868.756	20872
868.886	20705
869.017	20644
869.147	20861
869.278	20754
869.408	20762
869.539	20705
869.669	20689
869.799	20735
869.929	20826
870.06	20861
870.19	20910
870.32	20933
870.45	21036
870.58	21169
870.71	21203
870.84	21157
870.97	21207
871.1	21096
871.23	21325
871.36	21325
871.489	21211
871.619	21317
871.749	21428
871.879	21386
872.008	21408
872.138	21355
872.267	21245
872.397	21009
872.526	21154
872.656	21249
872.785	21268
872.915	21287
873.044	21298
873.173	21389
873.303	21447
873.432	21363
873.561	21370
873.69	21298
873.819	21222
873.948	21386
874.077	21233
874.206	21283
874.335	21359
874.464	21458
874.593	21568
874.722	21374
874.851	21431
874.979	21576
875.108	21599
875.237	21564
875.365	21454
875.494	21469
875.623	21656
875.751	21591
875.88	21595
876.008	21603
876.136	21747
876.265	21998
876.393	22025
876.521	21979
876.65	22032
876.778	21956
876.906	21816
877.034	21854
877.162	21911
877.29	21823
877.418	21926
877.546	21812
877.674	21846
877.802	22048
877.93	21911
878.058	21857
878.185	21793
878.313	21941
878.441	21956
878.568	21736
878.696	21846
878.824	21797
878.951	21983
879.079	22131
879.206	22150
879.333	22040
879.461	21953
879.588	21968
879.715	22063
879.842	22196
879.97	21937
880.097	21751
880.224	21701
880.351	21766
880.478	21690
880.605	21644
880.732	21701
880.859	22025
880.986	21778
881.112	21770
881.239	21530
881.366	21595
881.493	21416
881.619	21374
881.746	21321
881.872	21298
881.999	21313
882.125	21340
882.252	21321
882.378	21192
882.505	21306
882.631	21150
882.757	21047
882.883	21096
883.01	20975
883.136	20937
883.262	20910
883.388	20891
883.514	20944
883.64	21131
883.766	20971
883.892	20819
884.018	20887
884.143	20948
884.269	21009
884.395	20682
884.52	20762
884.646	20697
884.772	20602
884.897	20499
885.023	20708
885.148	20861
885.274	20765
885.399	20769
885.524	20609
885.65	20678
885.775	20655
885.9	20583
886.025	20804
886.15	20731
886.275	20678
886.4	20617
886.525	20659
886.65	20560
886.775	20457
886.9	20819
887.025	20785
887.149	20670
887.274	20526
887.399	20370
887.523	20522
887.648	20503
887.773	20514
887.897	20473
888.021	20488
888.146	20389
888.27	20545
888.395	20537
888.519	20454
888.643	20454
888.767	20541
888.891	20381
889.015	20301
889.139	20404
889.263	20248
889.387	20336
889.511	20457
889.635	20400
889.759	20225
889.883	20149
890.006	20237
890.13	20366
890.254	20077
890.377	20210
890.501	19845
890.624	20027
890.748	20081
890.871	20016
890.995	19791
891.118	19765
891.241	19868
891.364	19837
891.488	20092
891.611	19814
891.734	19803
891.857	19765
891.98	19822
892.103	19772
892.226	19837
892.349	19803
892.471	19582
892.594	19723
892.717	19704
892.839	19689
892.962	19734
893.085	19772
893.207	19681
893.33	19533
893.452	19597
893.575	19791
893.697	19746
893.819	19902
893.941	19845
894.064	19674
894.186	19639
894.308	19597
894.43	19890
894.552	19826
894.674	19795
894.796	19658
894.918	19761
895.04	19635
895.161	19715
895.283	19738
895.405	19597
895.526	19685
895.648	19674
895.769	19780
895.891	19833
896.012	19868
896.134	19723
896.255	19746
896.376	19666
896.498	19715
896.619	19799
896.74	19788
896.861	19677
896.982	19974
897.103	20259
897.224	19913
897.345	19986
897.466	19951
897.587	20062
897.708	20092
897.828	20046
897.949	19906
898.07	19693
898.19	19837
898.311	19936
898.431	19955
898.552	19940
898.672	19868
898.792	19989
898.913	19955
899.033	19906
899.153	19784
899.273	19704
899.393	19556
899.513	19807
899.633	19693
899.753	19864
899.873	19601
899.993	19765
900.113	19658
900.232	19715
900.352	19620
900.472	19647
900.591	19476
900.711	19449
900.83	19472
900.95	19616
901.069	19594
901.189	19282
901.308	19247
901.427	19050
901.546	19137
901.665	19015
901.784	19160
901.904	19019
902.023	18875
902.141	18646
902.26	18661
902.379	18726
902.498	18639
902.617	18585
902.735	18627
902.854	18593
902.973	18604
903.091	18220
903.21	18391
903.328	18285
903.446	18224
903.565	18022
903.683	18129
903.801	17958
903.919	18045
904.038	18038
904.156	17836
904.274	17999
904.392	17805
904.51	17912
904.627	17878
904.745	17885
904.863	17923
904.981	17714
905.098	17554
905.216	17497
905.334	17589
905.451	17486
905.569	17539
905.686	17440
905.803	17497
905.921	17364
906.038	17379
906.155	17334
906.272	17204
906.389	17258
906.506	17048
906.623	17143
906.74	16987
906.857	16949
906.974	16999
907.091	17105
907.208	17117
907.324	17155
907.441	17010
907.557	16862
907.674	16767
907.79	16675
907.907	16752
908.023	16824
908.139	16824
908.256	16577
908.372	16630
908.488	16637
908.604	16523
908.72	16382
908.836	16535
908.952	16531
909.068	16558
909.184	16569
909.3	16561
909.415	16603
909.531	16508
909.647	16276
909.762	16200
909.878	16185
909.993	16295
910.108	16097
910.224	16116
910.339	16230
910.454	16093
910.57	15979
910.685	15899
910.8	16158
910.915	16082
911.03	16147
911.145	15793
911.259	15698
911.374	15850
911.489	15720
911.604	15717
911.718	15625
911.833	15530
911.947	15443
912.062	15321
912.176	15549
912.291	15572
912.405	15557
912.519	15759
912.633	15766
912.748	15534
912.862	15492
912.976	15294
913.09	15306
913.204	15291
913.318	15416
913.431	15481
913.545	15450
913.659	15545
913.772	15367
913.886	15237
914	15097
914.113	15222
914.226	15291
914.34	15127
914.453	15154
914.566	15222
914.68	15043
914.793	15062
914.906	14944
915.019	14830
915.132	14716
915.245	14800
915.358	14914
915.47	14872
915.583	14834
915.696	14781
915.809	14944
915.921	14883
916.034	14716
916.146	14720
916.259	14724
916.371	14773
916.483	14765
916.595	14606
916.708	14617
916.82	14598
916.932	14571
917.044	14621
917.156	14488
917.268	14454
917.38	14533
917.491	14571
917.603	14450
917.715	14503
917.826	14564
917.938	14370
918.049	14328
918.161	14438
918.272	14564
918.384	14530
918.495	14495
918.606	14214
918.717	14065
918.828	14267
918.939	14370
919.05	14149
919.161	14229
919.272	13989
919.383	14081
919.494	14263
919.604	14465
919.715	14142
919.826	14088
919.936	14164
920.047	14199
920.157	14301
920.267	14377
920.378	14119
920.488	14145
920.598	14259
920.708	14587
920.818	14366
920.928	14210
921.038	14537
921.148	14473
921.258	14229
921.368	14043
921.477	14016
921.587	14054
921.697	13875
921.806	14024
921.916	13738
922.025	13628
922.134	13613
922.244	13460
922.353	13578
922.462	13491
922.571	13392
922.68	13217
922.789	13282
922.898	13232
923.007	13122
923.116	13259
923.224	13209
923.333	13107
923.442	13053
923.55	13145
923.659	13110
923.767	13183
923.876	13050
923.984	12989
924.092	13080
924.201	13034
924.309	12947
924.417	12977
924.525	12970
924.633	12966
924.741	13841
924.849	12627
924.956	12901
925.064	12738
925.172	12623
925.279	12616
925.387	12665
925.494	12692
925.602	12700
925.709	12696
925.816	12551
925.924	12608
926.031	12738
926.138	12601
926.245	12551
926.352	12471
926.459	12662
926.566	12650
926.673	12601
926.779	12452
926.886	12475
926.993	12273
927.099	12319
927.206	12098
927.312	12254
927.419	12285
927.525	12277
927.631	12277
927.737	12117
927.843	12102
927.95	11973
928.056	12041
928.162	12076
928.267	12106
928.373	12604
928.479	12224
928.585	11950
928.69	12049
928.796	12015
928.901	11980
929.007	11805
929.112	11939
929.218	11931
929.323	11802
929.428	11771
929.533	11916
929.638	11809
929.743	11802
929.848	11771
929.953	11760
930.058	11592
930.163	11459
930.267	11501
930.372	11630
930.477	11516
930.581	11707
930.685	11577
930.79	11493
930.894	11383
930.998	11341
931.103	11474
931.207	11132
931.311	11029
931.415	10957
931.519	10869
931.623	10839
