Data from test_V78500241_1243.txt Node
Date: Fri Mar 25 15:18:30 CST 2022
User: usil
Spectrometer: V785-0024
Trigger mode: 0
Integration Time (sec): 4.000000E-1
Scans to average: 1
Nonlinearity correction enabled: false
Boxcar width: 0
Storing dark spectrum: false
XAxis mode: Wavelengths
Number of Pixels in Spectrum: 1024
>>>>>Begin Spectral Data<<<<<
801.071	27876
801.214	27629
801.356	27477
801.499	27283
801.641	27154
801.783	27119
801.926	27317
802.068	27100
802.211	27176
802.353	26979
802.496	26811
802.638	26826
802.78	26834
802.923	26705
803.065	26746
803.208	26712
803.35	26777
803.492	26857
803.635	27116
803.777	26971
803.919	27017
804.061	27230
804.204	27074
804.346	27066
804.488	26986
804.63	27062
804.773	26891
804.915	27184
805.057	27207
805.199	27028
805.341	27135
805.483	27161
805.626	27043
805.768	26975
805.91	27135
806.052	27241
806.194	27077
806.336	27389
806.478	27077
806.62	27100
806.762	27100
806.904	27542
807.046	27591
807.188	27431
807.33	27553
807.472	27580
807.614	27386
807.756	27587
807.898	27523
808.04	27424
808.182	27336
808.324	27511
808.465	27507
808.607	27519
808.749	27831
808.891	27819
809.033	27991
809.174	27831
809.316	27816
809.458	27667
809.6	27701
809.741	27857
809.883	27816
810.025	28070
810.166	28162
810.308	28021
810.45	28002
810.591	27873
810.733	27724
810.875	27766
811.016	27679
811.158	27576
811.299	27774
811.441	27838
811.582	27983
811.724	27778
811.865	27713
812.007	27789
812.148	27698
812.29	27770
812.431	27968
812.573	28135
812.714	28070
812.855	28150
812.997	28333
813.138	28497
813.279	28379
813.421	28291
813.562	28234
813.703	28162
813.845	27907
813.986	27869
814.127	27500
814.268	27351
814.41	27591
814.551	27507
814.692	27622
814.833	27416
814.974	27469
815.115	27435
815.256	27264
815.397	27408
815.539	27321
815.68	27237
815.821	27176
815.962	27294
816.103	27188
816.244	27138
816.385	27024
816.526	26895
816.666	26712
816.807	26861
816.948	26792
817.089	26819
817.23	26880
817.371	26804
817.512	26758
817.653	26845
817.793	26663
817.934	26731
818.075	26788
818.216	26720
818.356	26659
818.497	26583
818.638	26434
818.778	26537
818.919	26575
819.06	26526
819.2	26602
819.341	26560
819.481	26655
819.622	26739
819.762	26960
819.903	27047
820.043	26998
820.184	26716
820.324	26857
820.465	26899
820.605	26937
820.746	26792
820.886	26788
821.026	26864
821.167	26777
821.307	26842
821.447	26682
821.588	26560
821.728	26537
821.868	26450
822.008	26259
822.149	26119
822.289	26233
822.429	25974
822.569	25898
822.709	25894
822.849	25750
822.99	25761
823.13	25799
823.27	25544
823.41	25529
823.55	25384
823.69	25594
823.83	25624
823.97	25403
824.11	25293
824.25	25316
824.389	25384
824.529	25407
824.669	25350
824.809	25365
824.949	25548
825.089	25388
825.228	25419
825.368	25202
825.508	25240
825.648	25263
825.787	25308
825.927	25266
826.067	25160
826.206	25217
826.346	25240
826.485	25278
826.625	25282
826.765	25255
826.904	25381
827.044	25034
827.183	24966
827.323	24825
827.462	24989
827.601	25141
827.741	24916
827.88	25034
828.02	24875
828.159	25038
828.298	24966
828.437	24939
828.577	24776
828.716	24985
828.855	24783
828.994	24566
829.134	24661
829.273	24715
829.412	24738
829.551	24620
829.69	24547
829.829	24597
829.968	24669
830.107	24700
830.246	24749
830.385	24608
830.524	24471
830.663	24566
830.802	24395
830.941	24258
831.08	24357
831.219	24342
831.357	24323
831.496	24528
831.635	24201
831.774	24171
831.913	24289
832.051	24167
832.19	23980
832.329	23984
832.467	23996
832.606	23999
832.744	23927
832.883	23824
833.022	23950
833.16	24003
833.299	23946
833.437	24022
833.576	24045
833.714	23984
833.852	24076
833.991	24041
834.129	24140
834.267	24083
834.406	24129
834.544	23980
834.682	23965
834.821	23988
834.959	24247
835.097	23920
835.235	24110
835.373	23893
835.511	24007
835.65	23828
835.788	23923
835.926	23764
836.064	23627
836.202	23676
836.34	23859
836.478	23942
836.615	23866
836.753	23874
836.891	23935
837.029	23874
837.167	23745
837.305	23805
837.443	23794
837.58	23741
837.718	23756
837.856	23729
837.993	23684
838.131	23718
838.269	23577
838.406	23733
838.544	23649
838.681	23360
838.819	23334
838.956	23235
839.094	23307
839.231	23216
839.369	23402
839.506	23520
839.643	23467
839.781	23189
839.918	23079
840.055	23216
840.193	23181
840.33	23128
840.467	23109
840.604	23174
840.742	23448
840.879	22968
841.016	22980
841.153	23006
841.29	23254
841.427	23170
841.564	23132
841.701	23090
841.838	23128
841.975	22854
842.112	23018
842.249	22972
842.385	22847
842.522	23109
842.659	23071
842.796	22972
842.933	22927
843.069	22885
843.206	22854
843.343	23029
843.479	22778
843.616	22892
843.752	22694
843.889	22660
844.025	22843
844.162	22645
844.298	22717
844.435	22672
844.571	22618
844.708	22641
844.844	22915
844.98	22797
845.117	22755
845.253	22634
845.389	22573
845.525	22584
845.661	22504
845.798	22344
845.934	22375
846.07	22485
846.206	22580
846.342	22618
846.478	22257
846.614	22158
846.75	22074
846.886	22230
847.022	22226
847.158	22013
847.294	22219
847.429	22173
847.565	22116
847.701	22360
847.837	22025
847.972	21770
848.108	21915
848.244	21956
848.379	21854
848.515	21709
848.65	21652
848.786	21679
848.921	21789
849.057	21709
849.192	21827
849.328	21770
849.463	21747
849.598	21701
849.734	21568
849.869	21545
850.004	21496
850.14	21561
850.275	21458
850.41	21363
850.545	21492
850.68	21428
850.815	21466
850.95	21557
851.085	21736
851.22	21713
851.355	21530
851.49	21393
851.625	21420
851.76	21298
851.895	21454
852.03	21454
852.165	21382
852.299	21515
852.434	21462
852.569	21553
852.703	21496
852.838	21454
852.973	21553
853.107	21576
853.242	21344
853.376	21329
853.511	21233
853.645	21214
853.78	21310
853.914	21405
854.048	21382
854.183	21294
854.317	21306
854.451	21557
854.585	21233
854.72	21256
854.854	21382
854.988	21192
855.122	21264
855.256	21233
855.39	21264
855.524	21435
855.658	21393
855.792	21386
855.926	21218
856.06	21329
856.194	21302
856.327	21260
856.461	21176
856.595	21142
856.729	21317
856.862	21386
856.996	21336
857.13	21408
857.263	21492
857.397	21386
857.53	21188
857.664	21332
857.797	21332
857.931	21447
858.064	21294
858.197	21355
858.331	21264
858.464	21211
858.597	21138
858.731	21325
858.864	21329
858.997	21161
859.13	21283
859.263	21302
859.396	21313
859.529	21302
859.662	21211
859.795	21249
859.928	21249
860.061	21450
860.194	21435
860.327	21363
860.46	21325
860.592	21462
860.725	21428
860.858	21294
860.99	21317
861.123	21214
861.256	21104
861.388	21313
861.521	21998
861.653	21214
861.786	21104
861.918	21096
862.05	21123
862.183	21207
862.315	21230
862.447	21207
862.58	21180
862.712	20895
862.844	21055
862.976	21085
863.108	20967
863.24	21515
863.372	20990
863.504	20902
863.636	21009
863.768	20960
863.9	21017
864.032	20979
864.164	20910
864.296	20982
864.428	21032
864.559	21070
864.691	21009
864.823	20979
864.954	21032
865.086	21020
865.217	20887
865.349	20849
865.48	20956
865.612	20830
865.743	21024
865.875	21058
866.006	20727
866.137	20876
866.269	20948
866.4	20849
866.531	20952
866.662	20895
866.793	20861
866.924	20902
867.055	20937
867.186	20762
867.317	20883
867.448	20826
867.579	20861
867.71	20686
867.841	20773
867.972	20758
868.103	20861
868.233	20796
868.364	20754
868.495	20914
868.625	21116
868.756	21252
868.886	20967
869.017	21039
869.147	21199
869.278	21093
869.408	21195
869.539	21047
869.669	21173
869.799	21074
869.929	21199
870.06	21226
870.19	21428
870.32	21393
870.45	21515
870.58	21382
870.71	21485
870.84	21454
870.97	21431
871.1	21458
871.23	21637
871.36	21728
871.489	21492
871.619	21561
871.749	21679
871.879	21743
872.008	21846
872.138	21576
872.267	21652
872.397	21511
872.526	21591
872.656	21507
872.785	21545
872.915	21637
873.044	21762
873.173	21694
873.303	21717
873.432	21709
873.561	21778
873.69	21622
873.819	21808
873.948	21827
874.077	21701
874.206	21739
874.335	21656
874.464	21816
874.593	21937
874.722	21846
874.851	21880
874.979	21972
875.108	21937
875.237	21850
875.365	21804
875.494	21850
875.623	22017
875.751	21846
875.88	22006
876.008	22044
876.136	22265
876.265	22280
876.393	22402
876.521	22249
876.65	22447
876.778	22314
876.906	22211
877.034	22188
877.162	22173
877.29	22268
877.418	22394
877.546	22337
877.674	22268
877.802	22253
877.93	22120
878.058	22261
878.185	22200
878.313	22185
878.441	22192
878.568	22051
878.696	22093
878.824	22291
878.951	22291
879.079	22379
879.206	22569
879.333	22500
879.461	22344
879.588	22394
879.715	22371
879.842	22630
879.97	22276
880.097	22013
880.224	21979
880.351	22097
880.478	22158
880.605	22025
880.732	22002
880.859	22223
880.986	21949
881.112	22101
881.239	22067
881.366	21739
881.493	21751
881.619	21633
881.746	21724
881.872	21732
881.999	21523
882.125	21739
882.252	21713
882.378	21648
882.505	21739
882.631	21564
882.757	21306
882.883	21466
883.01	21450
883.136	21336
883.262	21321
883.388	21188
883.514	21386
883.64	21359
883.766	21268
883.892	21093
884.018	21146
884.143	21180
884.269	21332
884.395	21062
884.52	20925
884.646	21043
884.772	20937
884.897	20823
885.023	21055
885.148	20998
885.274	21199
885.399	21096
885.524	20994
885.65	21123
885.775	21100
885.9	20929
886.025	21116
886.15	21051
886.275	20975
886.4	20861
886.525	20933
886.65	20910
886.775	20925
886.9	21020
887.025	21275
887.149	20914
887.274	20781
887.399	20823
887.523	20868
887.648	20762
887.773	20693
887.897	20819
888.021	20750
888.146	20720
888.27	20975
888.395	20769
888.519	20872
888.643	20849
888.767	20712
888.891	20564
889.015	20549
889.139	20583
889.263	20533
889.387	20705
889.511	20758
889.635	20663
889.759	20598
889.883	20408
890.006	20693
890.13	20640
890.254	20415
890.377	20556
890.501	20278
890.624	20237
890.748	20419
890.871	20305
890.995	20145
891.118	19978
891.241	20202
891.364	20134
891.488	20164
891.611	20096
891.734	20142
891.857	20240
891.98	20164
892.103	20157
892.226	20183
892.349	20073
892.471	19883
892.594	19940
892.717	20149
892.839	19982
892.962	20043
893.085	20157
893.207	20103
893.33	19913
893.452	19986
893.575	20149
893.697	19963
893.819	20237
893.941	20301
894.064	20267
894.186	19970
894.308	20005
894.43	20077
894.552	20180
894.674	20180
894.796	19982
894.918	19963
895.04	19940
895.161	20046
895.283	20039
895.405	20027
895.526	19963
895.648	19959
895.769	20103
895.891	20237
896.012	20096
896.134	20187
896.255	20081
896.376	20031
896.498	19986
896.619	19986
896.74	20058
896.861	20111
896.982	20404
897.103	20465
897.224	20275
897.345	20233
897.466	20183
897.587	20161
897.708	20381
897.828	20408
897.949	20218
898.07	20054
898.19	20168
898.311	20263
898.431	20077
898.552	20294
898.672	20343
898.792	20396
898.913	20240
899.033	20126
899.153	20031
899.273	19951
899.393	20092
899.513	19986
899.633	19993
899.753	20001
899.873	19947
899.993	20077
900.113	19898
900.232	19883
900.352	19917
900.472	19890
900.591	19704
900.711	19852
900.83	19734
900.95	19715
901.069	19852
901.189	19632
901.308	19350
901.427	19339
901.546	19346
901.665	19358
901.784	19411
901.904	19137
902.023	19259
902.141	18981
902.26	18993
902.379	18829
902.498	18829
902.617	18791
902.735	19000
902.854	18825
902.973	18760
903.091	18551
903.21	18578
903.328	18467
903.446	18509
903.565	18388
903.683	18319
903.801	18247
903.919	18296
904.038	18239
904.156	18216
904.274	18095
904.392	18098
904.51	18155
904.627	18197
904.745	18155
904.863	18155
904.981	17863
905.098	17771
905.216	17809
905.334	17821
905.451	17783
905.569	17798
905.686	17726
905.803	17805
905.921	17566
906.038	17699
906.155	17566
906.272	17585
906.389	17558
906.506	17356
906.623	17311
906.74	17307
906.857	17303
906.974	17311
907.091	17322
907.208	17471
907.324	17261
907.441	17315
907.557	17071
907.674	17086
907.79	16957
907.907	17018
908.023	16919
908.139	17064
908.256	16930
908.372	16946
908.488	16915
908.604	16828
908.72	16774
908.836	16771
908.952	16786
909.068	16904
909.184	16793
909.3	16664
909.415	16706
909.531	16771
909.647	16584
909.762	16409
909.878	16459
909.993	16466
910.108	16424
910.224	16535
910.339	16390
910.454	16337
910.57	16306
910.685	16135
910.8	16504
910.915	16386
911.03	16234
911.145	16173
911.259	16063
911.374	16067
911.489	15994
911.604	15953
911.718	15827
911.833	15800
911.947	15762
912.062	15519
912.176	15724
912.291	15797
912.405	15812
912.519	15968
912.633	16025
912.748	15793
912.862	15709
912.976	15580
913.09	15439
913.204	15504
913.318	15580
913.431	15778
913.545	15713
913.659	15690
913.772	15530
913.886	15416
914	15447
914.113	15523
914.226	15450
914.34	15496
914.453	15378
914.566	15447
914.68	15298
914.793	15222
914.906	15161
915.019	15070
915.132	14910
915.245	15047
915.358	15142
915.47	15104
915.583	15017
915.696	15089
915.809	15226
915.921	15085
916.034	15039
916.146	14929
916.259	15013
916.371	15013
916.483	15058
916.595	14826
916.708	14960
916.82	14830
916.932	14830
917.044	14815
917.156	14716
917.268	14731
917.38	14689
917.491	14625
917.603	14636
917.715	14754
917.826	14826
917.938	14606
918.049	14499
918.161	14621
918.272	14655
918.384	14762
918.495	14693
918.606	14457
918.717	14313
918.828	14427
918.939	14419
919.05	14389
919.161	14393
919.272	14256
919.383	14366
919.494	14507
919.604	14594
919.715	14492
919.826	14328
919.936	14366
920.047	14465
920.157	14457
920.267	14610
920.378	14377
920.488	14362
920.598	14640
920.708	14674
920.818	14583
920.928	14476
921.038	14769
921.148	14697
921.258	14419
921.368	14324
921.477	14111
921.587	14161
921.697	14073
921.806	14164
921.916	13978
922.025	13837
922.134	13776
922.244	13700
922.353	13830
922.462	13727
922.571	13594
922.68	13441
922.789	13453
922.898	13388
923.007	13419
923.116	13537
923.224	13521
923.333	13422
923.442	13373
923.55	13225
923.659	13198
923.767	13327
923.876	13179
923.984	13324
924.092	13198
924.201	13202
924.309	13217
924.417	13187
924.525	13152
924.633	13118
924.741	13940
924.849	12837
924.956	13061
925.064	12916
925.172	12848
925.279	12939
925.387	12852
925.494	12935
925.602	13023
925.709	12837
925.816	12802
925.924	12837
926.031	12909
926.138	12768
926.245	12890
926.352	12726
926.459	12798
926.566	12985
926.673	12642
926.779	12570
926.886	12597
926.993	12566
927.099	12433
927.206	12475
927.312	12361
927.419	12452
927.525	12445
927.631	12399
927.737	12346
927.843	12266
927.95	12228
928.056	12224
928.162	12270
928.267	12296
928.373	12928
928.479	12338
928.585	12045
928.69	12133
928.796	12224
928.901	12095
929.007	12038
929.112	12129
929.218	12106
929.323	11996
929.428	12019
929.533	12140
929.638	11901
929.743	12026
929.848	11904
929.953	11939
930.058	11859
930.163	11714
930.267	11699
930.372	11813
930.477	11611
930.581	11866
930.685	11767
930.79	11551
930.894	11520
930.998	11577
931.103	11604
931.207	11360
931.311	11261
931.415	11208
931.519	10866
931.623	10957
