Data from test_V78500241_1687.txt Node
Date: Fri Mar 25 15:21:36 CST 2022
User: usil
Spectrometer: V785-0024
Trigger mode: 0
Integration Time (sec): 4.000000E-1
Scans to average: 1
Nonlinearity correction enabled: false
Boxcar width: 0
Storing dark spectrum: false
XAxis mode: Wavelengths
Number of Pixels in Spectrum: 1024
>>>>>Begin Spectral Data<<<<<
801.071	28017
801.214	28082
801.356	27789
801.499	27599
801.641	27671
801.783	27717
801.926	27690
802.068	27549
802.211	27454
802.353	27481
802.496	27192
802.638	27256
802.78	27214
802.923	27173
803.065	27062
803.208	27176
803.35	27241
803.492	27412
803.635	27523
803.777	27408
803.919	27378
804.061	27759
804.204	27405
804.346	27412
804.488	27443
804.63	27450
804.773	27317
804.915	27393
805.057	27564
805.199	27382
805.341	27450
805.483	27416
805.626	27595
805.768	27332
805.91	27450
806.052	27583
806.194	27443
806.336	27793
806.478	27587
806.62	27675
806.762	27599
806.904	27641
807.046	28082
807.188	27892
807.33	27972
807.472	28048
807.614	27854
807.756	27827
807.898	28029
808.04	27888
808.182	27732
808.324	27865
808.465	27960
808.607	28166
808.749	28276
808.891	28219
809.033	28360
809.174	28268
809.316	28371
809.458	28287
809.6	28166
809.741	28310
809.883	28459
810.025	28401
810.166	28493
810.308	28462
810.45	28497
810.591	28588
810.733	28238
810.875	28124
811.016	28097
811.158	28013
811.299	28276
811.441	28318
811.582	28265
811.724	28333
811.865	28207
812.007	28177
812.148	28021
812.29	28230
812.431	28360
812.573	28618
812.714	28523
812.855	28710
812.997	28778
813.138	29079
813.279	28736
813.421	28721
813.562	28679
813.703	28542
813.845	28409
813.986	28219
814.127	28051
814.268	27983
814.41	27964
814.551	27869
814.692	28105
814.833	27797
814.974	27918
815.115	27953
815.256	27793
815.397	27736
815.539	27838
815.68	27736
815.821	27705
815.962	27747
816.103	27846
816.244	27622
816.385	27500
816.526	27332
816.666	27313
816.807	27283
816.948	27283
817.089	27195
817.23	27329
817.371	27180
817.512	27150
817.653	27230
817.793	27058
817.934	27077
818.075	27230
818.216	27100
818.356	27123
818.497	27241
818.638	27028
818.778	26891
818.919	26925
819.06	26990
819.2	27058
819.341	27199
819.481	27294
819.622	27241
819.762	27488
819.903	27492
820.043	27401
820.184	27443
820.324	27408
820.465	27469
820.605	27420
820.746	27412
820.886	27142
821.026	27252
821.167	27249
821.307	27298
821.447	27245
821.588	27184
821.728	27093
821.868	26838
822.008	26640
822.149	26678
822.289	26785
822.429	26469
822.569	26408
822.709	26438
822.849	26183
822.99	26248
823.13	26168
823.27	26100
823.41	26024
823.55	25864
823.69	26100
823.83	25898
823.97	25932
824.11	25913
824.25	25662
824.389	25776
824.529	25890
824.669	25902
824.809	25986
824.949	25951
825.089	25936
825.228	25868
825.368	25761
825.508	25613
825.648	25628
825.787	25658
825.927	25750
826.067	25651
826.206	25666
826.346	25795
826.485	25700
826.625	25655
826.765	25807
826.904	25879
827.044	25369
827.183	25464
827.323	25373
827.462	25468
827.601	25434
827.741	25499
827.88	25445
828.02	25362
828.159	25434
828.298	25419
828.437	25487
828.577	25274
828.716	25578
828.855	25301
828.994	25027
829.134	25015
829.273	25095
829.412	25088
829.551	25107
829.69	25129
829.829	25027
829.968	25164
830.107	25285
830.246	25099
830.385	24981
830.524	25088
830.663	24992
830.802	25027
830.941	24760
831.08	24772
831.219	24779
831.357	24776
831.496	24897
831.635	24719
831.774	24783
831.913	24620
832.051	24692
832.19	24448
832.329	24585
832.467	24479
832.606	24323
832.744	24384
832.883	24441
833.022	24342
833.16	24426
833.299	24494
833.437	24521
833.576	24513
833.714	24448
833.852	24551
833.991	24437
834.129	24544
834.267	24505
834.406	24616
834.544	24540
834.682	24521
834.821	24384
834.959	24642
835.097	24376
835.235	24604
835.373	24429
835.511	24479
835.65	24369
835.788	24395
835.926	24163
836.064	24057
836.202	24194
836.34	24296
836.478	24456
836.615	24311
836.753	24334
836.891	24391
837.029	24422
837.167	24384
837.305	24254
837.443	24114
837.58	24136
837.718	24201
837.856	24121
837.993	24155
838.131	24167
838.269	24091
838.406	24091
838.544	24026
838.681	23828
838.819	23752
838.956	23638
839.094	23512
839.231	23661
839.369	23821
839.506	24076
839.643	23988
839.781	23657
839.918	23531
840.055	23577
840.193	23554
840.33	23589
840.467	23509
840.604	23627
840.742	23657
840.879	23364
841.016	23356
841.153	23258
841.29	23455
841.427	23619
841.564	23668
841.701	23570
841.838	23421
841.975	23376
842.112	23528
842.249	23292
842.385	23220
842.522	23474
842.659	23410
842.796	23368
842.933	23204
843.069	23311
843.206	23273
843.343	23303
843.479	23345
843.616	23330
843.752	23117
843.889	23140
844.025	23296
844.162	23014
844.298	23170
844.435	23117
844.571	22949
844.708	23105
844.844	23311
844.98	23220
845.117	23109
845.253	23041
845.389	23006
845.525	22987
845.661	22911
845.798	22729
845.934	22835
846.07	22736
846.206	22713
846.342	22915
846.478	22786
846.614	22504
846.75	22512
846.886	22573
847.022	22622
847.158	22538
847.294	22462
847.429	22546
847.565	22542
847.701	22706
847.837	22173
847.972	22230
848.108	22295
848.244	22287
848.379	22097
848.515	22067
848.65	22200
848.786	22017
848.921	22112
849.057	22188
849.192	22162
849.328	22105
849.463	22128
849.598	22029
849.734	21968
849.869	21987
850.004	21884
850.14	21865
850.275	21895
850.41	21915
850.545	21823
850.68	21804
850.815	21945
850.95	21884
851.085	22017
851.22	21960
851.355	21892
851.49	21846
851.625	21884
851.76	21812
851.895	21857
852.03	21766
852.165	21922
852.299	21892
852.434	21869
852.569	21964
852.703	21991
852.838	21956
852.973	22036
853.107	22010
853.242	21827
853.376	21797
853.511	21690
853.645	21675
853.78	21713
853.914	21778
854.048	21633
854.183	21576
854.317	21827
854.451	21911
854.585	21656
854.72	21701
854.854	21778
854.988	21485
855.122	21739
855.256	21557
855.39	21701
855.524	21679
855.658	21724
855.792	21694
855.926	21618
856.06	21705
856.194	21850
856.327	21713
856.461	21652
856.595	21648
856.729	21770
856.862	21797
856.996	21770
857.13	21709
857.263	21713
857.397	21888
857.53	21713
857.664	21789
857.797	21724
857.931	21816
858.064	21747
858.197	21781
858.331	21698
858.464	21690
858.597	21504
858.731	21633
858.864	21583
858.997	21667
859.13	21591
859.263	21728
859.396	21850
859.529	21629
859.662	21720
859.795	21675
859.928	21759
860.061	21823
860.194	21861
860.327	21732
860.46	21705
860.592	21869
860.725	21842
860.858	21759
860.99	21747
861.123	21576
861.256	21599
861.388	21717
861.521	22462
861.653	21538
861.786	21424
861.918	21511
862.05	21667
862.183	21599
862.315	21717
862.447	21576
862.58	21614
862.712	21401
862.844	21408
862.976	21363
863.108	21519
863.24	21755
863.372	21310
863.504	21462
863.636	21481
863.768	21351
863.9	21488
864.032	21332
864.164	21435
864.296	21378
864.428	21504
864.559	21370
864.691	21450
864.823	21420
864.954	21317
865.086	21195
865.217	21298
865.349	21066
865.48	21317
865.612	21367
865.743	21496
865.875	21344
866.006	21306
866.137	21317
866.269	21142
866.4	21287
866.531	21252
866.662	21207
866.793	21321
866.924	21237
867.055	21252
867.186	21294
867.317	21207
867.448	20986
867.579	21351
867.71	21104
867.841	21119
867.972	21173
868.103	21123
868.233	21100
868.364	21230
868.495	21325
868.625	21500
868.756	21553
868.886	21454
869.017	21412
869.147	21488
869.278	21583
869.408	21538
869.539	21561
869.669	21519
869.799	21534
869.929	21488
870.06	21523
870.19	21755
870.32	21720
870.45	21823
870.58	21713
870.71	21945
870.84	21949
870.97	21865
871.1	21892
871.23	21884
871.36	22059
871.489	21892
871.619	22017
871.749	22112
871.879	22188
872.008	22131
872.138	22109
872.267	21960
872.397	22029
872.526	21911
872.656	21755
872.785	21884
872.915	22124
873.044	22188
873.173	22021
873.303	22196
873.432	22086
873.561	22166
873.69	22116
873.819	21998
873.948	22093
874.077	22124
874.206	22017
874.335	22135
874.464	22181
874.593	22234
874.722	22295
874.851	22360
874.979	22367
875.108	22386
875.237	22215
875.365	22192
875.494	22341
875.623	22344
875.751	22188
875.88	22322
876.008	22386
876.136	22569
876.265	22645
876.393	22778
876.521	22854
876.65	22793
876.778	22748
876.906	22599
877.034	22500
877.162	22660
877.29	22630
877.418	22573
877.546	22622
877.674	22569
877.802	22626
877.93	22596
878.058	22675
878.185	22466
878.313	22599
878.441	22584
878.568	22500
878.696	22462
878.824	22713
878.951	22748
879.079	22786
879.206	22980
879.333	22755
879.461	22630
879.588	22752
879.715	22854
879.842	22930
879.97	22710
880.097	22527
880.224	22375
880.351	22421
880.478	22493
880.605	22436
880.732	22440
880.859	22588
880.986	22443
881.112	22424
881.239	22173
881.366	22196
881.493	22109
881.619	22013
881.746	22040
881.872	22044
881.999	22147
882.125	21983
882.252	22063
882.378	22048
882.505	22188
882.631	21892
882.757	21759
882.883	21854
883.01	21895
883.136	21603
883.262	21641
883.388	21614
883.514	21797
883.64	21698
883.766	21797
883.892	21462
884.018	21447
884.143	21679
884.269	21717
884.395	21458
884.52	21275
884.646	21310
884.772	21363
884.897	21336
885.023	21294
885.148	21374
885.274	21405
885.399	21397
885.524	21382
885.65	21591
885.775	21447
885.9	21336
886.025	21393
886.15	21545
886.275	21188
886.4	21241
886.525	21294
886.65	21222
886.775	21154
886.9	21363
887.025	21679
887.149	21256
887.274	21237
887.399	21192
887.523	21074
887.648	21142
887.773	21104
887.897	21180
888.021	21169
888.146	21146
888.27	21051
888.395	21325
888.519	21058
888.643	21249
888.767	21291
888.891	20998
889.015	20937
889.139	20979
889.263	20979
889.387	21020
889.511	21112
889.635	21039
889.759	20937
889.883	20925
890.006	21013
890.13	20990
890.254	20815
890.377	20872
890.501	20701
890.624	20613
890.748	20792
890.871	20518
890.995	20518
891.118	20469
891.241	20404
891.364	20571
891.488	20632
891.611	20404
891.734	20480
891.857	20533
891.98	20503
892.103	20503
892.226	20427
892.349	20415
892.471	20259
892.594	20461
892.717	20408
892.839	20347
892.962	20438
893.085	20511
893.207	20313
893.33	20290
893.452	20317
893.575	20404
893.697	20412
893.819	20469
893.941	20590
894.064	20492
894.186	20263
894.308	20256
894.43	20423
894.552	20537
894.674	20370
894.796	20275
894.918	20362
895.04	20423
895.161	20461
895.283	20419
895.405	20301
895.526	20328
895.648	20408
895.769	20381
895.891	20294
896.012	20415
896.134	20400
896.255	20412
896.376	20324
896.498	20442
896.619	20362
896.74	20343
896.861	20404
896.982	20765
897.103	20861
897.224	20667
897.345	20583
897.466	20461
897.587	20495
897.708	20804
897.828	20663
897.949	20541
898.07	20454
898.19	20514
898.311	20724
898.431	20518
898.552	20583
898.672	20636
898.792	20655
898.913	20537
899.033	20431
899.153	20328
899.273	20240
899.393	20298
899.513	20339
899.633	20366
899.753	20423
899.873	20210
899.993	20438
900.113	20271
900.232	20278
900.352	20199
900.472	20168
900.591	20069
900.711	20172
900.83	20069
900.95	20149
901.069	20183
901.189	19993
901.308	19811
901.427	19734
901.546	19674
901.665	19700
901.784	19639
901.904	19681
902.023	19384
902.141	19236
902.26	19122
902.379	19327
902.498	19206
902.617	19126
902.735	19145
902.854	19175
902.973	19065
903.091	18859
903.21	18856
903.328	18833
903.446	18745
903.565	18768
903.683	18681
903.801	18627
903.919	18582
904.038	18585
904.156	18452
904.274	18498
904.392	18342
904.51	18422
904.627	18429
904.745	18525
904.863	18399
904.981	18239
905.098	18095
905.216	18041
905.334	18125
905.451	18072
905.569	18030
905.686	18114
905.803	18045
905.921	17855
906.038	17939
906.155	17901
906.272	17817
906.389	17855
906.506	17558
906.623	17676
906.74	17646
906.857	17421
906.974	17512
907.091	17710
907.208	17695
907.324	17623
907.441	17535
907.557	17539
907.674	17356
907.79	17337
907.907	17414
908.023	17402
908.139	17299
908.256	17265
908.372	17284
908.488	17227
908.604	17121
908.72	17025
908.836	17071
908.952	17086
909.068	17140
909.184	17204
909.3	17045
909.415	17094
909.531	17071
909.647	16774
909.762	16790
909.878	16740
909.993	16862
910.108	16793
910.224	16687
910.339	16717
910.454	16649
910.57	16634
910.685	16493
910.8	16831
910.915	16729
911.03	16538
911.145	16318
911.259	16398
911.374	16386
911.489	16272
911.604	16169
911.718	16074
911.833	16226
911.947	15895
912.062	15903
912.176	16044
912.291	16059
912.405	16055
912.519	16299
912.633	16257
912.748	16097
912.862	16017
912.976	15873
913.09	15682
913.204	15819
913.318	16010
913.431	15953
913.545	15991
913.659	15994
913.772	15774
913.886	15812
914	15679
914.113	15789
914.226	15778
914.34	15861
914.453	15679
914.566	15759
914.68	15686
914.793	15595
914.906	15252
915.019	15294
915.132	15272
915.245	15291
915.358	15420
915.47	15408
915.583	15359
915.696	15374
915.809	15351
915.921	15340
916.034	15245
916.146	15230
916.259	15154
916.371	15241
916.483	15218
916.595	15116
916.708	15233
916.82	15001
916.932	15108
917.044	15058
917.156	15066
917.268	14910
917.38	14937
917.491	14914
917.603	15013
917.715	15062
917.826	15020
917.938	14918
918.049	14804
918.161	14891
918.272	15112
918.384	15058
918.495	14842
918.606	14670
918.717	14613
918.828	14686
918.939	14758
919.05	14518
919.161	14598
919.272	14465
919.383	14651
919.494	14815
919.604	14925
919.715	14659
919.826	14610
919.936	14705
920.047	14758
920.157	14777
920.267	14834
920.378	14648
920.488	14651
920.598	14788
920.708	14990
920.818	14819
920.928	14880
921.038	14921
921.148	14838
921.258	14663
921.368	14549
921.477	14434
921.587	14423
921.697	14271
921.806	14396
921.916	14343
922.025	14103
922.134	14039
922.244	13909
922.353	13993
922.462	13932
922.571	13917
922.68	13734
922.789	13609
922.898	13696
923.007	13685
923.116	13658
923.224	13632
923.333	13624
923.442	13582
923.55	13506
923.659	13533
923.767	13552
923.876	13441
923.984	13495
924.092	13327
924.201	13430
924.309	13476
924.417	13457
924.525	13381
924.633	13358
924.741	14111
924.849	13118
924.956	13335
925.064	13080
925.172	13103
925.279	13160
925.387	13183
925.494	13091
925.602	13247
925.709	13145
925.816	13015
925.924	13023
926.031	13038
926.138	13107
926.245	13107
926.352	12916
926.459	13072
926.566	13145
926.673	12985
926.779	12810
926.886	12783
926.993	12703
927.099	12608
927.206	12696
927.312	12635
927.419	12681
927.525	12635
927.631	12684
927.737	12563
927.843	12372
927.95	12441
928.056	12388
928.162	12563
928.267	12540
928.373	12943
928.479	12460
928.585	12296
928.69	12399
928.796	12471
928.901	12262
929.007	12201
929.112	12369
929.218	12262
929.323	12266
929.428	12186
929.533	12258
929.638	12098
929.743	12197
929.848	12076
929.953	12064
930.058	12049
930.163	11840
930.267	11912
930.372	12030
930.477	11821
930.581	12034
930.685	11969
930.79	11741
930.894	11729
930.998	11783
931.103	11901
931.207	11448
931.311	11440
931.415	11292
931.519	11162
931.623	11102
