Data from test_V78500241_2512.txt Node
Date: Fri Mar 25 15:27:21 CST 2022
User: usil
Spectrometer: V785-0024
Trigger mode: 0
Integration Time (sec): 4.000000E-1
Scans to average: 1
Nonlinearity correction enabled: false
Boxcar width: 0
Storing dark spectrum: false
XAxis mode: Wavelengths
Number of Pixels in Spectrum: 1024
>>>>>Begin Spectral Data<<<<<
801.071	27100
801.214	26990
801.356	26956
801.499	26716
801.641	26644
801.783	26686
801.926	26693
802.068	26507
802.211	26495
802.353	26495
802.496	26301
802.638	26282
802.78	26400
802.923	26161
803.065	26130
803.208	26058
803.35	26191
803.492	26457
803.635	26552
803.777	26381
803.919	26431
804.061	26838
804.204	26492
804.346	26396
804.488	26362
804.63	26450
804.773	26290
804.915	26305
805.057	26389
805.199	26343
805.341	26465
805.483	26427
805.626	26526
805.768	26453
805.91	26625
806.052	26575
806.194	26526
806.336	26716
806.478	26469
806.62	26568
806.762	26640
806.904	26762
807.046	27047
807.188	27104
807.33	26933
807.472	26948
807.614	26876
807.756	26815
807.898	26838
808.04	26667
808.182	26815
808.324	26769
808.465	26834
808.607	27005
808.749	27131
808.891	27154
809.033	27321
809.174	27161
809.316	27138
809.458	27047
809.6	27131
809.741	27207
809.883	27211
810.025	27355
810.166	27420
810.308	27485
810.45	27272
810.591	27298
810.733	27135
810.875	27047
811.016	27036
811.158	26998
811.299	27378
811.441	27389
811.582	27302
811.724	27161
811.865	26952
812.007	27154
812.148	27077
812.29	27199
812.431	27252
812.573	27412
812.714	27397
812.855	27488
812.997	27629
813.138	27739
813.279	27774
813.421	27625
813.562	27439
813.703	27389
813.845	27237
813.986	26906
814.127	26815
814.268	26629
814.41	26716
814.551	26777
814.692	26708
814.833	26644
814.974	26693
815.115	26712
815.256	26617
815.397	26640
815.539	26678
815.68	26499
815.821	26431
815.962	26617
816.103	26381
816.244	26351
816.385	26134
816.526	26233
816.666	26180
816.807	25928
816.948	26092
817.089	26092
817.23	25982
817.371	26012
817.512	25993
817.653	25951
817.793	25902
817.934	25936
818.075	26039
818.216	26134
818.356	25921
818.497	25776
818.638	25795
818.778	25677
818.919	25742
819.06	25868
819.2	26027
819.341	26005
819.481	25875
819.622	26069
819.762	26301
819.903	26119
820.043	26183
820.184	26081
820.324	26077
820.465	26332
820.605	26035
820.746	26111
820.886	25887
821.026	26016
821.167	26092
821.307	26168
821.447	25944
821.588	25811
821.728	25772
821.868	25704
822.008	25510
822.149	25422
822.289	25540
822.429	25244
822.569	25118
822.709	25183
822.849	25000
822.99	24947
823.13	24856
823.27	25057
823.41	24848
823.55	24692
823.69	24852
823.83	24730
823.97	24833
824.11	24593
824.25	24544
824.389	24555
824.529	24764
824.669	24661
824.809	24791
824.949	24635
825.089	24882
825.228	24665
825.368	24608
825.508	24513
825.648	24517
825.787	24563
825.927	24566
826.067	24467
826.206	24521
826.346	24570
826.485	24555
826.625	24578
826.765	24612
826.904	24555
827.044	24357
827.183	24285
827.323	24384
827.462	24178
827.601	24144
827.741	24136
827.88	24224
828.02	24049
828.159	24171
828.298	24239
828.437	24190
828.577	24216
828.716	24220
828.855	24155
828.994	23980
829.134	23927
829.273	24015
829.412	23863
829.551	23927
829.69	23904
829.829	24003
829.968	24091
830.107	23920
830.246	23961
830.385	23874
830.524	23870
830.663	23813
830.802	23703
830.941	23642
831.08	23596
831.219	23566
831.357	23581
831.496	23661
831.635	23531
831.774	23547
831.913	23429
832.051	23349
832.19	23341
832.329	23326
832.467	23334
832.606	23337
832.744	23284
832.883	23151
833.022	23193
833.16	23212
833.299	23181
833.437	23178
833.576	23299
833.714	23299
833.852	23280
833.991	23292
834.129	23368
834.267	23280
834.406	23501
834.544	23341
834.682	23330
834.821	23360
834.959	23516
835.097	23322
835.235	23383
835.373	23345
835.511	23318
835.65	23212
835.788	23189
835.926	23083
836.064	22911
836.202	22972
836.34	23105
836.478	23189
836.615	23147
836.753	23170
836.891	23216
837.029	23200
837.167	23029
837.305	23033
837.443	23037
837.58	22881
837.718	23140
837.856	23025
837.993	23037
838.131	23014
838.269	22881
838.406	22900
838.544	22896
838.681	22710
838.819	22710
838.956	22481
839.094	22508
839.231	22554
839.369	22497
839.506	22957
839.643	22713
839.781	22512
839.918	22394
840.055	22550
840.193	22500
840.33	22478
840.467	22500
840.604	22493
840.742	22790
840.879	22272
841.016	22291
841.153	22409
841.29	22527
841.427	22299
841.564	22371
841.701	22360
841.838	22291
841.975	22280
842.112	22402
842.249	22276
842.385	22181
842.522	22557
842.659	22299
842.796	22147
842.933	22139
843.069	22086
843.206	22166
843.343	22219
843.479	22162
843.616	22109
843.752	21960
843.889	22002
844.025	22105
844.162	21842
844.298	22044
844.435	22032
844.571	21842
844.708	21945
844.844	22139
844.98	22059
845.117	22017
845.253	21960
845.389	21804
845.525	21915
845.661	21816
845.798	21667
845.934	21660
846.07	21751
846.206	21869
846.342	21736
846.478	21717
846.614	21511
846.75	21462
846.886	21317
847.022	21408
847.158	21488
847.294	21473
847.429	21580
847.565	21424
847.701	21701
847.837	21313
847.972	21211
848.108	21260
848.244	21176
848.379	21047
848.515	21020
848.65	20956
848.786	21039
848.921	20967
849.057	21089
849.192	21116
849.328	21146
849.463	20994
849.598	20876
849.734	20994
849.869	20921
850.004	20758
850.14	20937
850.275	20636
850.41	20724
850.545	20640
850.68	20750
850.815	20853
850.95	20606
851.085	20960
851.22	20914
851.355	20663
851.49	20739
851.625	20720
851.76	20727
851.895	20689
852.03	20777
852.165	20864
852.299	20781
852.434	20826
852.569	20777
852.703	20739
852.838	20883
852.973	20929
853.107	20967
853.242	20621
853.376	20667
853.511	20431
853.645	20556
853.78	20724
853.914	20511
854.048	20583
854.183	20549
854.317	20594
854.451	20864
854.585	20590
854.72	20549
854.854	20716
854.988	20571
855.122	20571
855.256	20473
855.39	20693
855.524	20701
855.658	20796
855.792	20689
855.926	20598
856.06	20689
856.194	20804
856.327	20606
856.461	20613
856.595	20667
856.729	20575
856.862	20705
856.996	20693
857.13	20674
857.263	20632
857.397	20613
857.53	20579
857.664	20689
857.797	20663
857.931	20693
858.064	20522
858.197	20670
858.331	20583
858.464	20632
858.597	20415
858.731	20499
858.864	20613
858.997	20613
859.13	20670
859.263	20602
859.396	20693
859.529	20602
859.662	20659
859.795	20678
859.928	20674
860.061	20800
860.194	20819
860.327	20590
860.46	20579
860.592	20724
860.725	20724
860.858	20815
860.99	20579
861.123	20511
861.256	20476
861.388	20598
861.521	21165
861.653	20518
861.786	20332
861.918	20552
862.05	20541
862.183	20431
862.315	20587
862.447	20629
862.58	20476
862.712	20339
862.844	20286
862.976	20465
863.108	20396
863.24	20735
863.372	20301
863.504	20305
863.636	20263
863.768	20377
863.9	20324
864.032	20252
864.164	20298
864.296	20408
864.428	20389
864.559	20415
864.691	20286
864.823	20309
864.954	20408
865.086	20457
865.217	20214
865.349	20298
865.48	20191
865.612	20286
865.743	20385
865.875	20248
866.006	20187
866.137	20199
866.269	20240
866.4	20202
866.531	20142
866.662	20259
866.793	20218
866.924	20267
867.055	20244
867.186	20240
867.317	20221
867.448	20138
867.579	20164
867.71	20096
867.841	20088
867.972	20240
868.103	20149
868.233	20111
868.364	20180
868.495	20381
868.625	20423
868.756	20511
868.886	20286
869.017	20339
869.147	20583
869.278	20609
869.408	20362
869.539	20427
869.669	20495
869.799	20533
869.929	20556
870.06	20442
870.19	20724
870.32	20773
870.45	20762
870.58	20857
870.71	20918
870.84	20937
870.97	20731
871.1	20754
871.23	20918
871.36	21005
871.489	20891
871.619	20944
871.749	21039
871.879	20952
872.008	21203
872.138	20960
872.267	20986
872.397	21009
872.526	20834
872.656	20838
872.785	20880
872.915	21085
873.044	21074
873.173	20990
873.303	20990
873.432	21104
873.561	21024
873.69	20849
873.819	21062
873.948	21058
874.077	20971
874.206	21070
874.335	21013
874.464	21112
874.593	21283
874.722	21211
874.851	21211
874.979	21291
875.108	21378
875.237	21336
875.365	21127
875.494	21195
875.623	21260
875.751	21294
875.88	21351
876.008	21534
876.136	21492
876.265	21637
876.393	21728
876.521	21785
876.65	21671
876.778	21857
876.906	21603
877.034	21660
877.162	21663
877.29	21652
877.418	21679
877.546	21557
877.674	21618
877.802	21679
877.93	21663
878.058	21606
878.185	21549
878.313	21545
878.441	21724
878.568	21424
878.696	21435
878.824	21701
878.951	21606
879.079	21842
879.206	21903
879.333	21895
879.461	21698
879.588	21633
879.715	21922
879.842	21915
879.97	21682
880.097	21606
880.224	21466
880.351	21488
880.478	21496
880.605	21317
880.732	21523
880.859	21770
880.986	21500
881.112	21473
881.239	21325
881.366	21093
881.493	21214
881.619	21100
881.746	21081
881.872	21066
881.999	21100
882.125	20967
882.252	21043
882.378	21017
882.505	21230
882.631	20895
882.757	20788
882.883	20819
883.01	20727
883.136	20667
883.262	20629
883.388	20609
883.514	20754
883.64	20857
883.766	20689
883.892	20625
884.018	20564
884.143	20807
884.269	20754
884.395	20526
884.52	20412
884.646	20499
884.772	20381
884.897	20370
885.023	20484
885.148	20552
885.274	20644
885.399	20438
885.524	20396
885.65	20507
885.775	20461
885.9	20259
886.025	20442
886.15	20492
886.275	20381
886.4	20294
886.525	20294
886.65	20267
886.775	20282
886.9	20598
887.025	20674
887.149	20351
887.274	20240
887.399	20183
887.523	20081
887.648	20119
887.773	20107
887.897	20248
888.021	20301
888.146	20084
888.27	20202
888.395	20339
888.519	20145
888.643	20214
888.767	20317
888.891	20012
889.015	19986
889.139	20043
889.263	19955
889.387	20046
889.511	20161
889.635	20157
889.759	20001
889.883	19925
890.006	20001
890.13	20096
890.254	19951
890.377	19963
890.501	19731
890.624	19704
890.748	19803
890.871	19719
890.995	19559
891.118	19586
891.241	19609
891.364	19594
891.488	19738
891.611	19616
891.734	19518
891.857	19590
891.98	19616
892.103	19601
892.226	19537
892.349	19605
892.471	19415
892.594	19460
892.717	19575
892.839	19403
892.962	19487
893.085	19518
893.207	19502
893.33	19392
893.452	19400
893.575	19563
893.697	19483
893.819	19658
893.941	19624
894.064	19685
894.186	19358
894.308	19422
894.43	19472
894.552	19616
894.674	19575
894.796	19377
894.918	19537
895.04	19502
895.161	19567
895.283	19407
895.405	19430
895.526	19525
895.648	19514
895.769	19430
895.891	19499
896.012	19639
896.134	19537
896.255	19472
896.376	19518
896.498	19521
896.619	19506
896.74	19495
896.861	19677
896.982	19761
897.103	20039
897.224	19681
897.345	19719
897.466	19616
897.587	19761
897.708	19871
897.828	19776
897.949	19586
898.07	19537
898.19	19666
898.311	19906
898.431	19704
898.552	19643
898.672	19765
898.792	19769
898.913	19666
899.033	19628
899.153	19567
899.273	19453
899.393	19499
899.513	19483
899.633	19472
899.753	19502
899.873	19297
899.993	19483
900.113	19506
900.232	19487
900.352	19422
900.472	19324
900.591	19209
900.711	19274
900.83	19160
900.95	19411
901.069	19339
901.189	19137
901.308	18882
901.427	18741
901.546	18913
901.665	18901
901.784	18856
901.904	18677
902.023	18673
902.141	18483
902.26	18486
902.379	18490
902.498	18391
902.617	18350
902.735	18391
902.854	18311
902.973	18346
903.091	17984
903.21	18140
903.328	18106
903.446	17931
903.565	17805
903.683	17866
903.801	17577
903.919	17764
904.038	17847
904.156	17668
904.274	17630
904.392	17543
904.51	17661
904.627	17570
904.745	17707
904.863	17745
904.981	17490
905.098	17372
905.216	17246
905.334	17417
905.451	17383
905.569	17269
905.686	17421
905.803	17204
905.921	17143
906.038	17159
906.155	17170
906.272	16976
906.389	17109
906.506	16862
906.623	16942
906.74	16782
906.857	16801
906.974	16771
907.091	16866
907.208	17022
907.324	16858
907.441	16824
907.557	16516
907.674	16554
907.79	16561
907.907	16535
908.023	16577
908.139	16603
908.256	16462
908.372	16500
908.488	16451
908.604	16341
908.72	16238
908.836	16223
908.952	16249
909.068	16265
909.184	16432
909.3	16344
909.415	16295
909.531	16219
909.647	16002
909.762	16078
909.878	16021
909.993	16029
910.108	16051
910.224	16025
910.339	15968
910.454	15838
910.57	15720
910.685	15800
910.8	15998
910.915	15918
911.03	15804
911.145	15694
911.259	15591
911.374	15599
911.489	15496
911.604	15397
911.718	15397
911.833	15325
911.947	15306
912.062	15173
912.176	15397
912.291	15462
912.405	15530
912.519	15553
912.633	15637
912.748	15355
912.862	15374
912.976	15264
913.09	15097
913.204	15020
913.318	15211
913.431	15344
913.545	15374
913.659	15291
913.772	15138
913.886	15108
914	14925
914.113	15036
914.226	15154
914.34	15032
914.453	14990
914.566	15032
914.68	14876
914.793	14876
914.906	14758
915.019	14514
915.132	14590
915.245	14522
915.358	14640
915.47	14636
915.583	14651
915.696	14644
915.809	14777
915.921	14750
916.034	14545
916.146	14511
916.259	14469
916.371	14629
916.483	14575
916.595	14408
916.708	14587
916.82	14526
916.932	14427
917.044	14408
917.156	14358
917.268	14374
917.38	14343
917.491	14370
917.603	14320
917.715	14336
917.826	14336
917.938	14210
918.049	14130
918.161	14214
918.272	14499
918.384	14377
918.495	14191
918.606	14073
918.717	14027
918.828	14065
918.939	14077
919.05	13959
919.161	14012
919.272	13830
919.383	13917
919.494	13970
919.604	14199
919.715	14073
919.826	13982
919.936	13883
920.047	14046
920.157	14081
920.267	14199
920.378	14046
920.488	13917
920.598	14062
920.708	14343
920.818	14119
920.928	14081
921.038	14218
921.148	14259
921.258	13963
921.368	13833
921.477	13841
921.587	13772
921.697	13613
921.806	13849
921.916	13647
922.025	13441
922.134	13453
922.244	13441
922.353	13533
922.462	13335
922.571	13297
922.68	13129
922.789	13084
922.898	13076
923.007	13050
923.116	13088
923.224	12935
923.333	13084
923.442	12913
923.55	12970
923.659	12966
923.767	12958
923.876	12878
923.984	12894
924.092	12779
924.201	12863
924.309	12798
924.417	12779
924.525	12749
924.633	12768
924.741	13639
924.849	12589
924.956	12700
925.064	12582
925.172	12399
925.279	12528
925.387	12486
925.494	12532
925.602	12593
925.709	12460
925.816	12380
925.924	12502
926.031	12506
926.138	12525
926.245	12475
926.352	12380
926.459	12486
926.566	12506
926.673	12350
926.779	12304
926.886	12327
926.993	12159
927.099	12045
927.206	12087
927.312	11965
927.419	12262
927.525	12057
927.631	12155
927.737	11893
927.843	11950
927.95	11863
928.056	11855
928.162	11984
928.267	11961
928.373	12528
928.479	12026
928.585	11756
928.69	11874
928.796	11870
928.901	11722
929.007	11600
929.112	11771
929.218	11775
929.323	11676
929.428	11760
929.533	11802
929.638	11676
929.743	11627
929.848	11608
929.953	11596
930.058	11524
930.163	11379
930.267	11379
930.372	11505
930.477	11261
930.581	11589
930.685	11433
930.79	11273
930.894	11311
930.998	11254
931.103	11387
931.207	10980
931.311	10938
931.415	10919
931.519	10645
931.623	10641
