Data from test_V78500241_1106.txt Node
Date: Fri Mar 25 15:17:33 CST 2022
User: usil
Spectrometer: V785-0024
Trigger mode: 0
Integration Time (sec): 4.000000E-1
Scans to average: 1
Nonlinearity correction enabled: false
Boxcar width: 0
Storing dark spectrum: false
XAxis mode: Wavelengths
Number of Pixels in Spectrum: 1024
>>>>>Begin Spectral Data<<<<<
801.071	28207
801.214	28173
801.356	27838
801.499	27880
801.641	27618
801.783	27884
801.926	27831
802.068	27914
802.211	27671
802.353	27656
802.496	27485
802.638	27420
802.78	27412
802.923	27382
803.065	27393
803.208	27313
803.35	27466
803.492	27614
803.635	27629
803.777	27557
803.919	27599
804.061	27857
804.204	27622
804.346	27583
804.488	27568
804.63	27614
804.773	27610
804.915	27705
805.057	27827
805.199	27648
805.341	27686
805.483	27644
805.626	27720
805.768	27724
805.91	27736
806.052	27804
806.194	27648
806.336	27911
806.478	27800
806.62	27816
806.762	27914
806.904	27960
807.046	28291
807.188	28196
807.33	28124
807.472	28265
807.614	28154
807.756	28078
807.898	28169
808.04	28013
808.182	28124
808.324	28010
808.465	28059
808.607	28303
808.749	28538
808.891	28569
809.033	28603
809.174	28508
809.316	28413
809.458	28554
809.6	28352
809.741	28672
809.883	28588
810.025	28656
810.166	28752
810.308	28759
810.45	28782
810.591	28755
810.733	28516
810.875	28440
811.016	28481
811.158	28352
811.299	28523
811.441	28535
811.582	28607
811.724	28447
811.865	28504
812.007	28424
812.148	28470
812.29	28500
812.431	28675
812.573	28904
812.714	29052
812.855	28984
812.997	28976
813.138	29166
813.279	29121
813.421	28888
813.562	28976
813.703	28835
813.845	28561
813.986	28436
814.127	28306
814.268	28173
814.41	28150
814.551	28166
814.692	28124
814.833	28124
814.974	28185
815.115	28074
815.256	28040
815.397	28063
815.539	28013
815.68	27964
815.821	28048
815.962	27895
816.103	27987
816.244	27846
816.385	27762
816.526	27865
816.666	27633
816.807	27553
816.948	27557
817.089	27591
817.23	27515
817.371	27473
817.512	27466
817.653	27294
817.793	27469
817.934	27519
818.075	27553
818.216	27580
818.356	27355
818.497	27291
818.638	27138
818.778	27116
818.919	27150
819.06	27317
819.2	27367
819.341	27545
819.481	27466
819.622	27477
819.762	27873
819.903	27785
820.043	27739
820.184	27633
820.324	27523
820.465	27713
820.605	27424
820.746	27492
820.886	27488
821.026	27637
821.167	27545
821.307	27656
821.447	27447
821.588	27545
821.728	27275
821.868	27081
822.008	27039
822.149	26937
822.289	26876
822.429	26834
822.569	26533
822.709	26697
822.849	26514
822.99	26518
823.13	26415
823.27	26431
823.41	26320
823.55	26183
823.69	26366
823.83	26206
823.97	26252
824.11	26016
824.25	26149
824.389	26145
824.529	26278
824.669	26199
824.809	26195
824.949	26119
825.089	26309
825.228	26142
825.368	25947
825.508	25951
825.648	26031
825.787	26103
825.927	26142
826.067	25982
826.206	26122
826.346	26062
826.485	26054
826.625	25947
826.765	26115
826.904	26103
827.044	25807
827.183	25742
827.323	25635
827.462	25803
827.601	25689
827.741	25712
827.88	25708
828.02	25586
828.159	25830
828.298	25708
828.437	25723
828.577	25677
828.716	25978
828.855	25662
828.994	25537
829.134	25407
829.273	25544
829.412	25346
829.551	25479
829.69	25346
829.829	25388
829.968	25525
830.107	25468
830.246	25411
830.385	25381
830.524	25411
830.663	25213
830.802	25228
830.941	25065
831.08	25023
831.219	25091
831.357	25179
831.496	25213
831.635	24970
831.774	25046
831.913	25053
832.051	24787
832.19	24913
832.329	24825
832.467	24837
832.606	24589
832.744	24711
832.883	24764
833.022	24745
833.16	24814
833.299	24806
833.437	24795
833.576	24806
833.714	24749
833.852	24859
833.991	24985
834.129	24856
834.267	24935
834.406	24669
834.544	24928
834.682	24916
834.821	24692
834.959	25038
835.097	24764
835.235	24825
835.373	24817
835.511	24890
835.65	24753
835.788	24677
835.926	24509
836.064	24585
836.202	24460
836.34	24681
836.478	24616
836.615	24692
836.753	24658
836.891	24810
837.029	24646
837.167	24566
837.305	24578
837.443	24521
837.58	24414
837.718	24589
837.856	24521
837.993	24426
838.131	24544
838.269	24426
838.406	24513
838.544	24254
838.681	24114
838.819	24133
838.956	23980
839.094	23920
839.231	23969
839.369	24117
839.506	24266
839.643	24357
839.781	23920
839.918	23832
840.055	23939
840.193	23927
840.33	23923
840.467	23954
840.604	23927
840.742	24049
840.879	23623
841.016	23775
841.153	23870
841.29	24041
841.427	23904
841.564	23805
841.701	23703
841.838	23863
841.975	23710
842.112	23798
842.249	23722
842.385	23566
842.522	23786
842.659	23642
842.796	23562
842.933	23649
843.069	23611
843.206	23596
843.343	23676
843.479	23619
843.616	23482
843.752	23406
843.889	23368
844.025	23547
844.162	23398
844.298	23486
844.435	23440
844.571	23326
844.708	23440
844.844	23665
844.98	23478
845.117	23528
845.253	23334
845.389	23315
845.525	23273
845.661	23105
845.798	23121
845.934	23185
846.07	23117
846.206	23197
846.342	23254
846.478	23124
846.614	22843
846.75	22869
846.886	22698
847.022	22923
847.158	22927
847.294	22877
847.429	22843
847.565	22706
847.701	23006
847.837	22565
847.972	22634
848.108	22717
848.244	22668
848.379	22569
848.515	22508
848.65	22360
848.786	22470
848.921	22481
849.057	22561
849.192	22626
849.328	22565
849.463	22443
849.598	22371
849.734	22402
849.869	22325
850.004	22246
850.14	22341
850.275	22211
850.41	22082
850.545	22177
850.68	22215
850.815	22318
850.95	22158
851.085	22436
851.22	22261
851.355	22314
851.49	22284
851.625	22143
851.76	22200
851.895	22177
852.03	22128
852.165	22139
852.299	22219
852.434	22360
852.569	22303
852.703	22295
852.838	22204
852.973	22337
853.107	22242
853.242	22109
853.376	22162
853.511	21994
853.645	22067
853.78	22154
853.914	22082
854.048	22002
854.183	22143
854.317	22105
854.451	22173
854.585	22032
854.72	22093
854.854	22036
854.988	21964
855.122	22074
855.256	21949
855.39	22067
855.524	22048
855.658	22010
855.792	22040
855.926	22055
856.06	22219
856.194	22036
856.327	22021
856.461	22051
856.595	21964
856.729	22074
856.862	22048
856.996	22025
857.13	22120
857.263	22067
857.397	22177
857.53	21998
857.664	22021
857.797	22055
857.931	22051
858.064	22154
858.197	22295
858.331	21994
858.464	21998
858.597	21907
858.731	22036
858.864	22093
858.997	22013
859.13	22010
859.263	21930
859.396	22070
859.529	22097
859.662	21983
859.795	22021
859.928	22147
860.061	22131
860.194	22196
860.327	22025
860.46	21991
860.592	22109
860.725	22150
860.858	22044
860.99	22036
861.123	21895
861.256	21926
861.388	22040
861.521	22752
861.653	21945
861.786	21869
861.918	21945
862.05	21926
862.183	21907
862.315	21998
862.447	21987
862.58	21945
862.712	21831
862.844	21625
862.976	21831
863.108	21781
863.24	22143
863.372	21637
863.504	21793
863.636	21629
863.768	21751
863.9	21690
864.032	21709
864.164	21732
864.296	21842
864.428	21804
864.559	21842
864.691	21724
864.823	21739
864.954	21686
865.086	21717
865.217	21694
865.349	21523
865.48	21652
865.612	21625
865.743	21800
865.875	21705
866.006	21580
866.137	21637
866.269	21709
866.4	21694
866.531	21545
866.662	21542
866.793	21553
866.924	21542
867.055	21709
867.186	21580
867.317	21485
867.448	21351
867.579	21591
867.71	21473
867.841	21408
867.972	21542
868.103	21622
868.233	21576
868.364	21587
868.495	21583
868.625	21800
868.756	21873
868.886	21568
869.017	21869
869.147	21819
869.278	21812
869.408	21892
869.539	21850
869.669	21926
869.799	21823
869.929	21918
870.06	21884
870.19	22120
870.32	22063
870.45	22196
870.58	22154
870.71	22421
870.84	22310
870.97	22158
871.1	22139
871.23	22428
871.36	22375
871.489	22382
871.619	22303
871.749	22478
871.879	22398
872.008	22508
872.138	22398
872.267	22402
872.397	22268
872.526	22200
872.656	22249
872.785	22230
872.915	22398
873.044	22474
873.173	22352
873.303	22478
873.432	22504
873.561	22508
873.69	22398
873.819	22371
873.948	22455
874.077	22440
874.206	22322
874.335	22417
874.464	22485
874.593	22626
874.722	22588
874.851	22710
874.979	22599
875.108	22698
875.237	22630
875.365	22542
875.494	22531
875.623	22725
875.751	22592
875.88	22634
876.008	22653
876.136	22847
876.265	22972
876.393	23124
876.521	23086
876.65	23113
876.778	23014
876.906	23044
877.034	22949
877.162	22972
877.29	22892
877.418	22999
877.546	22919
877.674	22881
877.802	23033
877.93	23022
878.058	22793
878.185	22771
878.313	22923
878.441	22911
878.568	22805
878.696	22790
878.824	22991
878.951	23086
879.079	23140
879.206	23254
879.333	22984
879.461	22968
879.588	23086
879.715	23185
879.842	23246
879.97	22991
880.097	22801
880.224	22744
880.351	22706
880.478	22908
880.605	22660
880.732	22816
880.859	22858
880.986	22759
881.112	22774
881.239	22653
881.366	22398
881.493	22390
881.619	22428
881.746	22341
881.872	22367
881.999	22363
882.125	22344
882.252	22375
882.378	22436
882.505	22424
882.631	22177
882.757	21968
882.883	22147
883.01	21991
883.136	21975
883.262	22036
883.388	21903
883.514	22105
883.64	22272
883.766	21994
883.892	21869
884.018	21846
884.143	22032
884.269	22051
884.395	21770
884.52	21538
884.646	21671
884.772	21679
884.897	21583
885.023	21857
885.148	21804
885.274	21857
885.399	21694
885.524	21648
885.65	21698
885.775	21652
885.9	21622
886.025	21698
886.15	21747
886.275	21553
886.4	21496
886.525	21690
886.65	21610
886.775	21656
886.9	21641
887.025	21880
887.149	21572
887.274	21507
887.399	21382
887.523	21511
887.648	21348
887.773	21272
887.897	21412
888.021	21462
888.146	21363
888.27	21515
888.395	21572
888.519	21477
888.643	21462
888.767	21523
888.891	21386
889.015	21260
889.139	21279
889.263	21195
889.387	21340
889.511	21412
889.635	21336
889.759	21241
889.883	21077
890.006	21351
890.13	21367
890.254	21077
890.377	21005
890.501	21039
890.624	20960
890.748	21058
890.871	20876
890.995	20739
891.118	20720
891.241	20864
891.364	20746
891.488	20876
891.611	20864
891.734	20689
891.857	20807
891.98	20735
892.103	20735
892.226	20853
892.349	20735
892.471	20518
892.594	20636
892.717	20754
892.839	20484
892.962	20670
893.085	20750
893.207	20636
893.33	20556
893.452	20556
893.575	20731
893.697	20678
893.819	20769
893.941	20838
894.064	20899
894.186	20678
894.308	20530
894.43	20735
894.552	20823
894.674	20807
894.796	20663
894.918	20651
895.04	20587
895.161	20697
895.283	20636
895.405	20587
895.526	20575
895.648	20701
895.769	20708
895.891	20659
896.012	20781
896.134	20735
896.255	20724
896.376	20587
896.498	20644
896.619	20716
896.74	20701
896.861	20731
896.982	21039
897.103	21157
897.224	20952
897.345	20921
897.466	20731
897.587	20872
897.708	20929
897.828	20963
897.949	20796
898.07	20648
898.19	20853
898.311	20952
898.431	20773
898.552	20864
898.672	20891
898.792	20971
898.913	20823
899.033	20754
899.153	20640
899.273	20495
899.393	20579
899.513	20579
899.633	20636
899.753	20568
899.873	20571
899.993	20693
900.113	20457
900.232	20644
900.352	20412
900.472	20374
900.591	20476
900.711	20408
900.83	20320
900.95	20621
901.069	20385
901.189	20267
901.308	20043
901.427	19936
901.546	19963
901.665	19940
901.784	19818
901.904	19769
902.023	19719
902.141	19499
902.26	19499
902.379	19487
902.498	19384
902.617	19438
902.735	19426
902.854	19449
902.973	19377
903.091	19118
903.21	19133
903.328	19107
903.446	19114
903.565	18966
903.683	18973
903.801	18821
903.919	19019
904.038	18829
904.156	18734
904.274	18684
904.392	18673
904.51	18650
904.627	18688
904.745	18707
904.863	18639
904.981	18525
905.098	18433
905.216	18350
905.334	18448
905.451	18296
905.569	18395
905.686	18395
905.803	18308
905.921	18213
906.038	18270
906.155	18178
906.272	18072
906.389	18022
906.506	17923
906.623	17912
906.74	17851
906.857	17684
906.974	17954
907.091	17832
907.208	18045
907.324	17961
907.441	17805
907.557	17608
907.674	17570
907.79	17516
907.907	17585
908.023	17684
908.139	17604
908.256	17440
908.372	17623
908.488	17535
908.604	17395
908.72	17273
908.836	17200
908.952	17318
909.068	17379
909.184	17372
909.3	17269
909.415	17387
909.531	17235
909.647	17014
909.762	16968
909.878	16984
909.993	17140
910.108	16877
910.224	16885
910.339	17056
910.454	16904
910.57	16930
910.685	16763
910.8	17025
910.915	16987
911.03	16824
911.145	16622
911.259	16561
911.374	16603
911.489	16550
911.604	16459
911.718	16333
911.833	16306
911.947	16246
912.062	16196
912.176	16295
912.291	16310
912.405	16295
912.519	16440
912.633	16577
912.748	16310
912.862	16299
912.976	16173
913.09	16006
913.204	15987
913.318	16188
913.431	16257
913.545	16188
913.659	16306
913.772	16112
913.886	16010
914	15941
914.113	16036
914.226	16074
914.34	16006
914.453	15766
914.566	15964
914.68	15846
914.793	15785
914.906	15671
915.019	15591
915.132	15526
915.245	15553
915.358	15572
915.47	15633
915.583	15545
915.696	15458
915.809	15629
915.921	15713
916.034	15405
916.146	15538
916.259	15428
916.371	15545
916.483	15412
916.595	15393
916.708	15336
916.82	15378
916.932	15367
917.044	15325
917.156	15241
917.268	15161
917.38	15245
917.491	15131
917.603	15241
917.715	15222
917.826	15180
917.938	15165
918.049	14990
918.161	15058
918.272	15203
918.384	15237
918.495	15131
918.606	14960
918.717	14830
918.828	14941
918.939	14952
919.05	14811
919.161	14876
919.272	14708
919.383	14819
919.494	15013
919.604	15005
919.715	14941
919.826	14686
919.936	14834
920.047	14941
920.157	14933
920.267	15028
920.378	14914
920.488	14895
920.598	15043
920.708	15112
920.818	14975
920.928	14982
921.038	15119
921.148	15013
921.258	14842
921.368	14712
921.477	14575
921.587	14610
921.697	14465
921.806	14629
921.916	14423
922.025	14267
922.134	14202
922.244	14259
922.353	14298
922.462	14206
922.571	14001
922.68	13955
922.789	13902
922.898	13875
923.007	13731
923.116	13967
923.224	13830
923.333	13830
923.442	13742
923.55	13734
923.659	13761
923.767	13719
923.876	13548
923.984	13658
924.092	13567
924.201	13677
924.309	13616
924.417	13636
924.525	13632
924.633	13495
924.741	14446
924.849	13308
924.956	13438
925.064	13316
925.172	13274
925.279	13263
925.387	13308
925.494	13308
925.602	13381
925.709	13293
925.816	13190
925.924	13156
926.031	13369
926.138	13274
926.245	13274
926.352	13107
926.459	13266
926.566	13278
926.673	13129
926.779	12939
926.886	12924
926.993	12939
927.099	12875
927.206	12772
927.312	12810
927.419	12875
927.525	12810
927.631	12837
927.737	12692
927.843	12658
927.95	12544
928.056	12589
928.162	12627
928.267	12745
928.373	13133
928.479	12707
928.585	12369
928.69	12525
928.796	12616
928.901	12525
929.007	12315
929.112	12464
929.218	12486
929.323	12342
929.428	12418
929.533	12479
929.638	12224
929.743	12323
929.848	12391
929.953	12304
930.058	12182
930.163	12030
930.267	12022
930.372	12251
930.477	12045
930.581	12194
930.685	12053
930.79	11885
930.894	11958
930.998	11954
931.103	11920
931.207	11729
931.311	11577
931.415	11425
931.519	11311
931.623	11315
