Data from test_V78500241_2598.txt Node
Date: Fri Mar 25 15:27:57 CST 2022
User: usil
Spectrometer: V785-0024
Trigger mode: 0
Integration Time (sec): 4.000000E-1
Scans to average: 1
Nonlinearity correction enabled: false
Boxcar width: 0
Storing dark spectrum: false
XAxis mode: Wavelengths
Number of Pixels in Spectrum: 1024
>>>>>Begin Spectral Data<<<<<
801.071	26982
801.214	27127
801.356	26914
801.499	26952
801.641	26746
801.783	26819
801.926	26735
802.068	26648
802.211	26583
802.353	26568
802.496	26480
802.638	26256
802.78	26355
802.923	26256
803.065	26305
803.208	26191
803.35	26328
803.492	26366
803.635	26537
803.777	26389
803.919	26507
804.061	26785
804.204	26594
804.346	26396
804.488	26320
804.63	26503
804.773	26370
804.915	26549
805.057	26777
805.199	26366
805.341	26598
805.483	26571
805.626	26499
805.768	26571
805.91	26579
806.052	26636
806.194	26453
806.336	26769
806.478	26564
806.62	26651
806.762	26758
806.904	26830
807.046	27112
807.188	27051
807.33	26944
807.472	27123
807.614	27089
807.756	27051
807.898	26887
808.04	26739
808.182	26807
808.324	26967
808.465	26887
808.607	27085
808.749	27146
808.891	27294
809.033	27363
809.174	27374
809.316	27146
809.458	27039
809.6	27142
809.741	27359
809.883	27230
810.025	27488
810.166	27572
810.308	27469
810.45	27492
810.591	27298
810.733	27249
810.875	27298
811.016	27066
811.158	27359
811.299	27355
811.441	27336
811.582	27310
811.724	27233
811.865	27081
812.007	27173
812.148	27184
812.29	27066
812.431	27386
812.573	27454
812.714	27580
812.855	27717
812.997	27698
813.138	27987
813.279	27873
813.421	27690
813.562	27671
813.703	27504
813.845	27393
813.986	27058
814.127	26933
814.268	26899
814.41	26762
814.551	26849
814.692	26948
814.833	26716
814.974	26727
815.115	26834
815.256	26724
815.397	26644
815.539	26667
815.68	26716
815.821	26552
815.962	26758
816.103	26640
816.244	26457
816.385	26351
816.526	26244
816.666	26278
816.807	26039
816.948	26153
817.089	26172
817.23	26172
817.371	26145
817.512	26122
817.653	26084
817.793	26001
817.934	26008
818.075	26092
818.216	26039
818.356	26027
818.497	25989
818.638	25875
818.778	25868
818.919	25909
819.06	26001
819.2	26073
819.341	26107
819.481	26119
819.622	26218
819.762	26511
819.903	26218
820.043	26248
820.184	26168
820.324	26142
820.465	26351
820.605	26157
820.746	26282
820.886	26088
821.026	26214
821.167	26164
821.307	26122
821.447	26016
821.588	26005
821.728	25837
821.868	25674
822.008	25533
822.149	25590
822.289	25685
822.429	25187
822.569	25324
822.709	25206
822.849	25057
822.99	25076
823.13	25118
823.27	25145
823.41	24920
823.55	24894
823.69	24924
823.83	24802
823.97	24825
824.11	24654
824.25	24635
824.389	24764
824.529	24935
824.669	24661
824.809	24825
824.949	24779
825.089	24772
825.228	24707
825.368	24555
825.508	24422
825.648	24681
825.787	24582
825.927	24646
826.067	24616
826.206	24623
826.346	24585
826.485	24738
826.625	24703
826.765	24741
826.904	24741
827.044	24372
827.183	24441
827.323	24388
827.462	24486
827.601	24262
827.741	24247
827.88	24464
828.02	24148
828.159	24289
828.298	24319
828.437	24384
828.577	24182
828.716	24410
828.855	24205
828.994	24038
829.134	23961
829.273	23935
829.412	23901
829.551	24060
829.69	23908
829.829	24022
829.968	24243
830.107	24167
830.246	24125
830.385	23939
830.524	23984
830.663	23703
830.802	23668
830.941	23687
831.08	23501
831.219	23779
831.357	23710
831.496	23802
831.635	23646
831.774	23630
831.913	23493
832.051	23330
832.19	23505
832.329	23467
832.467	23296
832.606	23250
832.744	23307
832.883	23299
833.022	23235
833.16	23239
833.299	23436
833.437	23360
833.576	23322
833.714	23383
833.852	23486
833.991	23429
834.129	23330
834.267	23379
834.406	23322
834.544	23356
834.682	23429
834.821	23376
834.959	23512
835.097	23376
835.235	23471
835.373	23372
835.511	23311
835.65	23204
835.788	23303
835.926	23258
836.064	22976
836.202	23151
836.34	23208
836.478	23277
836.615	23254
836.753	23273
836.891	23277
837.029	23147
837.167	23197
837.305	23208
837.443	23029
837.58	23094
837.718	23067
837.856	23124
837.993	23064
838.131	23140
838.269	22908
838.406	22995
838.544	22904
838.681	22729
838.819	22702
838.956	22443
839.094	22596
839.231	22538
839.369	22679
839.506	22980
839.643	22812
839.781	22531
839.918	22554
840.055	22565
840.193	22584
840.33	22634
840.467	22573
840.604	22656
840.742	22759
840.879	22314
841.016	22451
841.153	22371
841.29	22603
841.427	22421
841.564	22641
841.701	22470
841.838	22451
841.975	22443
842.112	22497
842.249	22116
842.385	22447
842.522	22512
842.659	22375
842.796	22234
842.933	22272
843.069	22223
843.206	22230
843.343	22280
843.479	22284
843.616	22093
843.752	21994
843.889	22090
844.025	22223
844.162	22063
844.298	22036
844.435	21994
844.571	22036
844.708	22040
844.844	22166
844.98	22086
845.117	22158
845.253	22055
845.389	21884
845.525	21895
845.661	21854
845.798	21766
845.934	21770
846.07	21789
846.206	21865
846.342	21876
846.478	21652
846.614	21682
846.75	21447
846.886	21401
847.022	21603
847.158	21530
847.294	21690
847.429	21625
847.565	21469
847.701	21743
847.837	21237
847.972	21150
848.108	21218
848.244	21264
848.379	21207
848.515	21146
848.65	21173
848.786	21108
848.921	21192
849.057	21169
849.192	21150
849.328	21188
849.463	21085
849.598	21100
849.734	21108
849.869	20990
850.004	20895
850.14	20994
850.275	20887
850.41	20804
850.545	20773
850.68	20830
850.815	20872
850.95	20826
851.085	21081
851.22	21047
851.355	20902
851.49	20864
851.625	20883
851.76	20864
851.895	20815
852.03	20823
852.165	20880
852.299	20963
852.434	20925
852.569	20857
852.703	20990
852.838	20899
852.973	20967
853.107	20975
853.242	20857
853.376	20750
853.511	20659
853.645	20587
853.78	20849
853.914	20758
854.048	20674
854.183	20701
854.317	20807
854.451	20834
854.585	20674
854.72	20682
854.854	20796
854.988	20575
855.122	20621
855.256	20530
855.39	20655
855.524	20689
855.658	20788
855.792	20659
855.926	20796
856.06	20796
856.194	20708
856.327	20724
856.461	20716
856.595	20587
856.729	20762
856.862	20735
856.996	20686
857.13	20724
857.263	20838
857.397	20804
857.53	20625
857.664	20773
857.797	20724
857.931	20883
858.064	20750
858.197	20853
858.331	20712
858.464	20727
858.597	20511
858.731	20743
858.864	20590
858.997	20590
859.13	20720
859.263	20648
859.396	20727
859.529	20705
859.662	20571
859.795	20568
859.928	20678
860.061	20929
860.194	20914
860.327	20811
860.46	20708
860.592	20777
860.725	20899
860.858	20762
860.99	20697
861.123	20587
861.256	20754
861.388	20705
861.521	21298
861.653	20545
861.786	20526
861.918	20541
862.05	20636
862.183	20587
862.315	20689
862.447	20731
862.58	20693
862.712	20469
862.844	20438
862.976	20575
863.108	20507
863.24	20944
863.372	20271
863.504	20438
863.636	20389
863.768	20446
863.9	20396
864.032	20328
864.164	20370
864.296	20404
864.428	20564
864.559	20526
864.691	20541
864.823	20415
864.954	20339
865.086	20305
865.217	20336
865.349	20240
865.48	20298
865.612	20336
865.743	20522
865.875	20431
866.006	20320
866.137	20229
866.269	20233
866.4	20294
866.531	20229
866.662	20107
866.793	20237
866.924	20164
867.055	20252
867.186	20290
867.317	20294
867.448	20073
867.579	20062
867.71	20183
867.841	20168
867.972	20248
868.103	20248
868.233	20240
868.364	20252
868.495	20408
868.625	20450
868.756	20632
868.886	20480
869.017	20552
869.147	20560
869.278	20613
869.408	20393
869.539	20514
869.669	20674
869.799	20454
869.929	20659
870.06	20511
870.19	20777
870.32	20788
870.45	20868
870.58	20918
870.71	21055
870.84	20994
870.97	20883
871.1	20830
871.23	21104
871.36	21089
871.489	21089
871.619	21127
871.749	21127
871.879	21173
872.008	21218
872.138	21211
872.267	21173
872.397	20967
872.526	20819
872.656	20906
872.785	20842
872.915	21100
873.044	21142
873.173	21085
873.303	21260
873.432	21222
873.561	21310
873.69	21108
873.819	21020
873.948	21230
874.077	21313
874.206	21024
874.335	21119
874.464	21291
874.593	21283
874.722	21306
874.851	21386
874.979	21428
875.108	21359
875.237	21329
875.365	21329
875.494	21348
875.623	21344
875.751	21336
875.88	21336
876.008	21466
876.136	21507
876.265	21728
876.393	21983
876.521	21816
876.65	21823
876.778	21789
876.906	21694
877.034	21606
877.162	21728
877.29	21663
877.418	21656
877.546	21751
877.674	21819
877.802	21759
877.93	21751
878.058	21644
878.185	21526
878.313	21492
878.441	21698
878.568	21477
878.696	21580
878.824	21633
878.951	21778
879.079	22036
879.206	21987
879.333	21857
879.461	21679
879.588	21831
879.715	21766
879.842	21949
879.97	21781
880.097	21564
880.224	21564
880.351	21667
880.478	21473
880.605	21477
880.732	21549
880.859	21739
880.986	21637
881.112	21538
881.239	21340
881.366	21287
881.493	21329
881.619	21138
881.746	21165
881.872	21195
881.999	21058
882.125	21013
882.252	21001
882.378	21142
882.505	21180
882.631	20944
882.757	20864
882.883	20880
883.01	20902
883.136	20773
883.262	20651
883.388	20644
883.514	20845
883.64	20914
883.766	20640
883.892	20606
884.018	20602
884.143	20746
884.269	20811
884.395	20648
884.52	20415
884.646	20469
884.772	20431
884.897	20336
885.023	20457
885.148	20674
885.274	20617
885.399	20507
885.524	20484
885.65	20488
885.775	20587
885.9	20309
886.025	20598
886.15	20648
886.275	20442
886.4	20400
886.525	20518
886.65	20374
886.775	20347
886.9	20571
887.025	20739
887.149	20366
887.274	20233
887.399	20381
887.523	20351
887.648	20164
887.773	20157
887.897	20434
888.021	20275
888.146	20046
888.27	20271
888.395	20366
888.519	20290
888.643	20336
888.767	20324
888.891	20062
889.015	20103
889.139	20225
889.263	19944
889.387	20191
889.511	20362
889.635	20168
889.759	20020
889.883	20088
890.006	20005
890.13	20039
890.254	19868
890.377	20043
890.501	19757
890.624	19803
890.748	19791
890.871	19708
890.995	19662
891.118	19674
891.241	19662
891.364	19689
891.488	19807
891.611	19559
891.734	19613
891.857	19727
891.98	19590
892.103	19723
892.226	19635
892.349	19609
892.471	19472
892.594	19491
892.717	19540
892.839	19666
892.962	19567
893.085	19578
893.207	19552
893.33	19407
893.452	19590
893.575	19521
893.697	19563
893.819	19772
893.941	19704
894.064	19696
894.186	19514
894.308	19350
894.43	19620
894.552	19712
894.674	19651
894.796	19502
894.918	19506
895.04	19552
895.161	19670
895.283	19658
895.405	19559
895.526	19556
895.648	19540
895.769	19491
895.891	19635
896.012	19643
896.134	19635
896.255	19525
896.376	19506
896.498	19487
896.619	19616
896.74	19632
896.861	19578
896.982	19947
897.103	20031
897.224	19898
897.345	19757
897.466	19803
897.587	19753
897.708	19868
897.828	19841
897.949	19772
898.07	19624
898.19	19776
898.311	19803
898.431	19674
898.552	19822
898.672	19803
898.792	19837
898.913	19681
899.033	19613
899.153	19643
899.273	19419
899.393	19491
899.513	19556
899.633	19601
899.753	19613
899.873	19552
899.993	19643
900.113	19438
900.232	19487
900.352	19441
900.472	19457
900.591	19278
900.711	19377
900.83	19301
900.95	19289
901.069	19510
901.189	19343
901.308	19065
901.427	18875
901.546	18916
901.665	18913
901.784	18829
901.904	18783
902.023	18715
902.141	18563
902.26	18483
902.379	18589
902.498	18342
902.617	18388
902.735	18433
902.854	18407
902.973	18292
903.091	18213
903.21	18053
903.328	18148
903.446	17984
903.565	17889
903.683	17980
903.801	17809
903.919	17741
904.038	17790
904.156	17714
904.274	17775
904.392	17589
904.51	17649
904.627	17581
904.745	17630
904.863	17809
904.981	17474
905.098	17516
905.216	17414
905.334	17429
905.451	17364
905.569	17269
905.686	17410
905.803	17299
905.921	16991
906.038	17204
906.155	17261
906.272	16953
906.389	17010
906.506	17006
906.623	16957
906.74	16946
906.857	16713
906.974	16816
907.091	17014
907.208	16961
907.324	16866
907.441	16809
907.557	16683
907.674	16683
907.79	16618
907.907	16645
908.023	16721
908.139	16656
908.256	16558
908.372	16611
908.488	16417
908.604	16402
908.72	16211
908.836	16257
908.952	16390
909.068	16360
909.184	16527
909.3	16386
909.415	16402
909.531	16352
909.647	16055
909.762	16067
909.878	16078
909.993	16032
910.108	15953
910.224	15991
910.339	15972
910.454	15937
910.57	15873
910.685	15831
910.8	15892
910.915	16029
911.03	15827
911.145	15705
911.259	15686
911.374	15724
911.489	15576
911.604	15545
911.718	15428
911.833	15473
911.947	15294
912.062	15329
912.176	15454
912.291	15515
912.405	15485
912.519	15587
912.633	15595
912.748	15412
912.862	15313
912.976	15298
913.09	15241
913.204	15249
913.318	15291
913.431	15374
913.545	15340
913.659	15367
913.772	15180
913.886	15127
914	15123
914.113	15176
914.226	15104
914.34	15112
914.453	15074
914.566	15097
914.68	14956
914.793	14872
914.906	14701
915.019	14648
915.132	14663
915.245	14602
915.358	14606
915.47	14708
915.583	14739
915.696	14575
915.809	14807
915.921	14804
916.034	14537
916.146	14552
916.259	14533
916.371	14590
916.483	14621
916.595	14374
916.708	14514
916.82	14518
916.932	14423
917.044	14473
917.156	14408
917.268	14351
917.38	14404
917.491	14229
917.603	14343
917.715	14438
917.826	14408
917.938	14259
918.049	14259
918.161	14290
918.272	14423
918.384	14404
918.495	14282
918.606	14115
918.717	14092
918.828	14142
918.939	14199
919.05	14103
919.161	14123
919.272	13856
919.383	14008
919.494	14107
919.604	14320
919.715	14050
919.826	13913
919.936	14058
920.047	14115
920.157	14020
920.267	14351
920.378	14123
920.488	13925
920.598	14252
920.708	14389
920.818	14282
920.928	14248
921.038	14427
921.148	14313
921.258	13989
921.368	13944
921.477	13875
921.587	13776
921.697	13662
921.806	13738
921.916	13647
922.025	13529
922.134	13480
922.244	13464
922.353	13559
922.462	13388
922.571	13316
922.68	13065
922.789	13152
922.898	13107
923.007	13084
923.116	13137
923.224	13141
923.333	13095
923.442	13053
923.55	12848
923.659	13008
923.767	12920
923.876	12897
923.984	13065
924.092	12833
924.201	12875
924.309	12943
924.417	12856
924.525	12734
924.633	12734
924.741	13757
924.849	12627
924.956	12760
925.064	12604
925.172	12521
925.279	12521
925.387	12585
925.494	12612
925.602	12582
925.709	12654
925.816	12407
925.924	12467
926.031	12601
926.138	12441
926.245	12517
926.352	12414
926.459	12559
926.566	12532
926.673	12429
926.779	12369
926.886	12235
926.993	12239
927.099	12163
927.206	12121
927.312	12034
927.419	12182
927.525	12106
927.631	12190
927.737	12159
927.843	12007
927.95	11916
928.056	11965
928.162	11965
928.267	12022
928.373	12471
928.479	11984
928.585	11821
928.69	11908
928.796	11889
928.901	11821
929.007	11771
929.112	11824
929.218	11756
929.323	11646
929.428	11684
929.533	11859
929.638	11668
929.743	11661
929.848	11665
929.953	11600
930.058	11570
930.163	11307
930.267	11471
930.372	11535
930.477	11383
930.581	11646
930.685	11505
930.79	11254
930.894	11288
930.998	11345
931.103	11398
931.207	11067
931.311	10991
931.415	10892
931.519	10630
931.623	10702
