Data from test_V78500241_3164.txt Node
Date: Fri Mar 25 15:31:53 CST 2022
User: usil
Spectrometer: V785-0024
Trigger mode: 0
Integration Time (sec): 4.000000E-1
Scans to average: 1
Nonlinearity correction enabled: false
Boxcar width: 0
Storing dark spectrum: false
XAxis mode: Wavelengths
Number of Pixels in Spectrum: 1024
>>>>>Begin Spectral Data<<<<<
801.071	27096
801.214	27009
801.356	26891
801.499	26590
801.641	26689
801.783	26606
801.926	26750
802.068	26720
802.211	26488
802.353	26511
802.496	26465
802.638	26290
802.78	26278
802.923	26195
803.065	26172
803.208	26240
803.35	26393
803.492	26484
803.635	26507
803.777	26336
803.919	26469
804.061	26712
804.204	26362
804.346	26419
804.488	26298
804.63	26552
804.773	26290
804.915	26526
805.057	26457
805.199	26438
805.341	26492
805.483	26674
805.626	26549
805.768	26495
805.91	26549
806.052	26625
806.194	26495
806.336	26853
806.478	26469
806.62	26423
806.762	26560
806.904	26883
807.046	26967
807.188	27039
807.33	26952
807.472	26902
807.614	26861
807.756	26975
807.898	26819
808.04	26758
808.182	26712
808.324	26727
808.465	26849
808.607	27043
808.749	27127
808.891	27157
809.033	27203
809.174	27123
809.316	27066
809.458	27169
809.6	27112
809.741	27260
809.883	27176
810.025	27473
810.166	27325
810.308	27359
810.45	27291
810.591	27321
810.733	27241
810.875	27169
811.016	26952
811.158	26948
811.299	27218
811.441	27283
811.582	27173
811.724	27203
811.865	27043
812.007	27032
812.148	27062
812.29	27218
812.431	27298
812.573	27424
812.714	27427
812.855	27675
812.997	27686
813.138	27770
813.279	27728
813.421	27564
813.562	27504
813.703	27454
813.845	27291
813.986	27001
814.127	26880
814.268	26712
814.41	26838
814.551	26621
814.692	26883
814.833	26811
814.974	26754
815.115	26823
815.256	26625
815.397	26708
815.539	26590
815.68	26575
815.821	26374
815.962	26385
816.103	26518
816.244	26317
816.385	26343
816.526	26389
816.666	26130
816.807	25940
816.948	25875
817.089	26267
817.23	26069
817.371	26077
817.512	25966
817.653	25986
817.793	25890
817.934	25947
818.075	25894
818.216	25993
818.356	26035
818.497	25951
818.638	25647
818.778	25822
818.919	25769
819.06	25932
819.2	25917
819.341	26180
819.481	25974
819.622	26199
819.762	26355
819.903	26256
820.043	26092
820.184	26214
820.324	26214
820.465	26176
820.605	26145
820.746	26084
820.886	26020
821.026	26050
821.167	25974
821.307	26164
821.447	25989
821.588	25788
821.728	25799
821.868	25674
822.008	25537
822.149	25381
822.289	25544
822.429	25301
822.569	25202
822.709	25240
822.849	25034
822.99	24985
823.13	25027
823.27	24973
823.41	24757
823.55	24764
823.69	24844
823.83	24760
823.97	24681
824.11	24627
824.25	24494
824.389	24578
824.529	24665
824.669	24711
824.809	24738
824.949	24677
825.089	24601
825.228	24654
825.368	24559
825.508	24403
825.648	24696
825.787	24517
825.927	24574
826.067	24467
826.206	24547
826.346	24456
826.485	24601
826.625	24399
826.765	24486
826.904	24471
827.044	24152
827.183	24380
827.323	24136
827.462	24270
827.601	24334
827.741	24117
827.88	24353
828.02	23984
828.159	24144
828.298	24095
828.437	24262
828.577	24072
828.716	24289
828.855	24064
828.994	23897
829.134	23946
829.273	23977
829.412	23939
829.551	23847
829.69	23980
829.829	23939
829.968	23958
830.107	24041
830.246	23920
830.385	23832
830.524	23843
830.663	23817
830.802	23695
830.941	23505
831.08	23551
831.219	23630
831.357	23539
831.496	23783
831.635	23619
831.774	23376
831.913	23372
832.051	23147
832.19	23265
832.329	23334
832.467	23193
832.606	23124
832.744	23258
832.883	23231
833.022	23124
833.16	23197
833.299	23083
833.437	23250
833.576	23292
833.714	23208
833.852	23292
833.991	23250
834.129	23212
834.267	23368
834.406	23288
834.544	23353
834.682	23181
834.821	23189
834.959	23421
835.097	23155
835.235	23299
835.373	23265
835.511	23269
835.65	23136
835.788	23079
835.926	22991
836.064	22927
836.202	22968
836.34	23113
836.478	23284
836.615	23094
836.753	23067
836.891	23105
837.029	23064
837.167	23025
837.305	23052
837.443	23022
837.58	22938
837.718	23033
837.856	23003
837.993	22923
838.131	23003
838.269	22809
838.406	22805
838.544	22748
838.681	22580
838.819	22470
838.956	22428
839.094	22432
839.231	22565
839.369	22596
839.506	22885
839.643	22618
839.781	22382
839.918	22367
840.055	22527
840.193	22348
840.33	22519
840.467	22265
840.604	22390
840.742	22611
840.879	22318
841.016	22280
841.153	22147
841.29	22512
841.427	22360
841.564	22246
841.701	22341
841.838	22284
841.975	22344
842.112	22318
842.249	22257
842.385	22109
842.522	22265
842.659	22322
842.796	22093
842.933	22200
843.069	22006
843.206	22120
843.343	22109
843.479	22078
843.616	22173
843.752	21869
843.889	21941
844.025	22059
844.162	21880
844.298	22097
844.435	21895
844.571	21793
844.708	21960
844.844	22150
844.98	22021
845.117	21953
845.253	21816
845.389	21762
845.525	21701
845.661	21724
845.798	21545
845.934	21838
846.07	21606
846.206	21720
846.342	21641
846.478	21583
846.614	21378
846.75	21298
846.886	21447
847.022	21416
847.158	21458
847.294	21359
847.429	21450
847.565	21378
847.701	21622
847.837	21127
847.972	21055
848.108	21268
848.244	21127
848.379	21157
848.515	20944
848.65	20998
848.786	20914
848.921	21051
849.057	21173
849.192	21157
849.328	20960
849.463	20948
849.598	20902
849.734	20826
849.869	20929
850.004	20861
850.14	20823
850.275	20834
850.41	20735
850.545	20670
850.68	20636
850.815	20849
850.95	20682
851.085	20876
851.22	20750
851.355	20708
851.49	20697
851.625	20686
851.76	20705
851.895	20674
852.03	20727
852.165	20727
852.299	20800
852.434	20762
852.569	20705
852.703	20735
852.838	20830
852.973	20948
853.107	20739
853.242	20655
853.376	20594
853.511	20503
853.645	20499
853.78	20663
853.914	20587
854.048	20541
854.183	20465
854.317	20537
854.451	20853
854.585	20552
854.72	20492
854.854	20530
854.988	20454
855.122	20625
855.256	20568
855.39	20533
855.524	20667
855.658	20579
855.792	20533
855.926	20625
856.06	20625
856.194	20575
856.327	20602
856.461	20450
856.595	20602
856.729	20526
856.862	20731
856.996	20609
857.13	20549
857.263	20735
857.397	20712
857.53	20537
857.664	20670
857.797	20640
857.931	20594
858.064	20606
858.197	20674
858.331	20511
858.464	20552
858.597	20480
858.731	20606
858.864	20530
858.997	20533
859.13	20522
859.263	20640
859.396	20670
859.529	20511
859.662	20450
859.795	20571
859.928	20499
860.061	20678
860.194	20705
860.327	20537
860.46	20606
860.592	20712
860.725	20648
860.858	20697
860.99	20583
861.123	20385
861.256	20438
861.388	20606
861.521	21116
861.653	20419
861.786	20499
861.918	20415
862.05	20396
862.183	20571
862.315	20571
862.447	20655
862.58	20571
862.712	20275
862.844	20111
862.976	20259
863.108	20434
863.24	20594
863.372	20286
863.504	20309
863.636	20263
863.768	20438
863.9	20294
864.032	20229
864.164	20221
864.296	20271
864.428	20370
864.559	20442
864.691	20259
864.823	20370
864.954	20271
865.086	20202
865.217	20336
865.349	20191
865.48	20195
865.612	20282
865.743	20305
865.875	20199
866.006	20168
866.137	20278
866.269	20195
866.4	20111
866.531	20119
866.662	20172
866.793	20206
866.924	20164
867.055	20161
867.186	20130
867.317	20103
867.448	20130
867.579	20130
867.71	20088
867.841	20027
867.972	20020
868.103	20172
868.233	20202
868.364	20176
868.495	20263
868.625	20313
868.756	20442
868.886	20294
869.017	20305
869.147	20400
869.278	20438
869.408	20320
869.539	20381
869.669	20492
869.799	20480
869.929	20488
870.06	20442
870.19	20682
870.32	20617
870.45	20754
870.58	20697
870.71	20834
870.84	20880
870.97	20785
871.1	20887
871.23	21043
871.36	20979
871.489	20853
871.619	20883
871.749	21081
871.879	20998
872.008	21146
872.138	20998
872.267	20941
872.397	20921
872.526	20823
872.656	20686
872.785	20785
872.915	21039
873.044	21051
873.173	21116
873.303	21024
873.432	21104
873.561	20960
873.69	21157
873.819	21119
873.948	21119
874.077	21058
874.206	21005
874.335	20986
874.464	21089
874.593	21199
874.722	21127
874.851	21176
874.979	21325
875.108	21138
875.237	21218
875.365	21176
875.494	21291
875.623	21211
875.751	21268
875.88	21302
876.008	21370
876.136	21492
876.265	21743
876.393	21774
876.521	21709
876.65	21671
876.778	21625
876.906	21523
877.034	21679
877.162	21583
877.29	21557
877.418	21477
877.546	21500
877.674	21671
877.802	21625
877.93	21568
878.058	21561
878.185	21485
878.313	21511
878.441	21545
878.568	21412
878.696	21511
878.824	21633
878.951	21671
879.079	21736
879.206	21918
879.333	21724
879.461	21606
879.588	21599
879.715	21739
879.842	21819
879.97	21660
880.097	21367
880.224	21538
880.351	21500
880.478	21416
880.605	21370
880.732	21481
880.859	21698
880.986	21340
881.112	21473
881.239	21249
881.366	21135
881.493	21024
881.619	20864
881.746	21020
881.872	21013
881.999	21005
882.125	20948
882.252	21028
882.378	20967
882.505	21119
882.631	20845
882.757	20777
882.883	20842
883.01	20777
883.136	20705
883.262	20629
883.388	20552
883.514	20552
883.64	20842
883.766	20598
883.892	20549
884.018	20537
884.143	20632
884.269	20792
884.395	20427
884.52	20377
884.646	20400
884.772	20313
884.897	20271
885.023	20377
885.148	20461
885.274	20446
885.399	20400
885.524	20400
885.65	20396
885.775	20431
885.9	20336
886.025	20568
886.15	20454
886.275	20374
886.4	20278
886.525	20336
886.65	20271
886.775	20298
886.9	20385
887.025	20431
887.149	20446
887.274	20202
887.399	20221
887.523	20043
887.648	20020
887.773	20054
887.897	20233
888.021	20168
888.146	20126
888.27	20168
888.395	20256
888.519	20244
888.643	20180
888.767	20161
888.891	20069
889.015	19932
889.139	20024
889.263	19928
889.387	19970
889.511	20092
889.635	20069
889.759	19974
889.883	19890
890.006	20001
890.13	19967
890.254	19856
890.377	19909
890.501	19712
890.624	19575
890.748	19860
890.871	19495
890.995	19472
891.118	19495
891.241	19594
891.364	19601
891.488	19613
891.611	19537
891.734	19575
891.857	19609
891.98	19518
892.103	19559
892.226	19460
892.349	19491
892.471	19266
892.594	19285
892.717	19464
892.839	19381
892.962	19457
893.085	19480
893.207	19651
893.33	19343
893.452	19434
893.575	19464
893.697	19388
893.819	19518
893.941	19639
894.064	19662
894.186	19438
894.308	19339
894.43	19453
894.552	19624
894.674	19666
894.796	19502
894.918	19388
895.04	19514
895.161	19480
895.283	19419
895.405	19365
895.526	19422
895.648	19464
895.769	19533
895.891	19480
896.012	19518
896.134	19415
896.255	19559
896.376	19426
896.498	19362
896.619	19430
896.74	19460
896.861	19594
896.982	19780
897.103	19921
897.224	19780
897.345	19651
897.466	19624
897.587	19605
897.708	19833
897.828	19719
897.949	19700
898.07	19480
898.19	19586
898.311	19788
898.431	19765
898.552	19685
898.672	19723
898.792	19662
898.913	19765
899.033	19643
899.153	19502
899.273	19384
899.393	19411
899.513	19373
899.633	19415
899.753	19499
899.873	19365
899.993	19601
900.113	19434
900.232	19381
900.352	19373
900.472	19343
900.591	19168
900.711	19320
900.83	19187
900.95	19259
901.069	19312
901.189	19129
901.308	18962
901.427	18878
901.546	18859
901.665	18886
901.784	18878
901.904	18753
902.023	18658
902.141	18429
902.26	18399
902.379	18410
902.498	18410
902.617	18319
902.735	18479
902.854	18350
902.973	18102
903.091	18011
903.21	17996
903.328	18102
903.446	17999
903.565	17912
903.683	17847
903.801	17748
903.919	17805
904.038	17703
904.156	17463
904.274	17665
904.392	17558
904.51	17562
904.627	17573
904.745	17722
904.863	17672
904.981	17471
905.098	17353
905.216	17277
905.334	17231
905.451	17296
905.569	17254
905.686	17216
905.803	17231
905.921	17128
906.038	17223
906.155	17060
906.272	16896
906.389	16999
906.506	16816
906.623	16828
906.74	16748
906.857	16763
906.974	16733
907.091	16801
907.208	16965
907.324	16793
907.441	16691
907.557	16668
907.674	16569
907.79	16554
907.907	16421
908.023	16546
908.139	16519
908.256	16500
908.372	16459
908.488	16440
908.604	16379
908.72	16219
908.836	16200
908.952	16188
909.068	16341
909.184	16402
909.3	16230
909.415	16291
909.531	16261
909.647	16093
909.762	16048
909.878	15911
909.993	15915
910.108	15876
910.224	15895
910.339	16013
910.454	15895
910.57	15865
910.685	15747
910.8	15979
910.915	15899
911.03	15728
911.145	15675
911.259	15553
911.374	15580
911.489	15545
911.604	15435
911.718	15325
911.833	15367
911.947	15237
912.062	15252
912.176	15302
912.291	15245
912.405	15367
912.519	15553
912.633	15458
912.748	15469
912.862	15340
912.976	15188
913.09	14986
913.204	15100
913.318	15195
913.431	15207
913.545	15222
913.659	15233
913.772	15119
913.886	15032
914	14921
914.113	15051
914.226	15070
914.34	15001
914.453	14895
914.566	14963
914.68	14788
914.793	14826
914.906	14640
915.019	14629
915.132	14556
915.245	14636
915.358	14568
915.47	14537
915.583	14606
915.696	14556
915.809	14750
915.921	14720
916.034	14541
916.146	14442
916.259	14507
916.371	14594
916.483	14480
916.595	14507
916.708	14446
916.82	14499
916.932	14374
917.044	14400
917.156	14301
917.268	14271
917.38	14221
917.491	14328
917.603	14294
917.715	14339
917.826	14473
917.938	14248
918.049	14092
918.161	14259
918.272	14408
918.384	14271
918.495	14187
918.606	14088
918.717	13986
918.828	14096
918.939	14149
919.05	14020
919.161	14111
919.272	13906
919.383	13898
919.494	14065
919.604	14244
919.715	14081
919.826	13982
919.936	14031
920.047	14096
920.157	14054
920.267	14278
920.378	14058
920.488	13959
920.598	14286
920.708	14381
920.818	14145
920.928	14210
921.038	14408
921.148	14237
921.258	14062
921.368	13906
921.477	13830
921.587	13826
921.697	13765
921.806	13856
921.916	13624
922.025	13601
922.134	13525
922.244	13514
922.353	13472
922.462	13464
922.571	13259
922.68	13084
922.789	13164
922.898	13152
923.007	12977
923.116	13206
923.224	13149
923.333	13141
923.442	12939
923.55	12928
923.659	12916
923.767	12962
923.876	12867
923.984	12947
924.092	12821
924.201	12837
924.309	12859
924.417	12764
924.525	12810
924.633	12711
924.741	13643
924.849	12616
924.956	12703
925.064	12662
925.172	12494
925.279	12490
925.387	12490
925.494	12528
925.602	12715
925.709	12639
925.816	12350
925.924	12483
926.031	12509
926.138	12464
926.245	12506
926.352	12403
926.459	12475
926.566	12528
926.673	12479
926.779	12311
926.886	12350
926.993	12224
927.099	12125
927.206	12087
927.312	11977
927.419	12159
927.525	12076
927.631	12213
927.737	12003
927.843	11988
927.95	11927
928.056	11939
928.162	12057
928.267	12019
928.373	12559
928.479	12064
928.585	11813
928.69	11931
928.796	11855
928.901	11828
929.007	11661
929.112	11745
929.218	11745
929.323	11703
929.428	11737
929.533	11813
929.638	11619
929.743	11634
929.848	11718
929.953	11646
930.058	11581
930.163	11391
930.267	11406
930.372	11486
930.477	11277
930.581	11592
930.685	11425
930.79	11341
930.894	11296
930.998	11242
931.103	11341
931.207	10995
931.311	10984
931.415	10908
931.519	10611
931.623	10736
