Data from test_V78500241_3480.txt Node
Date: Fri Mar 25 15:34:05 CST 2022
User: usil
Spectrometer: V785-0024
Trigger mode: 0
Integration Time (sec): 4.000000E-1
Scans to average: 1
Nonlinearity correction enabled: false
Boxcar width: 0
Storing dark spectrum: false
XAxis mode: Wavelengths
Number of Pixels in Spectrum: 1024
>>>>>Begin Spectral Data<<<<<
801.071	27329
801.214	27256
801.356	27074
801.499	26929
801.641	26842
801.783	26819
801.926	26944
802.068	26906
802.211	26792
802.353	26579
802.496	26533
802.638	26412
802.78	26393
802.923	26495
803.065	26267
803.208	26290
803.35	26313
803.492	26587
803.635	26594
803.777	26488
803.919	26556
804.061	27077
804.204	26758
804.346	26667
804.488	26552
804.63	26533
804.773	26377
804.915	26541
805.057	26689
805.199	26571
805.341	26735
805.483	26796
805.626	26636
805.768	26659
805.91	26571
806.052	26625
806.194	26609
806.336	26895
806.478	26689
806.62	26800
806.762	26727
806.904	26891
807.046	27214
807.188	27264
807.33	27161
807.472	27165
807.614	27036
807.756	26986
807.898	27001
808.04	26807
808.182	26956
808.324	26914
808.465	26994
808.607	27195
808.749	27386
808.891	27481
809.033	27431
809.174	27466
809.316	27462
809.458	27317
809.6	27348
809.741	27408
809.883	27545
810.025	27485
810.166	27622
810.308	27625
810.45	27637
810.591	27606
810.733	27378
810.875	27222
811.016	27237
811.158	27169
811.299	27439
811.441	27450
811.582	27306
811.724	27298
811.865	27249
812.007	27325
812.148	27294
812.29	27348
812.431	27534
812.573	27564
812.714	27705
812.855	27667
812.997	27854
813.138	28116
813.279	27876
813.421	27892
813.562	27709
813.703	27481
813.845	27485
813.986	27184
814.127	27036
814.268	26918
814.41	26887
814.551	27020
814.692	27020
814.833	26918
814.974	26914
815.115	26914
815.256	26910
815.397	26811
815.539	26819
815.68	26769
815.821	26655
815.962	26830
816.103	26670
816.244	26568
816.385	26503
816.526	26492
816.666	26336
816.807	26221
816.948	26332
817.089	26298
817.23	26187
817.371	26301
817.512	26138
817.653	26191
817.793	26138
817.934	26324
818.075	26153
818.216	26259
818.356	26271
818.497	26031
818.638	26005
818.778	25883
818.919	25902
819.06	26027
819.2	26168
819.341	26050
819.481	26229
819.622	26393
819.762	26495
819.903	26457
820.043	26480
820.184	26252
820.324	26385
820.465	26370
820.605	26328
820.746	26199
820.886	26153
821.026	26317
821.167	26202
821.307	26393
821.447	26351
821.588	26077
821.728	25966
821.868	25822
822.008	25685
822.149	25487
822.289	25681
822.429	25411
822.569	25422
822.709	25472
822.849	25217
822.99	25244
823.13	25164
823.27	25141
823.41	24996
823.55	24951
823.69	25126
823.83	24962
823.97	25038
824.11	24981
824.25	24791
824.389	24829
824.529	24932
824.669	24722
824.809	24787
824.949	24814
825.089	24901
825.228	24894
825.368	24760
825.508	24719
825.648	24665
825.787	24745
825.927	24681
826.067	24677
826.206	24749
826.346	24810
826.485	24764
826.625	24810
826.765	24833
826.904	24677
827.044	24498
827.183	24490
827.323	24410
827.462	24467
827.601	24490
827.741	24319
827.88	24445
828.02	24266
828.159	24399
828.298	24357
828.437	24471
828.577	24300
828.716	24494
828.855	24380
828.994	24174
829.134	24171
829.273	24098
829.412	24098
829.551	24117
829.69	24098
829.829	24167
829.968	24235
830.107	24285
830.246	24098
830.385	24091
830.524	24068
830.663	23832
830.802	23821
830.941	23767
831.08	23756
831.219	23805
831.357	23813
831.496	24041
831.635	23866
831.774	23661
831.913	23570
832.051	23596
832.19	23695
832.329	23547
832.467	23406
832.606	23364
832.744	23421
832.883	23444
833.022	23429
833.16	23482
833.299	23516
833.437	23497
833.576	23471
833.714	23543
833.852	23452
833.991	23551
834.129	23619
834.267	23562
834.406	23482
834.544	23535
834.682	23524
834.821	23436
834.959	23665
835.097	23459
835.235	23531
835.373	23444
835.511	23372
835.65	23315
835.788	23490
835.926	23159
836.064	23235
836.202	23166
836.34	23250
836.478	23425
836.615	23315
836.753	23387
836.891	23292
837.029	23459
837.167	23349
837.305	23288
837.443	23193
837.58	23067
837.718	23277
837.856	23227
837.993	23075
838.131	23166
838.269	23132
838.406	23170
838.544	23029
838.681	22828
838.819	22873
838.956	22790
839.094	22694
839.231	22797
839.369	22824
839.506	23102
839.643	23029
839.781	22721
839.918	22573
840.055	22744
840.193	22694
840.33	22607
840.467	22588
840.604	22569
840.742	22900
840.879	22523
841.016	22546
841.153	22569
841.29	22691
841.427	22691
841.564	22634
841.701	22565
841.838	22577
841.975	22497
842.112	22554
842.249	22455
842.385	22310
842.522	22523
842.659	22508
842.796	22436
842.933	22459
843.069	22367
843.206	22192
843.343	22402
843.479	22462
843.616	22325
843.752	22143
843.889	22207
844.025	22405
844.162	22196
844.298	22135
844.435	22143
844.571	22128
844.708	22219
844.844	22200
844.98	22242
845.117	22234
845.253	22169
845.389	22006
845.525	22044
845.661	21991
845.798	21857
845.934	21979
846.07	21842
846.206	21930
846.342	22090
846.478	21884
846.614	21648
846.75	21610
846.886	21553
847.022	21663
847.158	21705
847.294	21682
847.429	21599
847.565	21561
847.701	21823
847.837	21492
847.972	21321
848.108	21458
848.244	21454
848.379	21211
848.515	21192
848.65	21291
848.786	21203
848.921	21176
849.057	21317
849.192	21310
849.328	21359
849.463	21192
849.598	21321
849.734	21207
849.869	21062
850.004	20937
850.14	21150
850.275	21024
850.41	20918
850.545	20971
850.68	21066
850.815	20994
850.95	20986
851.085	21207
851.22	21028
851.355	20986
851.49	20986
851.625	20914
851.76	20952
851.895	20864
852.03	20960
852.165	20979
852.299	20956
852.434	21093
852.569	20975
852.703	20941
852.838	20967
852.973	21077
853.107	21112
853.242	20864
853.376	20853
853.511	20765
853.645	20765
853.78	20979
853.914	20823
854.048	20765
854.183	20750
854.317	20804
854.451	20994
854.585	20864
854.72	20727
854.854	20746
854.988	20781
855.122	20804
855.256	20674
855.39	20716
855.524	20800
855.658	20887
855.792	20800
855.926	20811
856.06	20921
856.194	20971
856.327	20750
856.461	20830
856.595	20674
856.729	20746
856.862	20929
856.996	20815
857.13	20857
857.263	20838
857.397	21005
857.53	20891
857.664	20823
857.797	20971
857.931	20967
858.064	20876
858.197	20864
858.331	20743
858.464	20762
858.597	20727
858.731	20872
858.864	20815
858.997	20811
859.13	20838
859.263	20819
859.396	20876
859.529	20712
859.662	20678
859.795	20609
859.928	20929
860.061	20994
860.194	20994
860.327	20994
860.46	20838
860.592	20899
860.725	20956
860.858	21051
860.99	20773
861.123	20743
861.256	20727
861.388	20880
861.521	21469
861.653	20689
861.786	20514
861.918	20648
862.05	20644
862.183	20701
862.315	20773
862.447	20849
862.58	20625
862.712	20461
862.844	20484
862.976	20571
863.108	20552
863.24	20963
863.372	20434
863.504	20583
863.636	20518
863.768	20507
863.9	20636
864.032	20602
864.164	20469
864.296	20598
864.428	20602
864.559	20556
864.691	20579
864.823	20568
864.954	20549
865.086	20461
865.217	20377
865.349	20450
865.48	20571
865.612	20465
865.743	20587
865.875	20404
866.006	20377
866.137	20514
866.269	20400
866.4	20336
866.531	20415
866.662	20385
866.793	20339
866.924	20415
867.055	20400
867.186	20282
867.317	20396
867.448	20408
867.579	20389
867.71	20248
867.841	20362
867.972	20381
868.103	20305
868.233	20374
868.364	20503
868.495	20454
868.625	20541
868.756	20705
868.886	20602
869.017	20571
869.147	20682
869.278	20708
869.408	20583
869.539	20507
869.669	20632
869.799	20651
869.929	20636
870.06	20731
870.19	20963
870.32	20944
870.45	20998
870.58	21009
870.71	21150
870.84	21112
870.97	21066
871.1	20956
871.23	21131
871.36	21230
871.489	21203
871.619	21329
871.749	21241
871.879	21123
872.008	21374
872.138	21256
872.267	21203
872.397	21096
872.526	21043
872.656	21096
872.785	21085
872.915	21336
873.044	21249
873.173	21154
873.303	21283
873.432	21302
873.561	21260
873.69	21245
873.819	21154
873.948	21329
874.077	21222
874.206	21203
874.335	21241
874.464	21382
874.593	21424
874.722	21397
874.851	21447
874.979	21428
875.108	21564
875.237	21485
875.365	21466
875.494	21420
875.623	21492
875.751	21534
875.88	21606
876.008	21603
876.136	21644
876.265	21838
876.393	21960
876.521	21968
876.65	21838
876.778	21991
876.906	21808
877.034	21819
877.162	21956
877.29	21857
877.418	21937
877.546	21857
877.674	21857
877.802	21899
877.93	21876
878.058	21816
878.185	21793
878.313	21842
878.441	21789
878.568	21709
878.696	21838
878.824	21835
878.951	21823
879.079	22093
879.206	22124
879.333	21964
879.461	21808
879.588	22002
879.715	22002
879.842	22204
879.97	22002
880.097	21789
880.224	21656
880.351	21842
880.478	21679
880.605	21633
880.732	21751
880.859	21842
880.986	21724
881.112	21648
881.239	21660
881.366	21477
881.493	21336
881.619	21332
881.746	21355
881.872	21287
881.999	21325
882.125	21302
882.252	21294
882.378	21192
882.505	21302
882.631	21123
882.757	21043
882.883	21051
883.01	21100
883.136	20883
883.262	20925
883.388	20842
883.514	20998
883.64	21017
883.766	20967
883.892	20937
884.018	20811
884.143	21017
884.269	21028
884.395	20689
884.52	20598
884.646	20678
884.772	20571
884.897	20492
885.023	20613
885.148	20769
885.274	20762
885.399	20659
885.524	20629
885.65	20689
885.775	20682
885.9	20545
886.025	20804
886.15	20678
886.275	20625
886.4	20564
886.525	20590
886.65	20609
886.775	20636
886.9	20705
887.025	20830
887.149	20579
887.274	20465
887.399	20408
887.523	20412
887.648	20351
887.773	20259
887.897	20461
888.021	20488
888.146	20351
888.27	20396
888.395	20415
888.519	20434
888.643	20450
888.767	20332
888.891	20180
889.015	20199
889.139	20263
889.263	20233
889.387	20339
889.511	20457
889.635	20396
889.759	20107
889.883	20100
890.006	20157
890.13	20317
890.254	20122
890.377	20161
890.501	20016
890.624	19932
890.748	19902
890.871	19852
890.995	19830
891.118	19772
891.241	19731
891.364	19883
891.488	19837
891.611	19765
891.734	19738
891.857	19826
891.98	19738
892.103	19932
892.226	19837
892.349	19674
892.471	19613
892.594	19753
892.717	19715
892.839	19662
892.962	19750
893.085	19765
893.207	19765
893.33	19601
893.452	19670
893.575	19643
893.697	19643
893.819	19830
893.941	19967
894.064	19856
894.186	19674
894.308	19582
894.43	19693
894.552	19871
894.674	19742
894.796	19518
894.918	19620
895.04	19605
895.161	19784
895.283	19731
895.405	19563
895.526	19689
895.648	19635
895.769	19742
895.891	19715
896.012	19643
896.134	19712
896.255	19780
896.376	19670
896.498	19708
896.619	19852
896.74	19761
896.861	19723
896.982	19982
897.103	20081
897.224	19856
897.345	19925
897.466	19807
897.587	19890
897.708	20058
897.828	19906
897.949	19791
898.07	19772
898.19	19849
898.311	20088
898.431	19883
898.552	19902
898.672	20065
898.792	19959
898.913	19982
899.033	19890
899.153	19750
899.273	19761
899.393	19708
899.513	19712
899.633	19761
899.753	19635
899.873	19639
899.993	19693
900.113	19605
900.232	19605
900.352	19556
900.472	19556
900.591	19491
900.711	19502
900.83	19377
900.95	19453
901.069	19578
901.189	19480
901.308	19103
901.427	18985
901.546	19145
901.665	19145
901.784	19069
901.904	18943
902.023	18848
902.141	18719
902.26	18734
902.379	18574
902.498	18608
902.617	18441
902.735	18574
902.854	18677
902.973	18483
903.091	18403
903.21	18209
903.328	18258
903.446	18232
903.565	18140
903.683	18015
903.801	17988
903.919	18003
904.038	18057
904.156	17920
904.274	17817
904.392	17824
904.51	17832
904.627	17920
904.745	17836
904.863	17893
904.981	17646
905.098	17509
905.216	17471
905.334	17528
905.451	17455
905.569	17360
905.686	17573
905.803	17433
905.921	17322
906.038	17410
906.155	17212
906.272	17216
906.389	17277
906.506	17094
906.623	16999
906.74	17014
906.857	17003
906.974	17060
907.091	17045
907.208	17227
907.324	16980
907.441	16968
907.557	16755
907.674	16748
907.79	16664
907.907	16744
908.023	16824
908.139	16767
908.256	16812
908.372	16767
908.488	16710
908.604	16485
908.72	16489
908.836	16527
908.952	16485
909.068	16573
909.184	16618
909.3	16459
909.415	16504
909.531	16402
909.647	16219
909.762	16166
909.878	16306
909.993	16200
910.108	16128
910.224	16162
910.339	16204
910.454	15994
910.57	16025
910.685	15964
910.8	16223
910.915	16139
911.03	16029
911.145	15739
911.259	15827
911.374	15770
911.489	15755
911.604	15694
911.718	15599
911.833	15614
911.947	15389
912.062	15488
912.176	15553
912.291	15686
912.405	15542
912.519	15781
912.633	15701
912.748	15599
912.862	15500
912.976	15332
913.09	15374
913.204	15370
913.318	15386
913.431	15408
913.545	15450
913.659	15382
913.772	15401
913.886	15207
914	15131
914.113	15230
914.226	15329
914.34	15176
914.453	14998
914.566	15256
914.68	15013
914.793	15055
914.906	14925
915.019	14823
915.132	14655
915.245	14895
915.358	14834
915.47	14720
915.583	14724
915.696	14720
915.809	14914
915.921	14872
916.034	14819
916.146	14632
916.259	14724
916.371	14682
916.483	14807
916.595	14625
916.708	14640
916.82	14640
916.932	14571
917.044	14606
917.156	14568
917.268	14476
917.38	14495
917.491	14419
917.603	14492
917.715	14461
917.826	14594
917.938	14450
918.049	14309
918.161	14476
918.272	14499
918.384	14514
918.495	14423
918.606	14168
918.717	14187
918.828	14256
918.939	14149
919.05	14149
919.161	14172
919.272	13974
919.383	14039
919.494	14278
919.604	14377
919.715	14218
919.826	14130
919.936	14180
920.047	14286
920.157	14218
920.267	14400
920.378	14172
920.488	14107
920.598	14347
920.708	14442
920.818	14191
920.928	14355
921.038	14393
921.148	14381
921.258	14046
921.368	14058
921.477	13917
921.587	13982
921.697	13830
921.806	13906
921.916	13837
922.025	13594
922.134	13655
922.244	13537
922.353	13636
922.462	13537
922.571	13396
922.68	13236
922.789	13232
922.898	13225
923.007	13114
923.116	13266
923.224	13221
923.333	13213
923.442	13141
923.55	13118
923.659	13023
923.767	13149
923.876	12951
923.984	13149
924.092	12916
924.201	12958
924.309	12993
924.417	12932
924.525	12894
924.633	12909
924.741	13734
924.849	12711
924.956	12806
925.064	12662
925.172	12494
925.279	12673
925.387	12673
925.494	12612
925.602	12726
925.709	12711
925.816	12525
925.924	12593
926.031	12738
926.138	12623
926.245	12726
926.352	12494
926.459	12677
926.566	12673
926.673	12525
926.779	12388
926.886	12441
926.993	12247
927.099	12239
927.206	12155
927.312	12129
927.419	12281
927.525	12209
927.631	12342
927.737	12068
927.843	12152
927.95	12057
928.056	12091
928.162	12060
928.267	12136
928.373	12578
928.479	12205
928.585	11904
928.69	12011
928.796	12098
928.901	11980
929.007	11790
929.112	11958
929.218	11946
929.323	11741
929.428	11737
929.533	11893
929.638	11805
929.743	11714
929.848	11798
929.953	11817
930.058	11649
930.163	11505
930.267	11524
930.372	11672
930.477	11414
930.581	11615
930.685	11501
930.79	11356
930.894	11303
930.998	11337
931.103	11505
931.207	11075
931.311	11041
931.415	10915
931.519	10820
931.623	10706
