Data from test_V78500241_2434.txt Node
Date: Fri Mar 25 15:26:48 CST 2022
User: usil
Spectrometer: V785-0024
Trigger mode: 0
Integration Time (sec): 4.000000E-1
Scans to average: 1
Nonlinearity correction enabled: false
Boxcar width: 0
Storing dark spectrum: false
XAxis mode: Wavelengths
Number of Pixels in Spectrum: 1024
>>>>>Begin Spectral Data<<<<<
801.071	27085
801.214	27047
801.356	26861
801.499	26838
801.641	26571
801.783	26518
801.926	26651
802.068	26598
802.211	26556
802.353	26431
802.496	26229
802.638	26221
802.78	26244
802.923	26119
803.065	26210
803.208	26210
803.35	26218
803.492	26476
803.635	26328
803.777	26244
803.919	26419
804.061	26727
804.204	26423
804.346	26476
804.488	26385
804.63	26381
804.773	26252
804.915	26343
805.057	26461
805.199	26366
805.341	26412
805.483	26571
805.626	26530
805.768	26495
805.91	26476
806.052	26754
806.194	26370
806.336	26731
806.478	26560
806.62	26590
806.762	26632
806.904	26785
807.046	27051
807.188	26921
807.33	27005
807.472	26823
807.614	26857
807.756	26861
807.898	26815
808.04	26754
808.182	26735
808.324	26785
808.465	26754
808.607	26994
808.749	27089
808.891	27329
809.033	27389
809.174	27138
809.316	27070
809.458	27096
809.6	27001
809.741	27146
809.883	27294
810.025	27344
810.166	27317
810.308	27473
810.45	27233
810.591	27214
810.733	27062
810.875	26975
811.016	26944
811.158	26933
811.299	27138
811.441	27279
811.582	27199
811.724	26990
811.865	27100
812.007	27058
812.148	27017
812.29	27192
812.431	27165
812.573	27302
812.714	27393
812.855	27622
812.997	27671
813.138	27846
813.279	27762
813.421	27644
813.562	27454
813.703	27367
813.845	27272
813.986	27051
814.127	26811
814.268	26731
814.41	26712
814.551	26758
814.692	26678
814.833	26785
814.974	26621
815.115	26777
815.256	26625
815.397	26651
815.539	26602
815.68	26465
815.821	26343
815.962	26693
816.103	26514
816.244	26305
816.385	26225
816.526	26164
816.666	26111
816.807	25917
816.948	26073
817.089	26134
817.23	26054
817.371	26054
817.512	25989
817.653	25974
817.793	26008
817.934	26043
818.075	26054
818.216	26054
818.356	25978
818.497	25811
818.638	25757
818.778	25795
818.919	25814
819.06	25807
819.2	25947
819.341	25826
819.481	25902
819.622	26149
819.762	26282
819.903	26237
820.043	26111
820.184	26111
820.324	26088
820.465	26073
820.605	26088
820.746	26122
820.886	25883
821.026	26012
821.167	26024
821.307	26058
821.447	25978
821.588	26065
821.728	25761
821.868	25594
822.008	25441
822.149	25491
822.289	25453
822.429	25221
822.569	25213
822.709	25145
822.849	25034
822.99	25023
823.13	24954
823.27	24996
823.41	24764
823.55	24612
823.69	24825
823.83	24719
823.97	24544
824.11	24486
824.25	24559
824.389	24589
824.529	24585
824.669	24555
824.809	24681
824.949	24665
825.089	24654
825.228	24738
825.368	24342
825.508	24418
825.648	24407
825.787	24494
825.927	24471
826.067	24418
826.206	24437
826.346	24399
826.485	24479
826.625	24407
826.765	24513
826.904	24509
827.044	24247
827.183	24144
827.323	24190
827.462	24266
827.601	24171
827.741	24232
827.88	24186
828.02	23973
828.159	24163
828.298	24125
828.437	24258
828.577	24026
828.716	24178
828.855	24079
828.994	23813
829.134	23786
829.273	23980
829.412	23840
829.551	23714
829.69	23912
829.829	23893
829.968	23977
830.107	23893
830.246	23980
830.385	23912
830.524	23756
830.663	23790
830.802	23520
830.941	23524
831.08	23516
831.219	23649
831.357	23486
831.496	23767
831.635	23482
831.774	23539
831.913	23322
832.051	23307
832.19	23216
832.329	23288
832.467	23067
832.606	23208
832.744	23216
832.883	23102
833.022	23143
833.16	23254
833.299	23208
833.437	23208
833.576	23200
833.714	23155
833.852	23258
833.991	23193
834.129	23311
834.267	23326
834.406	23356
834.544	23261
834.682	23277
834.821	23178
834.959	23448
835.097	23166
835.235	23299
835.373	23174
835.511	23124
835.65	23113
835.788	23143
835.926	22934
836.064	22927
836.202	23006
836.34	23048
836.478	23185
836.615	23037
836.753	23185
836.891	23018
837.029	23159
837.167	23006
837.305	22991
837.443	22987
837.58	22900
837.718	22991
837.856	22946
837.993	22816
838.131	23067
838.269	22828
838.406	22828
838.544	22858
838.681	22599
838.819	22546
838.956	22489
839.094	22363
839.231	22516
839.369	22535
839.506	22942
839.643	22542
839.781	22398
839.918	22405
840.055	22413
840.193	22337
840.33	22249
840.467	22428
840.604	22329
840.742	22557
840.879	22303
841.016	22268
841.153	22211
841.29	22382
841.427	22287
841.564	22382
841.701	22367
841.838	22226
841.975	22147
842.112	22284
842.249	22135
842.385	21991
842.522	22238
842.659	22128
842.796	22139
842.933	22074
843.069	22025
843.206	22128
843.343	22158
843.479	22070
843.616	22097
843.752	21873
843.889	21869
844.025	22150
844.162	21865
844.298	21861
844.435	21854
844.571	21819
844.708	21922
844.844	22067
844.98	21983
845.117	21968
845.253	21835
845.389	21739
845.525	21774
845.661	21747
845.798	21709
845.934	21686
846.07	21568
846.206	21762
846.342	21720
846.478	21511
846.614	21439
846.75	21275
846.886	21306
847.022	21424
847.158	21382
847.294	21462
847.429	21416
847.565	21450
847.701	21576
847.837	21245
847.972	21074
848.108	21138
848.244	21108
848.379	21089
848.515	20960
848.65	20982
848.786	20967
848.921	20941
849.057	21028
849.192	20937
849.328	20998
849.463	20864
849.598	20918
849.734	20796
849.869	20716
850.004	20712
850.14	20785
850.275	20750
850.41	20781
850.545	20533
850.68	20743
850.815	20796
850.95	20796
851.085	20815
851.22	20811
851.355	20701
851.49	20727
851.625	20659
851.76	20659
851.895	20636
852.03	20609
852.165	20739
852.299	20724
852.434	20750
852.569	20785
852.703	20693
852.838	20807
852.973	20853
853.107	20872
853.242	20632
853.376	20526
853.511	20480
853.645	20488
853.78	20625
853.914	20579
854.048	20507
854.183	20583
854.317	20492
854.451	20739
854.585	20564
854.72	20495
854.854	20648
854.988	20511
855.122	20590
855.256	20469
855.39	20590
855.524	20670
855.658	20651
855.792	20495
855.926	20549
856.06	20636
856.194	20587
856.327	20549
856.461	20476
856.595	20495
856.729	20499
856.862	20640
856.996	20602
857.13	20613
857.263	20716
857.397	20712
857.53	20495
857.664	20560
857.797	20644
857.931	20537
858.064	20575
858.197	20731
858.331	20530
858.464	20454
858.597	20412
858.731	20541
858.864	20636
858.997	20594
859.13	20590
859.263	20537
859.396	20629
859.529	20689
859.662	20511
859.795	20568
859.928	20552
860.061	20659
860.194	20743
860.327	20552
860.46	20492
860.592	20731
860.725	20682
860.858	20621
860.99	20590
861.123	20480
861.256	20492
861.388	20503
861.521	21104
861.653	20480
861.786	20343
861.918	20362
862.05	20461
862.183	20541
862.315	20442
862.447	20598
862.58	20457
862.712	20259
862.844	20161
862.976	20400
863.108	20396
863.24	20625
863.372	20199
863.504	20385
863.636	20309
863.768	20240
863.9	20259
864.032	20122
864.164	20225
864.296	20309
864.428	20313
864.559	20370
864.691	20381
864.823	20278
864.954	20358
865.086	20263
865.217	20183
865.349	20202
865.48	20244
865.612	20153
865.743	20176
865.875	20206
866.006	20161
866.137	20191
866.269	20195
866.4	20073
866.531	20073
866.662	20119
866.793	20039
866.924	20126
867.055	20172
867.186	20122
867.317	20046
867.448	20016
867.579	20107
867.71	19928
867.841	20012
867.972	20153
868.103	19993
868.233	20084
868.364	20320
868.495	20164
868.625	20240
868.756	20400
868.886	20393
869.017	20358
869.147	20473
869.278	20571
869.408	20343
869.539	20454
869.669	20431
869.799	20552
869.929	20530
870.06	20526
870.19	20659
870.32	20655
870.45	20632
870.58	20819
870.71	20880
870.84	20895
870.97	20587
871.1	20731
871.23	21005
871.36	20849
871.489	20906
871.619	20944
871.749	20895
871.879	20906
872.008	21009
872.138	20887
872.267	20944
872.397	20845
872.526	20754
872.656	20743
872.785	20804
872.915	21028
873.044	21123
873.173	20982
873.303	20971
873.432	21135
873.561	21085
873.69	21058
873.819	20986
873.948	21089
874.077	21013
874.206	20960
874.335	21051
874.464	21131
874.593	21108
874.722	21176
874.851	21393
874.979	21249
875.108	21291
875.237	21203
875.365	21252
875.494	21188
875.623	21294
875.751	21150
875.88	21294
876.008	21252
876.136	21302
876.265	21717
876.393	21778
876.521	21614
876.65	21720
876.778	21648
876.906	21614
877.034	21625
877.162	21447
877.29	21477
877.418	21625
877.546	21641
877.674	21625
877.802	21663
877.93	21671
878.058	21496
878.185	21610
878.313	21534
878.441	21663
878.568	21420
878.696	21466
878.824	21580
878.951	21671
879.079	21667
879.206	21930
879.333	21709
879.461	21610
879.588	21576
879.715	21751
879.842	21827
879.97	21660
880.097	21363
880.224	21363
880.351	21515
880.478	21473
880.605	21222
880.732	21462
880.859	21629
880.986	21477
881.112	21443
881.239	21184
881.366	21096
881.493	21020
881.619	21001
881.746	21020
881.872	20971
881.999	21020
882.125	20956
882.252	21051
882.378	20971
882.505	21154
882.631	20971
882.757	20765
882.883	20773
883.01	20720
883.136	20655
883.262	20495
883.388	20514
883.514	20644
883.64	20648
883.766	20640
883.892	20320
884.018	20473
884.143	20583
884.269	20727
884.395	20522
884.52	20419
884.646	20434
884.772	20298
884.897	20183
885.023	20351
885.148	20438
885.274	20461
885.399	20450
885.524	20385
885.65	20275
885.775	20393
885.9	20339
886.025	20442
886.15	20389
886.275	20324
886.4	20199
886.525	20351
886.65	20317
886.775	20294
886.9	20568
887.025	20632
887.149	20278
887.274	20153
887.399	20149
887.523	20096
887.648	20092
887.773	19967
887.897	20328
888.021	20237
888.146	20050
888.27	20176
888.395	20259
888.519	20180
888.643	20062
888.767	20115
888.891	20031
889.015	20043
889.139	19917
889.263	19822
889.387	20016
889.511	20103
889.635	20043
889.759	19890
889.883	19811
890.006	19982
890.13	20062
890.254	19879
890.377	19925
890.501	19753
890.624	19620
890.748	19734
890.871	19502
890.995	19632
891.118	19430
891.241	19453
891.364	19480
891.488	19571
891.611	19567
891.734	19529
891.857	19464
891.98	19483
892.103	19556
892.226	19609
892.349	19499
892.471	19358
892.594	19499
892.717	19510
892.839	19365
892.962	19308
893.085	19537
893.207	19335
893.33	19244
893.452	19419
893.575	19457
893.697	19350
893.819	19662
893.941	19567
894.064	19491
894.186	19289
894.308	19403
894.43	19525
894.552	19613
894.674	19422
894.796	19384
894.918	19445
895.04	19445
895.161	19514
895.283	19438
895.405	19324
895.526	19514
895.648	19468
895.769	19377
895.891	19556
896.012	19518
896.134	19525
896.255	19491
896.376	19415
896.498	19392
896.619	19457
896.74	19476
896.861	19514
896.982	19719
897.103	19731
897.224	19731
897.345	19514
897.466	19483
897.587	19727
897.708	19738
897.828	19738
897.949	19559
898.07	19457
898.19	19613
898.311	19776
898.431	19605
898.552	19769
898.672	19746
898.792	19670
898.913	19765
899.033	19575
899.153	19537
899.273	19411
899.393	19495
899.513	19476
899.633	19308
899.753	19400
899.873	19411
899.993	19384
900.113	19365
900.232	19480
900.352	19327
900.472	19308
900.591	19206
900.711	19251
900.83	19213
900.95	19358
901.069	19247
901.189	19046
901.308	18837
901.427	18852
901.546	18764
901.665	18856
901.784	18829
901.904	18711
902.023	18601
902.141	18399
902.26	18365
902.379	18490
902.498	18296
902.617	18201
902.735	18433
902.854	18346
902.973	18281
903.091	18068
903.21	18019
903.328	18152
903.446	17878
903.565	17748
903.683	17874
903.801	17783
903.919	17783
904.038	17733
904.156	17592
904.274	17680
904.392	17657
904.51	17551
904.627	17562
904.745	17672
904.863	17665
904.981	17398
905.098	17250
905.216	17296
905.334	17318
905.451	17330
905.569	17277
905.686	17307
905.803	17250
905.921	17071
906.038	17105
906.155	16984
906.272	16923
906.389	16854
906.506	16881
906.623	16885
906.74	16854
906.857	16630
906.974	16702
907.091	16843
907.208	16984
907.324	16698
907.441	16599
907.557	16550
907.674	16516
907.79	16561
907.907	16497
908.023	16409
908.139	16577
908.256	16561
908.372	16485
908.488	16382
908.604	16204
908.72	16211
908.836	16230
908.952	16276
909.068	16306
909.184	16405
909.3	16219
909.415	16230
909.531	16322
909.647	16116
909.762	15964
909.878	15960
909.993	15994
910.108	15899
910.224	15907
910.339	15915
910.454	15892
910.57	15759
910.685	15698
910.8	15835
910.915	15960
911.03	15759
911.145	15561
911.259	15557
911.374	15542
911.489	15462
911.604	15454
911.718	15351
911.833	15473
911.947	15306
912.062	15123
912.176	15302
912.291	15291
912.405	15313
912.519	15420
912.633	15466
912.748	15287
912.862	15283
912.976	15138
913.09	14979
913.204	15131
913.318	15211
913.431	15214
913.545	15180
913.659	15199
913.772	15104
913.886	15081
914	14975
914.113	15077
914.226	15150
914.34	14998
914.453	14868
914.566	14861
914.68	14902
914.793	14868
914.906	14678
915.019	14587
915.132	14590
915.245	14575
915.358	14667
915.47	14648
915.583	14594
915.696	14579
915.809	14667
915.921	14708
916.034	14469
916.146	14621
916.259	14488
916.371	14526
916.483	14537
916.595	14484
916.708	14438
916.82	14419
916.932	14492
917.044	14434
917.156	14298
917.268	14149
917.38	14263
917.491	14199
917.603	14301
917.715	14320
917.826	14256
917.938	14214
918.049	14062
918.161	14161
918.272	14362
918.384	14374
918.495	14119
918.606	14065
918.717	13868
918.828	14027
918.939	14054
919.05	13887
919.161	13997
919.272	13715
919.383	13925
919.494	14065
919.604	14199
919.715	14088
919.826	13913
919.936	13993
920.047	14016
920.157	13967
920.267	14153
920.378	13925
920.488	13909
920.598	14225
920.708	14298
920.818	14119
920.928	14081
921.038	14278
921.148	14248
921.258	13902
921.368	13841
921.477	13795
921.587	13658
921.697	13693
921.806	13727
921.916	13537
922.025	13419
922.134	13339
922.244	13369
922.353	13400
922.462	13350
922.571	13152
922.68	13107
922.789	13110
922.898	13137
923.007	12970
923.116	12981
923.224	13038
923.333	12924
923.442	12844
923.55	12894
923.659	12817
923.767	12920
923.876	12840
923.984	12916
924.092	12703
924.201	12856
924.309	12696
924.417	12787
924.525	12753
924.633	12791
924.741	13582
924.849	12544
924.956	12616
925.064	12483
925.172	12369
925.279	12467
925.387	12475
925.494	12494
925.602	12623
925.709	12494
925.816	12410
925.924	12437
926.031	12525
926.138	12464
926.245	12422
926.352	12304
926.459	12464
926.566	12498
926.673	12407
926.779	12232
926.886	12224
926.993	12152
927.099	12049
927.206	12068
927.312	11920
927.419	12098
927.525	12129
927.631	12068
927.737	12026
927.843	11897
927.95	11794
928.056	11794
928.162	11885
928.267	11939
928.373	12601
928.479	12026
928.585	11756
928.69	11843
928.796	11946
928.901	11771
929.007	11695
929.112	11764
929.218	11764
929.323	11634
929.428	11589
929.533	11783
929.638	11547
929.743	11592
929.848	11600
929.953	11520
930.058	11501
930.163	11318
930.267	11353
930.372	11440
930.477	11307
930.581	11558
930.685	11398
930.79	11220
930.894	11197
930.998	11193
931.103	11296
931.207	10987
931.311	10911
931.415	10816
931.519	10649
931.623	10535
