Data from test_V78500241_213.txt Node
Date: Fri Mar 25 15:11:20 CST 2022
User: usil
Spectrometer: V785-0024
Trigger mode: 0
Integration Time (sec): 4.000000E-1
Scans to average: 1
Nonlinearity correction enabled: false
Boxcar width: 0
Storing dark spectrum: false
XAxis mode: Wavelengths
Number of Pixels in Spectrum: 1024
>>>>>Begin Spectral Data<<<<<
801.071	27599
801.214	27751
801.356	27431
801.499	27439
801.641	27279
801.783	27249
801.926	27226
802.068	27161
802.211	27077
802.353	27157
802.496	26975
802.638	26880
802.78	26826
802.923	26864
803.065	26769
803.208	26769
803.35	26918
803.492	26864
803.635	26937
803.777	26857
803.919	26921
804.061	27272
804.204	26994
804.346	26887
804.488	26716
804.63	26891
804.773	26682
804.915	26872
805.057	26899
805.199	26910
805.341	26975
805.483	26849
805.626	26998
805.768	26857
805.91	26925
806.052	27001
806.194	27005
806.336	27294
806.478	26963
806.62	26868
806.762	27146
806.904	27218
807.046	27511
807.188	27279
807.33	27374
807.472	27302
807.614	27192
807.756	27382
807.898	27138
808.04	27096
808.182	27203
808.324	27157
808.465	27222
808.607	27325
808.749	27424
808.891	27667
809.033	27724
809.174	27679
809.316	27587
809.458	27698
809.6	27431
809.741	27614
809.883	27656
810.025	27800
810.166	27785
810.308	27831
810.45	27652
810.591	27812
810.733	27496
810.875	27462
811.016	27424
811.158	27294
811.299	27561
811.441	27663
811.582	27641
811.724	27431
811.865	27473
812.007	27370
812.148	27378
812.29	27401
812.431	27629
812.573	27781
812.714	27686
812.855	27937
812.997	27987
813.138	28166
813.279	27972
813.421	27994
813.562	27991
813.703	27778
813.845	27549
813.986	27374
814.127	27135
814.268	27043
814.41	26948
814.551	27058
814.692	27161
814.833	27032
814.974	26918
815.115	27085
815.256	26998
815.397	26925
815.539	26868
815.68	26800
815.821	26815
815.962	26952
816.103	26891
816.244	26598
816.385	26648
816.526	26552
816.666	26412
816.807	26119
816.948	26389
817.089	26381
817.23	26412
817.371	26355
817.512	26309
817.653	26301
817.793	26134
817.934	26324
818.075	26233
818.216	26225
818.356	26115
818.497	26008
818.638	25909
818.778	25963
818.919	26005
819.06	26077
819.2	26267
819.341	26180
819.481	26187
819.622	26324
819.762	26434
819.903	26549
820.043	26389
820.184	26210
820.324	26362
820.465	26377
820.605	26305
820.746	26210
820.886	26214
821.026	26343
821.167	26157
821.307	26305
821.447	26206
821.588	26050
821.728	25932
821.868	25807
822.008	25677
822.149	25651
822.289	25719
822.429	25304
822.569	25274
822.709	25400
822.849	25095
822.99	25160
823.13	25202
823.27	25126
823.41	24844
823.55	24817
823.69	25053
823.83	24840
823.97	24840
824.11	24711
824.25	24696
824.389	24677
824.529	24821
824.669	24745
824.809	24863
824.949	24806
825.089	24882
825.228	24730
825.368	24661
825.508	24639
825.648	24460
825.787	24597
825.927	24574
826.067	24513
826.206	24578
826.346	24646
826.485	24528
826.625	24521
826.765	24509
826.904	24578
827.044	24296
827.183	24330
827.323	24369
827.462	24281
827.601	24243
827.741	24251
827.88	24140
828.02	24136
828.159	24197
828.298	24186
828.437	24338
828.577	24163
828.716	24220
828.855	24083
828.994	23961
829.134	24038
829.273	23859
829.412	23901
829.551	23882
829.69	23950
829.829	23866
829.968	23954
830.107	24015
830.246	23980
830.385	23851
830.524	23824
830.663	23661
830.802	23573
830.941	23509
831.08	23474
831.219	23520
831.357	23630
831.496	23672
831.635	23463
831.774	23398
831.913	23356
832.051	23277
832.19	23376
832.329	23265
832.467	23368
832.606	23121
832.744	23071
832.883	23208
833.022	23151
833.16	23246
833.299	23166
833.437	23223
833.576	23254
833.714	23140
833.852	23315
833.991	23185
834.129	23315
834.267	23341
834.406	23265
834.544	23242
834.682	23147
834.821	23151
834.959	23307
835.097	23181
835.235	23159
835.373	23155
835.511	23235
835.65	23044
835.788	22965
835.926	22942
836.064	22858
836.202	22843
836.34	23018
836.478	22946
836.615	23136
836.753	22934
836.891	23147
837.029	23143
837.167	22923
837.305	22877
837.443	22976
837.58	22999
837.718	22980
837.856	23098
837.993	22744
838.131	22862
838.269	22763
838.406	22679
838.544	22637
838.681	22493
838.819	22481
838.956	22405
839.094	22299
839.231	22348
839.369	22451
839.506	22729
839.643	22557
839.781	22348
839.918	22242
840.055	22204
840.193	22253
840.33	22363
840.467	22143
840.604	22367
840.742	22550
840.879	22181
841.016	22150
841.153	22185
841.29	22242
841.427	22325
841.564	22242
841.701	22329
841.838	22207
841.975	22139
842.112	22036
842.249	22017
842.385	21937
842.522	22166
842.659	22067
842.796	21994
842.933	21892
843.069	21994
843.206	21998
843.343	21983
843.479	22021
843.616	21949
843.752	21762
843.889	21724
844.025	21770
844.162	21728
844.298	21899
844.435	21800
844.571	21660
844.708	21762
844.844	21911
844.98	21800
845.117	21857
845.253	21637
845.389	21549
845.525	21587
845.661	21511
845.798	21428
845.934	21553
846.07	21481
846.206	21534
846.342	21511
846.478	21473
846.614	21275
846.75	21074
846.886	21081
847.022	21245
847.158	21256
847.294	21260
847.429	21218
847.565	21192
847.701	21454
847.837	20906
847.972	20921
848.108	21051
848.244	20952
848.379	20842
848.515	20724
848.65	20792
848.786	20861
848.921	20811
849.057	20902
849.192	20979
849.328	20804
849.463	20674
849.598	20731
849.734	20663
849.869	20522
850.004	20389
850.14	20511
850.275	20431
850.41	20385
850.545	20499
850.68	20412
850.815	20533
850.95	20564
851.085	20663
851.22	20560
851.355	20492
851.49	20431
851.625	20461
851.76	20457
851.895	20389
852.03	20434
852.165	20507
852.299	20621
852.434	20579
852.569	20492
852.703	20488
852.838	20514
852.973	20632
853.107	20526
853.242	20419
853.376	20339
853.511	20172
853.645	20278
853.78	20389
853.914	20290
854.048	20317
854.183	20221
854.317	20347
854.451	20522
854.585	20431
854.72	20347
854.854	20438
854.988	20267
855.122	20294
855.256	20122
855.39	20267
855.524	20301
855.658	20362
855.792	20271
855.926	20278
856.06	20446
856.194	20309
856.327	20252
856.461	20317
856.595	20286
856.729	20347
856.862	20396
856.996	20412
857.13	20336
857.263	20434
857.397	20423
857.53	20362
857.664	20324
857.797	20366
857.931	20412
858.064	20412
858.197	20362
858.331	20267
858.464	20240
858.597	20225
858.731	20275
858.864	20145
858.997	20218
859.13	20347
859.263	20301
859.396	20290
859.529	20237
859.662	20282
859.795	20210
859.928	20240
860.061	20347
860.194	20461
860.327	20332
860.46	20278
860.592	20374
860.725	20427
860.858	20461
860.99	20263
861.123	20259
861.256	20206
861.388	20328
861.521	20975
861.653	20084
861.786	19970
861.918	20073
862.05	20237
862.183	20309
862.315	20244
862.447	20366
862.58	20210
862.712	20039
862.844	20020
862.976	20195
863.108	20119
863.24	20511
863.372	19883
863.504	20001
863.636	19909
863.768	20005
863.9	19974
864.032	19936
864.164	19837
864.296	20005
864.428	19944
864.559	20050
864.691	20073
864.823	20043
864.954	19906
865.086	19967
865.217	19894
865.349	19833
865.48	19925
865.612	19879
865.743	19906
865.875	19909
866.006	19811
866.137	19803
866.269	19887
866.4	19780
866.531	19799
866.662	19849
866.793	19837
866.924	19879
867.055	19909
867.186	19864
867.317	19871
867.448	19643
867.579	19742
867.71	19841
867.841	19826
867.972	19879
868.103	19830
868.233	19868
868.364	19822
868.495	19909
868.625	20100
868.756	20119
868.886	19917
869.017	20024
869.147	20202
869.278	20164
869.408	20149
869.539	20100
869.669	20149
869.799	20081
869.929	20096
870.06	20153
870.19	20339
870.32	20415
870.45	20358
870.58	20343
870.71	20609
870.84	20579
870.97	20332
871.1	20571
871.23	20575
871.36	20663
871.489	20621
871.619	20678
871.749	20640
871.879	20739
872.008	20800
872.138	20583
872.267	20674
872.397	20434
872.526	20545
872.656	20533
872.785	20530
872.915	20609
873.044	20739
873.173	20674
873.303	20731
873.432	20682
873.561	20845
873.69	20716
873.819	20625
873.948	20777
874.077	20735
874.206	20678
874.335	20686
874.464	20830
874.593	20842
874.722	20845
874.851	20975
874.979	20960
875.108	20967
875.237	20872
875.365	20796
875.494	20971
875.623	20906
875.751	20960
875.88	21001
876.008	21001
876.136	21157
876.265	21249
876.393	21458
876.521	21378
876.65	21420
876.778	21370
876.906	21405
877.034	21306
877.162	21272
877.29	21142
877.418	21321
877.546	21374
877.674	21252
877.802	21344
877.93	21329
878.058	21237
878.185	21294
878.313	21146
878.441	21332
878.568	21085
878.696	21203
878.824	21226
878.951	21420
879.079	21553
879.206	21599
879.333	21488
879.461	21367
879.588	21405
879.715	21447
879.842	21473
879.97	21256
880.097	21081
880.224	21032
880.351	21241
880.478	21116
880.605	21150
880.732	21066
880.859	21332
880.986	21150
881.112	21135
881.239	21093
881.366	20864
881.493	20834
881.619	20655
881.746	20720
881.872	20590
881.999	20606
882.125	20781
882.252	20708
882.378	20636
882.505	20811
882.631	20560
882.757	20476
882.883	20495
883.01	20412
883.136	20454
883.262	20259
883.388	20343
883.514	20396
883.64	20495
883.766	20374
883.892	20187
884.018	20282
884.143	20412
884.269	20545
884.395	20176
884.52	20077
884.646	20020
884.772	19951
884.897	19974
885.023	20081
885.148	20195
885.274	20301
885.399	20221
885.524	20199
885.65	20081
885.775	20119
885.9	20138
886.025	20161
886.15	20130
886.275	20016
886.4	19875
886.525	20039
886.65	19955
886.775	19951
886.9	20233
887.025	20256
887.149	20024
887.274	19928
887.399	19811
887.523	19913
887.648	19879
887.773	19750
887.897	20016
888.021	19864
888.146	19689
888.27	19894
888.395	19944
888.519	19921
888.643	19837
888.767	19944
888.891	19788
889.015	19708
889.139	19696
889.263	19597
889.387	19727
889.511	19818
889.635	19811
889.759	19609
889.883	19616
890.006	19620
890.13	19548
890.254	19544
890.377	19480
890.501	19491
890.624	19377
890.748	19460
890.871	19346
890.995	19225
891.118	19183
891.241	19190
891.364	19312
891.488	19293
891.611	19232
891.734	19217
891.857	19293
891.98	19327
892.103	19213
892.226	19240
892.349	19069
892.471	19084
892.594	19156
892.717	19171
892.839	19183
892.962	19118
893.085	19213
893.207	19171
893.33	18973
893.452	19137
893.575	19168
893.697	19187
893.819	19278
893.941	19282
894.064	19354
894.186	19122
894.308	19015
894.43	19308
894.552	19388
894.674	19346
894.796	19031
894.918	19194
895.04	19080
895.161	19228
895.283	19217
895.405	19160
895.526	19240
895.648	19103
895.769	19198
895.891	19335
896.012	19312
896.134	19202
896.255	19194
896.376	19126
896.498	19183
896.619	19255
896.74	19152
896.861	19308
896.982	19567
897.103	19670
897.224	19483
897.345	19468
897.466	19487
897.587	19362
897.708	19521
897.828	19392
897.949	19331
898.07	19335
898.19	19358
898.311	19537
898.431	19369
898.552	19392
898.672	19491
898.792	19441
898.913	19350
899.033	19308
899.153	19244
899.273	19072
899.393	19069
899.513	19168
899.633	19126
899.753	19148
899.873	19152
899.993	19145
900.113	19034
900.232	19164
900.352	18981
900.472	19088
900.591	18913
900.711	18878
900.83	18970
900.95	19080
901.069	19008
901.189	18833
901.308	18627
901.427	18650
901.546	18483
901.665	18627
901.784	18578
901.904	18376
902.023	18403
902.141	18110
902.26	18079
902.379	18079
902.498	18068
902.617	18041
902.735	18106
902.854	17958
902.973	17916
903.091	17684
903.21	17779
903.328	17729
903.446	17608
903.565	17573
903.683	17512
903.801	17493
903.919	17474
904.038	17452
904.156	17292
904.274	17337
904.392	17322
904.51	17345
904.627	17303
904.745	17417
904.863	17410
904.981	17151
905.098	17010
905.216	17018
905.334	16987
905.451	17041
905.569	16942
905.686	16927
905.803	16908
905.921	16744
906.038	16957
906.155	16763
906.272	16649
906.389	16721
906.506	16523
906.623	16485
906.74	16542
906.857	16375
906.974	16470
907.091	16565
907.208	16596
907.324	16508
907.441	16489
907.557	16249
907.674	16272
907.79	16249
907.907	16169
908.023	16295
908.139	16200
908.256	16177
908.372	16147
908.488	15956
908.604	15899
908.72	15865
908.836	15930
908.952	15865
909.068	15873
909.184	16048
909.3	15854
909.415	16051
909.531	15918
909.647	15709
909.762	15717
909.878	15660
909.993	15663
910.108	15576
910.224	15648
910.339	15561
910.454	15542
910.57	15496
910.685	15401
910.8	15606
910.915	15622
911.03	15412
911.145	15332
911.259	15291
911.374	15203
911.489	15135
911.604	15142
911.718	14948
911.833	14948
911.947	14891
912.062	14754
912.176	14956
912.291	15001
912.405	14960
912.519	15127
912.633	15211
912.748	15123
912.862	14960
912.976	14819
913.09	14724
913.204	14743
913.318	14872
913.431	14906
913.545	14902
913.659	14853
913.772	14910
913.886	14701
914	14625
914.113	14731
914.226	14720
914.34	14682
914.453	14530
914.566	14716
914.68	14537
914.793	14568
914.906	14343
915.019	14256
915.132	14142
915.245	14259
915.358	14225
915.47	14214
915.583	14218
915.696	14317
915.809	14393
915.921	14385
916.034	14240
916.146	14225
916.259	14149
916.371	14202
916.483	14206
916.595	14084
916.708	14126
916.82	14161
916.932	14138
917.044	14020
917.156	14027
917.268	13921
917.38	13963
917.491	13967
917.603	13868
917.715	13986
917.826	14043
917.938	13982
918.049	13803
918.161	13837
918.272	13959
918.384	13925
918.495	13925
918.606	13719
918.717	13597
918.828	13742
918.939	13788
919.05	13658
919.161	13597
919.272	13445
919.383	13601
919.494	13765
919.604	13970
919.715	13727
919.826	13670
919.936	13693
920.047	13712
920.157	13708
920.267	13868
920.378	13655
920.488	13597
920.598	13860
920.708	13894
920.818	13864
920.928	13780
921.038	13997
921.148	13864
921.258	13636
921.368	13571
921.477	13464
921.587	13491
921.697	13304
921.806	13403
921.916	13255
922.025	13099
922.134	13065
922.244	13023
922.353	13145
922.462	13057
922.571	12924
922.68	12681
922.789	12802
922.898	12665
923.007	12658
923.116	12776
923.224	12783
923.333	12730
923.442	12612
923.55	12612
923.659	12498
923.767	12669
923.876	12490
923.984	12574
924.092	12429
924.201	12464
924.309	12521
924.417	12566
924.525	12467
924.633	12410
924.741	13164
924.849	12220
924.956	12327
925.064	12182
925.172	12098
925.279	12148
925.387	12216
925.494	12171
925.602	12346
925.709	12224
925.816	12167
925.924	12190
926.031	12270
926.138	12213
926.245	12213
926.352	12045
926.459	12148
926.566	12114
926.673	12041
926.779	11992
926.886	11939
926.993	11824
927.099	11745
927.206	11802
927.312	11680
927.419	11756
927.525	11707
927.631	11695
927.737	11661
927.843	11630
927.95	11524
928.056	11642
928.162	11630
928.267	11611
928.373	12273
928.479	11657
928.585	11486
928.69	11524
928.796	11573
928.901	11558
929.007	11364
929.112	11528
929.218	11421
929.323	11391
929.428	11356
929.533	11414
929.638	11223
929.743	11353
929.848	11379
929.953	11258
930.058	11239
930.163	11136
930.267	11109
930.372	11147
930.477	10961
930.581	11223
930.685	11037
930.79	10930
930.894	11045
930.998	10949
931.103	11143
931.207	10706
931.311	10637
931.415	10607
931.519	10417
931.623	10344
