Data from test_V78500241_1251.txt Node
Date: Fri Mar 25 15:18:34 CST 2022
User: usil
Spectrometer: V785-0024
Trigger mode: 0
Integration Time (sec): 4.000000E-1
Scans to average: 1
Nonlinearity correction enabled: false
Boxcar width: 0
Storing dark spectrum: false
XAxis mode: Wavelengths
Number of Pixels in Spectrum: 1024
>>>>>Begin Spectral Data<<<<<
801.071	27960
801.214	27846
801.356	27679
801.499	27511
801.641	27469
801.783	27378
801.926	27435
802.068	27466
802.211	27306
802.353	27313
802.496	27104
802.638	27089
802.78	26956
802.923	26845
803.065	26807
803.208	27032
803.35	26940
803.492	27157
803.635	27214
803.777	27108
803.919	27165
804.061	27458
804.204	27287
804.346	27135
804.488	27017
804.63	27188
804.773	27108
804.915	27287
805.057	27249
805.199	27161
805.341	27294
805.483	27268
805.626	27355
805.768	27104
805.91	27218
806.052	27260
806.194	27028
806.336	27450
806.478	27226
806.62	27340
806.762	27348
806.904	27443
807.046	27899
807.188	27724
807.33	27694
807.472	27728
807.614	27789
807.756	27797
807.898	27637
808.04	27614
808.182	27488
808.324	27652
808.465	27583
808.607	27911
808.749	28006
808.891	27907
809.033	28249
809.174	27983
809.316	27903
809.458	27956
809.6	27914
809.741	27926
809.883	28116
810.025	28246
810.166	28253
810.308	28249
810.45	28234
810.591	28215
810.733	27994
810.875	27903
811.016	27835
811.158	27797
811.299	27941
811.441	28078
811.582	28112
811.724	27850
811.865	27972
812.007	27956
812.148	27994
812.29	27888
812.431	28219
812.573	28329
812.714	28318
812.855	28470
812.997	28603
813.138	28618
813.279	28679
813.421	28542
813.562	28500
813.703	28219
813.845	28337
813.986	28017
814.127	27671
814.268	27652
814.41	27633
814.551	27622
814.692	27606
814.833	27549
814.974	27526
815.115	27576
815.256	27523
815.397	27488
815.539	27435
815.68	27275
815.821	27412
815.962	27382
816.103	27431
816.244	27397
816.385	27119
816.526	27218
816.666	26963
816.807	26819
816.948	27039
817.089	27150
817.23	26944
817.371	27032
817.512	26940
817.653	26902
817.793	26845
817.934	26750
818.075	27017
818.216	26906
818.356	26765
818.497	26788
818.638	26705
818.778	26526
818.919	26727
819.06	26674
819.2	26804
819.341	26838
819.481	26914
819.622	27039
819.762	27344
819.903	27195
820.043	27131
820.184	27043
820.324	26929
820.465	26979
820.605	27081
820.746	27070
820.886	26902
821.026	27001
821.167	27142
821.307	27020
821.447	26857
821.588	26800
821.728	26834
821.868	26644
822.008	26377
822.149	26381
822.289	26332
822.429	26282
822.569	26107
822.709	26164
822.849	25936
822.99	26001
823.13	25875
823.27	25883
823.41	25723
823.55	25731
823.69	25822
823.83	25750
823.97	25590
824.11	25597
824.25	25578
824.389	25655
824.529	25784
824.669	25567
824.809	25696
824.949	25651
825.089	25723
825.228	25491
825.368	25571
825.508	25457
825.648	25426
825.787	25521
825.927	25510
826.067	25422
826.206	25521
826.346	25537
826.485	25613
826.625	25422
826.765	25457
826.904	25403
827.044	25152
827.183	25175
827.323	25179
827.462	25164
827.601	25221
827.741	25012
827.88	25152
828.02	25023
828.159	25107
828.298	25160
828.437	25236
828.577	25080
828.716	25099
828.855	25012
828.994	24951
829.134	24802
829.273	24962
829.412	24764
829.551	24837
829.69	24932
829.829	24989
829.968	24878
830.107	24909
830.246	24817
830.385	24703
830.524	24783
830.663	24700
830.802	24620
830.941	24464
831.08	24452
831.219	24532
831.357	24365
831.496	24700
831.635	24429
831.774	24479
831.913	24353
832.051	24319
832.19	24235
832.329	24273
832.467	24190
832.606	24110
832.744	24155
832.883	24182
833.022	24220
833.16	24251
833.299	24155
833.437	24110
833.576	24251
833.714	24311
833.852	24308
833.991	24205
834.129	24350
834.267	24228
834.406	24380
834.544	24353
834.682	24205
834.821	24144
834.959	24228
835.097	24068
835.235	24319
835.373	24266
835.511	24171
835.65	24018
835.788	24057
835.926	23954
836.064	23893
836.202	23882
836.34	24091
836.478	24194
836.615	24068
836.753	24159
836.891	24030
837.029	24072
837.167	23992
837.305	23935
837.443	23958
837.58	23908
837.718	23935
837.856	23973
837.993	23897
838.131	23840
838.269	23737
838.406	23775
838.544	23714
838.681	23482
838.819	23467
838.956	23376
839.094	23288
839.231	23337
839.369	23570
839.506	23882
839.643	23653
839.781	23364
839.918	23524
840.055	23360
840.193	23273
840.33	23269
840.467	23284
840.604	23356
840.742	23562
840.879	23151
841.016	23223
841.153	23181
841.29	23391
841.427	23345
841.564	23273
841.701	23181
841.838	23220
841.975	23121
842.112	23212
842.249	23136
842.385	23056
842.522	23250
842.659	23022
842.796	23079
842.933	23003
843.069	22938
843.206	22987
843.343	23083
843.479	23075
843.616	22923
843.752	22790
843.889	22919
844.025	22915
844.162	22748
844.298	22911
844.435	22843
844.571	22892
844.708	22866
844.844	22961
844.98	23052
845.117	22919
845.253	22801
845.389	22675
845.525	22717
845.661	22740
845.798	22717
845.934	22432
846.07	22577
846.206	22485
846.342	22816
846.478	22512
846.614	22325
846.75	22276
846.886	22287
847.022	22325
847.158	22272
847.294	22284
847.429	22367
847.565	22234
847.701	22440
847.837	22002
847.972	22040
848.108	22166
848.244	22086
848.379	21972
848.515	21926
848.65	21903
848.786	21857
848.921	21892
849.057	21968
849.192	21979
849.328	21964
849.463	21804
849.598	21812
849.734	21854
849.869	21679
850.004	21591
850.14	21720
850.275	21701
850.41	21564
850.545	21587
850.68	21572
850.815	21572
850.95	21500
851.085	21808
851.22	21816
851.355	21751
851.49	21652
851.625	21561
851.76	21614
851.895	21561
852.03	21534
852.165	21675
852.299	21671
852.434	21679
852.569	21694
852.703	21576
852.838	21755
852.973	21755
853.107	21808
853.242	21515
853.376	21507
853.511	21382
853.645	21431
853.78	21488
853.914	21492
854.048	21374
854.183	21367
854.317	21557
854.451	21599
854.585	21443
854.72	21431
854.854	21568
854.988	21310
855.122	21306
855.256	21294
855.39	21355
855.524	21458
855.658	21469
855.792	21405
855.926	21454
856.06	21549
856.194	21526
856.327	21431
856.461	21389
856.595	21340
856.729	21408
856.862	21568
856.996	21408
857.13	21538
857.263	21648
857.397	21606
857.53	21454
857.664	21355
857.797	21515
857.931	21511
858.064	21564
858.197	21561
858.331	21447
858.464	21325
858.597	21344
858.731	21374
858.864	21439
858.997	21329
859.13	21428
859.263	21443
859.396	21553
859.529	21462
859.662	21492
859.795	21359
859.928	21447
860.061	21606
860.194	21694
860.327	21492
860.46	21473
860.592	21545
860.725	21534
860.858	21504
860.99	21447
861.123	21408
861.256	21378
861.388	21393
861.521	22120
861.653	21340
861.786	21237
861.918	21211
862.05	21260
862.183	21477
862.315	21374
862.447	21504
862.58	21340
862.712	21157
862.844	21047
862.976	21218
863.108	21154
863.24	21561
863.372	21127
863.504	21260
863.636	21089
863.768	21245
863.9	21192
864.032	21188
864.164	21036
864.296	21211
864.428	21154
864.559	21279
864.691	21180
864.823	21062
864.954	21104
865.086	21138
865.217	21001
865.349	20937
865.48	20998
865.612	21146
865.743	21226
865.875	21009
866.006	20982
866.137	21127
866.269	21047
866.4	21051
866.531	20910
866.662	20990
866.793	20967
866.924	20967
867.055	21066
867.186	20948
867.317	20956
867.448	20941
867.579	21001
867.71	20910
867.841	20834
867.972	20906
868.103	20906
868.233	21112
868.364	20929
868.495	21211
868.625	21135
868.756	21310
868.886	21272
869.017	21180
869.147	21275
869.278	21355
869.408	21211
869.539	21268
869.669	21355
869.799	21332
869.929	21302
870.06	21382
870.19	21473
870.32	21450
870.45	21526
870.58	21614
870.71	21686
870.84	21656
870.97	21622
871.1	21652
871.23	21717
871.36	21884
871.489	21633
871.619	21846
871.749	21739
871.879	21793
872.008	21994
872.138	21854
872.267	21819
872.397	21610
872.526	21736
872.656	21652
872.785	21686
872.915	21808
873.044	21865
873.173	21751
873.303	21770
873.432	21945
873.561	21987
873.69	21800
873.819	21842
873.948	21869
874.077	21770
874.206	21759
874.335	21895
874.464	22013
874.593	22173
874.722	21941
874.851	22150
874.979	21994
875.108	22090
875.237	22010
875.365	21926
875.494	22025
875.623	22238
875.751	22093
875.88	21968
876.008	22090
876.136	22352
876.265	22550
876.393	22637
876.521	22554
876.65	22538
876.778	22516
876.906	22466
877.034	22390
877.162	22455
877.29	22333
877.418	22352
877.546	22500
877.674	22474
877.802	22295
877.93	22314
878.058	22382
878.185	22196
878.313	22443
878.441	22428
878.568	22246
878.696	22280
878.824	22402
878.951	22470
879.079	22641
879.206	22691
879.333	22493
879.461	22538
879.588	22523
879.715	22672
879.842	22653
879.97	22497
880.097	22314
880.224	22169
880.351	22253
880.478	22158
880.605	22048
880.732	22261
880.859	22455
880.986	22211
881.112	22192
881.239	22147
881.366	22006
881.493	21827
881.619	21873
881.746	21823
881.872	21732
881.999	21705
882.125	21698
882.252	21793
882.378	21812
882.505	21991
882.631	21660
882.757	21523
882.883	21603
883.01	21454
883.136	21412
883.262	21386
883.388	21466
883.514	21500
883.64	21523
883.766	21306
883.892	21359
884.018	21264
884.143	21481
884.269	21496
884.395	21298
884.52	21055
884.646	21089
884.772	21157
884.897	21138
885.023	21142
885.148	21313
885.274	21283
885.399	21321
885.524	21112
885.65	21176
885.775	21203
885.9	21165
886.025	21096
886.15	21233
886.275	21176
886.4	21123
886.525	21119
886.65	21066
886.775	20960
886.9	21192
887.025	21325
887.149	21036
887.274	20998
887.399	21028
887.523	20834
887.648	20937
887.773	20906
887.897	21028
888.021	20971
888.146	20918
888.27	20990
888.395	20941
888.519	20979
888.643	20891
888.767	20849
888.891	20807
889.015	20731
889.139	20724
889.263	20651
889.387	20823
889.511	20941
889.635	20796
889.759	20705
889.883	20720
890.006	20724
890.13	20731
890.254	20594
890.377	20667
890.501	20377
890.624	20438
890.748	20408
890.871	20347
890.995	20343
891.118	20240
891.241	20278
891.364	20317
891.488	20374
891.611	20271
891.734	20191
891.857	20275
891.98	20180
892.103	20400
892.226	20313
892.349	20240
892.471	20084
892.594	20267
892.717	20218
892.839	20199
892.962	20180
893.085	20191
893.207	20218
893.33	20122
893.452	20214
893.575	20180
893.697	20142
893.819	20431
893.941	20320
894.064	20275
894.186	20077
894.308	20024
894.43	20210
894.552	20366
894.674	20244
894.796	20130
894.918	20138
895.04	20065
895.161	20210
895.283	20153
895.405	20161
895.526	20183
895.648	20214
895.769	20214
895.891	20195
896.012	20252
896.134	20259
896.255	20275
896.376	20134
896.498	20180
896.619	20130
896.74	20046
896.861	20229
896.982	20484
897.103	20545
897.224	20461
897.345	20347
897.466	20225
897.587	20351
897.708	20488
897.828	20267
897.949	20233
898.07	20187
898.19	20370
898.311	20438
898.431	20393
898.552	20385
898.672	20488
898.792	20396
898.913	20412
899.033	20191
899.153	20187
899.273	20096
899.393	20069
899.513	20202
899.633	20119
899.753	20153
899.873	20069
899.993	20126
900.113	20096
900.232	20088
900.352	20138
900.472	20016
900.591	19890
900.711	19997
900.83	19807
900.95	20008
901.069	20096
901.189	19799
901.308	19483
901.427	19571
901.546	19544
901.665	19434
901.784	19540
901.904	19346
902.023	19225
902.141	19053
902.26	18970
902.379	19099
902.498	18993
902.617	18886
902.735	19126
902.854	18985
902.973	18673
903.091	18661
903.21	18688
903.328	18639
903.446	18703
903.565	18460
903.683	18414
903.801	18365
903.919	18376
904.038	18342
904.156	18350
904.274	18311
904.392	18163
904.51	18251
904.627	18251
904.745	18296
904.863	18239
904.981	18117
905.098	17935
905.216	17828
905.334	18079
905.451	17950
905.569	17916
905.686	17824
905.803	17935
905.921	17733
906.038	17756
906.155	17661
906.272	17528
906.389	17577
906.506	17516
906.623	17547
906.74	17395
906.857	17277
906.974	17368
907.091	17444
907.208	17619
907.324	17455
907.441	17246
907.557	17162
907.674	17261
907.79	17166
907.907	16991
908.023	17132
908.139	17159
908.256	17105
908.372	17143
908.488	17090
908.604	16873
908.72	16858
908.836	16824
908.952	16805
909.068	16892
909.184	16976
909.3	16828
909.415	16976
909.531	16835
909.647	16691
909.762	16622
909.878	16580
909.993	16588
910.108	16535
910.224	16592
910.339	16542
910.454	16405
910.57	16348
910.685	16421
910.8	16565
910.915	16577
911.03	16306
911.145	16257
911.259	16204
911.374	16284
911.489	16067
911.604	16078
911.718	15968
911.833	15934
911.947	15846
912.062	15694
912.176	15949
912.291	16025
912.405	15907
912.519	16063
912.633	16051
912.748	16082
912.862	15865
912.976	15785
913.09	15667
913.204	15736
913.318	15838
913.431	15694
913.545	15846
913.659	15804
913.772	15736
913.886	15622
914	15545
914.113	15644
914.226	15656
914.34	15736
914.453	15447
914.566	15553
914.68	15481
914.793	15447
914.906	15325
915.019	15150
915.132	15020
915.245	15138
915.358	15127
915.47	15165
915.583	15245
915.696	15275
915.809	15298
915.921	15283
916.034	15108
916.146	15032
916.259	14986
916.371	15089
916.483	15009
916.595	15013
916.708	14952
916.82	14998
916.932	14952
917.044	14975
917.156	14925
917.268	14792
917.38	14864
917.491	14834
917.603	14815
917.715	14864
917.826	14960
917.938	14693
918.049	14655
918.161	14731
918.272	14864
918.384	14857
918.495	14682
918.606	14533
918.717	14499
918.828	14522
918.939	14556
919.05	14431
919.161	14598
919.272	14370
919.383	14465
919.494	14530
919.604	14716
919.715	14518
919.826	14419
919.936	14530
920.047	14507
920.157	14499
920.267	14777
920.378	14526
920.488	14503
920.598	14621
920.708	14792
920.818	14644
920.928	14659
921.038	14750
921.148	14777
921.258	14469
921.368	14328
921.477	14252
921.587	14180
921.697	14229
921.806	14237
921.916	14050
922.025	14024
922.134	13902
922.244	13830
922.353	13772
922.462	13757
922.571	13776
922.68	13655
922.789	13578
922.898	13544
923.007	13537
923.116	13578
923.224	13529
923.333	13559
923.442	13392
923.55	13384
923.659	13483
923.767	13346
923.876	13304
923.984	13381
924.092	13259
924.201	13297
924.309	13327
924.417	13255
924.525	13240
924.633	13255
924.741	13940
924.849	13015
924.956	13164
925.064	13046
925.172	12920
925.279	12947
925.387	12943
925.494	12958
925.602	13069
925.709	12954
925.816	12859
925.924	12973
926.031	13004
926.138	12875
926.245	12894
926.352	12825
926.459	12981
926.566	13050
926.673	12897
926.779	12658
926.886	12738
926.993	12585
927.099	12521
927.206	12540
927.312	12502
927.419	12544
927.525	12445
927.631	12502
927.737	12353
927.843	12384
927.95	12296
928.056	12304
928.162	12330
928.267	12334
928.373	13042
928.479	12437
928.585	12232
928.69	12258
928.796	12342
928.901	12209
929.007	12125
929.112	12209
929.218	12129
929.323	12136
929.428	12072
929.533	12201
929.638	11901
929.743	11999
929.848	12049
929.953	12095
930.058	11843
930.163	11729
930.267	11790
930.372	11817
930.477	11748
930.581	11984
930.685	11805
930.79	11729
930.894	11745
930.998	11516
931.103	11710
931.207	11467
931.311	11356
931.415	11204
931.519	11033
931.623	11067
