Data from test_V78500241_2901.txt Node
Date: Fri Mar 25 15:30:03 CST 2022
User: usil
Spectrometer: V785-0024
Trigger mode: 0
Integration Time (sec): 4.000000E-1
Scans to average: 1
Nonlinearity correction enabled: false
Boxcar width: 0
Storing dark spectrum: false
XAxis mode: Wavelengths
Number of Pixels in Spectrum: 1024
>>>>>Begin Spectral Data<<<<<
801.071	27142
801.214	27184
801.356	26925
801.499	26796
801.641	26796
801.783	26788
801.926	26800
802.068	26727
802.211	26682
802.353	26670
802.496	26434
802.638	26442
802.78	26294
802.923	26259
803.065	26377
803.208	26267
803.35	26480
803.492	26511
803.635	26530
803.777	26530
803.919	26438
804.061	26887
804.204	26412
804.346	26533
804.488	26495
804.63	26575
804.773	26351
804.915	26541
805.057	26678
805.199	26377
805.341	26674
805.483	26785
805.626	26712
805.768	26526
805.91	26667
806.052	26609
806.194	26514
806.336	26693
806.478	26606
806.62	26670
806.762	26845
806.904	26758
807.046	27249
807.188	27055
807.33	27085
807.472	27096
807.614	26986
807.756	26952
807.898	26861
808.04	26933
808.182	26701
808.324	27112
808.465	26933
808.607	27192
808.749	27275
808.891	27363
809.033	27420
809.174	27412
809.316	27154
809.458	27146
809.6	27127
809.741	27329
809.883	27382
810.025	27462
810.166	27519
810.308	27629
810.45	27530
810.591	27374
810.733	27370
810.875	27321
811.016	27093
811.158	27173
811.299	27416
811.441	27450
811.582	27363
811.724	27370
811.865	27252
812.007	27245
812.148	27226
812.29	27325
812.431	27454
812.573	27485
812.714	27675
812.855	27564
812.997	27884
813.138	28051
813.279	27838
813.421	27724
813.562	27774
813.703	27462
813.845	27389
813.986	27173
814.127	27020
814.268	26861
814.41	27005
814.551	26857
814.692	26963
814.833	26693
814.974	26804
815.115	26944
815.256	26773
815.397	26902
815.539	26746
815.68	26636
815.821	26495
815.962	26693
816.103	26731
816.244	26522
816.385	26427
816.526	26453
816.666	26180
816.807	26225
816.948	26252
817.089	26275
817.23	26107
817.371	26096
817.512	26225
817.653	26073
817.793	26107
817.934	26115
818.075	26252
818.216	26282
818.356	26138
818.497	25978
818.638	25974
818.778	25921
818.919	25997
819.06	25974
819.2	26005
819.341	26081
819.481	26103
819.622	26347
819.762	26446
819.903	26377
820.043	26218
820.184	26183
820.324	26252
820.465	26370
820.605	26324
820.746	26153
820.886	26187
821.026	26191
821.167	26096
821.307	26202
821.447	26164
821.588	26005
821.728	25871
821.868	25837
822.008	25647
822.149	25586
822.289	25613
822.429	25327
822.569	25285
822.709	25369
822.849	25133
822.99	25133
823.13	25122
823.27	25107
823.41	24973
823.55	24783
823.69	24890
823.83	24992
823.97	24852
824.11	24776
824.25	24692
824.389	24635
824.529	24738
824.669	24650
824.809	24867
824.949	24779
825.089	24829
825.228	24734
825.368	24601
825.508	24547
825.648	24509
825.787	24612
825.927	24673
826.067	24604
826.206	24521
826.346	24661
826.485	24688
826.625	24502
826.765	24726
826.904	24627
827.044	24410
827.183	24319
827.323	24418
827.462	24407
827.601	24292
827.741	24292
827.88	24296
828.02	24182
828.159	24251
828.298	24270
828.437	24262
828.577	24338
828.716	24429
828.855	24296
828.994	24030
829.134	24076
829.273	23984
829.412	23882
829.551	23954
829.69	24015
829.829	24060
829.968	24026
830.107	24144
830.246	23939
830.385	23931
830.524	23863
830.663	23817
830.802	23680
830.941	23600
831.08	23581
831.219	23710
831.357	23551
831.496	23745
831.635	23482
831.774	23417
831.913	23433
832.051	23417
832.19	23341
832.329	23292
832.467	23303
832.606	23326
832.744	23334
832.883	23246
833.022	23235
833.16	23318
833.299	23299
833.437	23398
833.576	23345
833.714	23246
833.852	23383
833.991	23395
834.129	23395
834.267	23299
834.406	23326
834.544	23311
834.682	23322
834.821	23433
834.959	23448
835.097	23277
835.235	23543
835.373	23326
835.511	23379
835.65	23185
835.788	23220
835.926	22957
836.064	22949
836.202	22885
836.34	23159
836.478	23269
836.615	23090
836.753	23121
836.891	23166
837.029	23136
837.167	23140
837.305	23064
837.443	23079
837.58	22980
837.718	23147
837.856	23052
837.993	22908
838.131	22976
838.269	22991
838.406	22938
838.544	22866
838.681	22721
838.819	22573
838.956	22523
839.094	22481
839.231	22584
839.369	22694
839.506	22850
839.643	22733
839.781	22577
839.918	22447
840.055	22405
840.193	22421
840.33	22398
840.467	22409
840.604	22493
840.742	22588
840.879	22276
841.016	22303
841.153	22322
841.29	22497
841.427	22394
841.564	22470
841.701	22440
841.838	22284
841.975	22280
842.112	22417
842.249	22265
842.385	22188
842.522	22348
842.659	22325
842.796	22143
842.933	22128
843.069	22166
843.206	22219
843.343	22192
843.479	22128
843.616	22158
843.752	21987
843.889	21926
844.025	21998
844.162	21869
844.298	22070
844.435	21922
844.571	21975
844.708	21922
844.844	22074
844.98	22036
845.117	22105
845.253	21789
845.389	21941
845.525	21816
845.661	21808
845.798	21728
845.934	21728
846.07	21667
846.206	21679
846.342	21797
846.478	21606
846.614	21420
846.75	21378
846.886	21332
847.022	21477
847.158	21447
847.294	21435
847.429	21416
847.565	21393
847.701	21682
847.837	21096
847.972	21066
848.108	21291
848.244	21310
848.379	21001
848.515	21074
848.65	20994
848.786	21085
848.921	21066
849.057	21165
849.192	20937
849.328	21055
849.463	20941
849.598	20891
849.734	20975
849.869	20826
850.004	20861
850.14	20785
850.275	20819
850.41	20682
850.545	20697
850.68	20796
850.815	20648
850.95	20788
851.085	20933
851.22	20990
851.355	20739
851.49	20750
851.625	20834
851.76	20686
851.895	20648
852.03	20632
852.165	20743
852.299	20720
852.434	20823
852.569	20739
852.703	20758
852.838	20895
852.973	20876
853.107	20788
853.242	20758
853.376	20503
853.511	20415
853.645	20613
853.78	20735
853.914	20564
854.048	20568
854.183	20625
854.317	20651
854.451	20762
854.585	20667
854.72	20609
854.854	20735
854.988	20575
855.122	20427
855.256	20374
855.39	20625
855.524	20686
855.658	20632
855.792	20632
855.926	20678
856.06	20507
856.194	20667
856.327	20670
856.461	20640
856.595	20549
856.729	20541
856.862	20579
856.996	20701
857.13	20682
857.263	20731
857.397	20594
857.53	20556
857.664	20571
857.797	20632
857.931	20629
858.064	20686
858.197	20659
858.331	20613
858.464	20503
858.597	20442
858.731	20522
858.864	20571
858.997	20568
859.13	20564
859.263	20625
859.396	20602
859.529	20564
859.662	20621
859.795	20503
859.928	20549
860.061	20568
860.194	20872
860.327	20640
860.46	20686
860.592	20823
860.725	20727
860.858	20739
860.99	20667
861.123	20583
861.256	20434
861.388	20583
861.521	21298
861.653	20419
861.786	20305
861.918	20313
862.05	20408
862.183	20503
862.315	20602
862.447	20571
862.58	20587
862.712	20305
862.844	20332
862.976	20415
863.108	20324
863.24	20735
863.372	20206
863.504	20412
863.636	20298
863.768	20286
863.9	20309
864.032	20237
864.164	20393
864.296	20393
864.428	20446
864.559	20328
864.691	20442
864.823	20298
864.954	20233
865.086	20381
865.217	20259
865.349	20103
865.48	20229
865.612	20221
865.743	20282
865.875	20210
866.006	20157
866.137	20248
866.269	20206
866.4	20252
866.531	20183
866.662	20164
866.793	20100
866.924	20164
867.055	20263
867.186	20145
867.317	20202
867.448	20168
867.579	20168
867.71	20122
867.841	20142
867.972	20119
868.103	20164
868.233	20187
868.364	20088
868.495	20282
868.625	20214
868.756	20461
868.886	20442
869.017	20442
869.147	20499
869.278	20427
869.408	20282
869.539	20545
869.669	20385
869.799	20514
869.929	20450
870.06	20503
870.19	20625
870.32	20708
870.45	20853
870.58	20792
870.71	20868
870.84	20811
870.97	20823
871.1	20811
871.23	20956
871.36	20971
871.489	20830
871.619	21047
871.749	20990
871.879	21070
872.008	21127
872.138	20979
872.267	20842
872.397	20845
872.526	20781
872.656	20731
872.785	20830
872.915	20998
873.044	21112
873.173	21020
873.303	20982
873.432	20998
873.561	21108
873.69	21024
873.819	21020
873.948	21112
874.077	20960
874.206	20990
874.335	20998
874.464	21226
874.593	21150
874.722	21340
874.851	21302
874.979	21321
875.108	21340
875.237	21241
875.365	21070
875.494	21252
875.623	21241
875.751	21351
875.88	21344
876.008	21389
876.136	21428
876.265	21641
876.393	21831
876.521	21743
876.65	21660
876.778	21671
876.906	21603
877.034	21660
877.162	21572
877.29	21538
877.418	21599
877.546	21614
877.674	21534
877.802	21583
877.93	21663
878.058	21519
878.185	21564
878.313	21564
878.441	21572
878.568	21447
878.696	21420
878.824	21545
878.951	21766
879.079	21812
879.206	21903
879.333	21865
879.461	21690
879.588	21637
879.715	21797
879.842	21850
879.97	21663
880.097	21500
880.224	21420
880.351	21485
880.478	21488
880.605	21382
880.732	21336
880.859	21622
880.986	21549
881.112	21355
881.239	21321
881.366	21127
881.493	21165
881.619	21024
881.746	20937
881.872	20937
881.999	20967
882.125	21013
882.252	20982
882.378	21127
882.505	21055
882.631	20853
882.757	20883
882.883	20944
883.01	20712
883.136	20788
883.262	20518
883.388	20514
883.514	20632
883.64	20796
883.766	20689
883.892	20473
884.018	20674
884.143	20621
884.269	20838
884.395	20423
884.52	20393
884.646	20396
884.772	20313
884.897	20237
885.023	20495
885.148	20492
885.274	20484
885.399	20419
885.524	20366
885.65	20480
885.775	20423
885.9	20309
886.025	20419
886.15	20385
886.275	20225
886.4	20320
886.525	20351
886.65	20301
886.775	20252
886.9	20511
887.025	20590
887.149	20336
887.274	20122
887.399	20164
887.523	20050
887.648	20024
887.773	20012
887.897	20256
888.021	20168
888.146	20122
888.27	20202
888.395	20187
888.519	20176
888.643	20126
888.767	20130
888.891	20054
889.015	19970
889.139	20005
889.263	19982
889.387	20153
889.511	20157
889.635	20016
889.759	19967
889.883	19833
890.006	19989
890.13	19978
890.254	19845
890.377	19955
890.501	19632
890.624	19761
890.748	19651
890.871	19643
890.995	19586
891.118	19540
891.241	19499
891.364	19514
891.488	19628
891.611	19605
891.734	19540
891.857	19582
891.98	19575
892.103	19529
892.226	19529
892.349	19480
892.471	19282
892.594	19476
892.717	19472
892.839	19350
892.962	19400
893.085	19491
893.207	19419
893.33	19327
893.452	19358
893.575	19559
893.697	19403
893.819	19594
893.941	19677
894.064	19563
894.186	19426
894.308	19228
894.43	19510
894.552	19609
894.674	19529
894.796	19350
894.918	19407
895.04	19415
895.161	19571
895.283	19434
895.405	19426
895.526	19495
895.648	19400
895.769	19693
895.891	19472
896.012	19597
896.134	19578
896.255	19453
896.376	19483
896.498	19510
896.619	19468
896.74	19499
896.861	19537
896.982	19712
897.103	19856
897.224	19742
897.345	19674
897.466	19662
897.587	19757
897.708	19894
897.828	19750
897.949	19677
898.07	19540
898.19	19590
898.311	19723
898.431	19712
898.552	19731
898.672	19746
898.792	19833
898.913	19658
899.033	19552
899.153	19571
899.273	19578
899.393	19559
899.513	19605
899.633	19525
899.753	19502
899.873	19339
899.993	19403
900.113	19438
900.232	19407
900.352	19419
900.472	19270
900.591	19339
900.711	19274
900.83	19259
900.95	19327
901.069	19358
901.189	19133
901.308	18935
901.427	18825
901.546	18856
901.665	18901
901.784	18814
901.904	18764
902.023	18661
902.141	18452
902.26	18441
902.379	18483
902.498	18323
902.617	18372
902.735	18403
902.854	18391
902.973	18277
903.091	18167
903.21	18049
903.328	17999
903.446	17935
903.565	17870
903.683	17958
903.801	17665
903.919	17885
904.038	17790
904.156	17661
904.274	17627
904.392	17623
904.51	17573
904.627	17672
904.745	17687
904.863	17619
904.981	17467
905.098	17242
905.216	17296
905.334	17364
905.451	17364
905.569	17368
905.686	17402
905.803	17246
905.921	17025
906.038	17174
906.155	17010
906.272	17037
906.389	16965
906.506	16763
906.623	16793
906.74	16835
906.857	16702
906.974	16774
907.091	16938
907.208	16995
907.324	16896
907.441	16748
907.557	16603
907.674	16569
907.79	16462
907.907	16546
908.023	16668
908.139	16519
908.256	16451
908.372	16382
908.488	16546
908.604	16310
908.72	16310
908.836	16375
908.952	16150
909.068	16261
909.184	16390
909.3	16181
909.415	16386
909.531	16268
909.647	16090
909.762	16032
909.878	16059
909.993	16109
910.108	15865
910.224	15918
910.339	15960
910.454	15854
910.57	15766
910.685	15713
910.8	15994
910.915	15930
911.03	15797
911.145	15663
911.259	15618
911.374	15667
911.489	15473
911.604	15568
911.718	15386
911.833	15317
911.947	15214
912.062	15195
912.176	15454
912.291	15351
912.405	15420
912.519	15561
912.633	15530
912.748	15363
912.862	15435
912.976	15203
913.09	15089
913.204	15116
913.318	15279
913.431	15306
913.545	15226
913.659	15279
913.772	15100
913.886	14944
914	14960
914.113	14971
914.226	15077
914.34	15020
914.453	14853
914.566	15001
914.68	14902
914.793	14819
914.906	14663
915.019	14568
915.132	14503
915.245	14621
915.358	14613
915.47	14564
915.583	14499
915.696	14617
915.809	14762
915.921	14750
916.034	14465
916.146	14446
916.259	14549
916.371	14522
916.483	14594
916.595	14393
916.708	14404
916.82	14434
916.932	14298
917.044	14332
917.156	14324
917.268	14381
917.38	14351
917.491	14271
917.603	14355
917.715	14263
917.826	14393
917.938	14172
918.049	14134
918.161	14259
918.272	14351
918.384	14389
918.495	14202
918.606	14062
918.717	14035
918.828	14084
918.939	14126
919.05	14001
919.161	14027
919.272	13799
919.383	13860
919.494	14069
919.604	14244
919.715	14005
919.826	13951
919.936	13917
920.047	14043
920.157	13978
920.267	14168
920.378	14062
920.488	13925
920.598	14157
920.708	14275
920.818	14134
920.928	14161
921.038	14298
921.148	14271
921.258	13959
921.368	13879
921.477	13788
921.587	13776
921.697	13693
921.806	13856
921.916	13510
922.025	13518
922.134	13392
922.244	13468
922.353	13457
922.462	13320
922.571	13190
922.68	13050
922.789	13171
922.898	13126
923.007	13023
923.116	13053
923.224	13069
923.333	12928
923.442	12996
923.55	12852
923.659	12970
923.767	12882
923.876	12848
923.984	12947
924.092	12806
924.201	12833
924.309	12760
924.417	12852
924.525	12825
924.633	12734
924.741	13723
924.849	12536
924.956	12646
925.064	12479
925.172	12479
925.279	12433
925.387	12540
925.494	12547
925.602	12616
925.709	12540
925.816	12445
925.924	12517
926.031	12544
926.138	12490
926.245	12502
926.352	12418
926.459	12475
926.566	12429
926.673	12311
926.779	12323
926.886	12239
926.993	12129
927.099	12098
927.206	12057
927.312	12072
927.419	12148
927.525	12140
927.631	12095
927.737	11961
927.843	11958
927.95	11828
928.056	11923
928.162	11988
928.267	11973
928.373	12570
928.479	12022
928.585	11680
928.69	11942
928.796	12011
928.901	11824
929.007	11661
929.112	11851
929.218	11775
929.323	11718
929.428	11638
929.533	11722
929.638	11566
929.743	11592
929.848	11627
929.953	11623
930.058	11642
930.163	11322
930.267	11292
930.372	11429
930.477	11299
930.581	11585
930.685	11383
930.79	11181
930.894	11269
930.998	11155
931.103	11372
931.207	10999
931.311	10889
931.415	10904
931.519	10542
931.623	10679
