Data from test_V78500241_2511.txt Node
Date: Fri Mar 25 15:27:20 CST 2022
User: usil
Spectrometer: V785-0024
Trigger mode: 0
Integration Time (sec): 4.000000E-1
Scans to average: 1
Nonlinearity correction enabled: false
Boxcar width: 0
Storing dark spectrum: false
XAxis mode: Wavelengths
Number of Pixels in Spectrum: 1024
>>>>>Begin Spectral Data<<<<<
801.071	27051
801.214	27024
801.356	26807
801.499	26708
801.641	26686
801.783	26625
801.926	26701
802.068	26632
802.211	26518
802.353	26511
802.496	26332
802.638	26149
802.78	26290
802.923	26206
803.065	26237
803.208	26225
803.35	26351
803.492	26400
803.635	26415
803.777	26313
803.919	26404
804.061	26670
804.204	26438
804.346	26362
804.488	26271
804.63	26351
804.773	26343
804.915	26381
805.057	26514
805.199	26267
805.341	26575
805.483	26476
805.626	26583
805.768	26446
805.91	26549
806.052	26533
806.194	26533
806.336	26659
806.478	26522
806.62	26469
806.762	26708
806.904	26815
807.046	26906
807.188	26971
807.33	26975
807.472	27001
807.614	26807
807.756	26921
807.898	26921
808.04	26773
808.182	26590
808.324	26769
808.465	26708
808.607	26963
808.749	27138
808.891	27150
809.033	27310
809.174	27142
809.316	27070
809.458	27051
809.6	27112
809.741	27241
809.883	27195
810.025	27336
810.166	27382
810.308	27306
810.45	27382
810.591	27340
810.733	27173
810.875	27077
811.016	27017
811.158	27081
811.299	27256
811.441	27279
811.582	27283
811.724	27150
811.865	27039
812.007	27081
812.148	26979
812.29	27214
812.431	27222
812.573	27424
812.714	27549
812.855	27568
812.997	27759
813.138	27873
813.279	27804
813.421	27690
813.562	27595
813.703	27389
813.845	27218
813.986	27039
814.127	26864
814.268	26773
814.41	26754
814.551	26682
814.692	26925
814.833	26655
814.974	26686
815.115	26849
815.256	26587
815.397	26571
815.539	26724
815.68	26564
815.821	26461
815.962	26632
816.103	26617
816.244	26309
816.385	26438
816.526	26282
816.666	26058
816.807	26065
816.948	26065
817.089	26134
817.23	25989
817.371	25989
817.512	25932
817.653	25974
817.793	25928
817.934	25978
818.075	26058
818.216	25913
818.356	25989
818.497	25830
818.638	25807
818.778	25849
818.919	25833
819.06	25894
819.2	25875
819.341	26092
819.481	26065
819.622	26202
819.762	26370
819.903	26294
820.043	26278
820.184	26126
820.324	26130
820.465	26290
820.605	26176
820.746	26092
820.886	25997
821.026	26119
821.167	26031
821.307	26081
821.447	26005
821.588	26035
821.728	25833
821.868	25708
822.008	25605
822.149	25422
822.289	25464
822.429	25270
822.569	25202
822.709	25251
822.849	25023
822.99	24970
823.13	24981
823.27	25076
823.41	24856
823.55	24684
823.69	24897
823.83	24783
823.97	24711
824.11	24635
824.25	24502
824.389	24635
824.529	24620
824.669	24631
824.809	24772
824.949	24719
825.089	24677
825.228	24604
825.368	24490
825.508	24342
825.648	24498
825.787	24525
825.927	24502
826.067	24445
826.206	24471
826.346	24669
826.485	24642
826.625	24665
826.765	24631
826.904	24650
827.044	24334
827.183	24380
827.323	24190
827.462	24251
827.601	24201
827.741	24239
827.88	24277
828.02	24133
828.159	24201
828.298	24323
828.437	24304
828.577	24125
828.716	24270
828.855	24095
828.994	23946
829.134	23874
829.273	23916
829.412	23980
829.551	23767
829.69	23866
829.829	24049
829.968	24110
830.107	23961
830.246	23946
830.385	23920
830.524	23726
830.663	23878
830.802	23828
830.941	23478
831.08	23516
831.219	23680
831.357	23649
831.496	23802
831.635	23501
831.774	23452
831.913	23505
832.051	23299
832.19	23398
832.329	23322
832.467	23185
832.606	23200
832.744	23200
832.883	23258
833.022	23102
833.16	23269
833.299	23311
833.437	23147
833.576	23254
833.714	23292
833.852	23353
833.991	23303
834.129	23368
834.267	23326
834.406	23402
834.544	23356
834.682	23223
834.821	23212
834.959	23356
835.097	23280
835.235	23326
835.373	23277
835.511	23231
835.65	23204
835.788	23041
835.926	23132
836.064	22881
836.202	22866
836.34	23208
836.478	23242
836.615	23151
836.753	23254
836.891	23239
837.029	23121
837.167	23098
837.305	23117
837.443	23044
837.58	23010
837.718	22946
837.856	22942
837.993	22900
838.131	22995
838.269	22847
838.406	22908
838.544	22782
838.681	22672
838.819	22649
838.956	22554
839.094	22542
839.231	22687
839.369	22580
839.506	22889
839.643	22831
839.781	22489
839.918	22398
840.055	22573
840.193	22455
840.33	22333
840.467	22497
840.604	22512
840.742	22653
840.879	22242
841.016	22291
841.153	22417
841.29	22462
841.427	22470
841.564	22405
841.701	22455
841.838	22329
841.975	22287
842.112	22291
842.249	22375
842.385	22306
842.522	22512
842.659	22329
842.796	22257
842.933	22295
843.069	22166
843.206	22067
843.343	22249
843.479	22268
843.616	22310
843.752	21941
843.889	22032
844.025	22021
844.162	21892
844.298	22017
844.435	21854
844.571	21918
844.708	21998
844.844	22120
844.98	22051
845.117	22032
845.253	21903
845.389	21736
845.525	21808
845.661	21854
845.798	21701
845.934	21823
846.07	21648
846.206	21648
846.342	21865
846.478	21675
846.614	21469
846.75	21431
846.886	21351
847.022	21496
847.158	21477
847.294	21439
847.429	21488
847.565	21424
847.701	21743
847.837	21169
847.972	21089
848.108	21188
848.244	21237
848.379	21127
848.515	21020
848.65	20982
848.786	21024
848.921	21108
849.057	21123
849.192	21066
849.328	21005
849.463	21009
849.598	20982
849.734	21047
849.869	20986
850.004	20853
850.14	20853
850.275	20796
850.41	20746
850.545	20682
850.68	20842
850.815	20731
850.95	20682
851.085	21085
851.22	20872
851.355	20807
851.49	20739
851.625	20651
851.76	20731
851.895	20769
852.03	20887
852.165	20811
852.299	20838
852.434	20796
852.569	20823
852.703	20861
852.838	20883
852.973	20842
853.107	20807
853.242	20727
853.376	20727
853.511	20442
853.645	20564
853.78	20777
853.914	20575
854.048	20594
854.183	20533
854.317	20712
854.451	20754
854.585	20583
854.72	20617
854.854	20720
854.988	20530
855.122	20674
855.256	20571
855.39	20575
855.524	20712
855.658	20670
855.792	20629
855.926	20678
856.06	20667
856.194	20735
856.327	20689
856.461	20629
856.595	20640
856.729	20556
856.862	20746
856.996	20602
857.13	20583
857.263	20754
857.397	20739
857.53	20533
857.664	20693
857.797	20727
857.931	20811
858.064	20644
858.197	20648
858.331	20495
858.464	20606
858.597	20541
858.731	20556
858.864	20571
858.997	20511
859.13	20503
859.263	20632
859.396	20617
859.529	20606
859.662	20701
859.795	20625
859.928	20777
860.061	20769
860.194	20765
860.327	20705
860.46	20587
860.592	20716
860.725	20689
860.858	20773
860.99	20773
861.123	20629
861.256	20602
861.388	20632
861.521	21165
861.653	20484
861.786	20476
861.918	20492
862.05	20457
862.183	20507
862.315	20636
862.447	20663
862.58	20511
862.712	20244
862.844	20286
862.976	20446
863.108	20484
863.24	20804
863.372	20142
863.504	20362
863.636	20347
863.768	20423
863.9	20309
864.032	20286
864.164	20313
864.296	20351
864.428	20374
864.559	20381
864.691	20389
864.823	20263
864.954	20355
865.086	20355
865.217	20278
865.349	20206
865.48	20267
865.612	20381
865.743	20358
865.875	20233
866.006	20221
866.137	20278
866.269	20225
866.4	20244
866.531	20161
866.662	20157
866.793	20225
866.924	20214
867.055	20195
867.186	20282
867.317	20065
867.448	20050
867.579	20130
867.71	20031
867.841	20122
867.972	20199
868.103	20187
868.233	20202
868.364	20210
868.495	20332
868.625	20294
868.756	20632
868.886	20336
869.017	20366
869.147	20632
869.278	20488
869.408	20495
869.539	20492
869.669	20598
869.799	20423
869.929	20560
870.06	20571
870.19	20750
870.32	20686
870.45	20777
870.58	20811
870.71	20906
870.84	20887
870.97	20834
871.1	20849
871.23	21051
871.36	20948
871.489	20979
871.619	21024
871.749	20815
871.879	21142
872.008	20937
872.138	21017
872.267	21081
872.397	20960
872.526	20815
872.656	20857
872.785	20834
872.915	21089
873.044	21116
873.173	21146
873.303	21047
873.432	20982
873.561	21207
873.69	21112
873.819	21066
873.948	21017
874.077	21028
874.206	20971
874.335	21116
874.464	21222
874.593	21329
874.722	21199
874.851	21302
874.979	21378
875.108	21317
875.237	21157
875.365	21203
875.494	21344
875.623	21439
875.751	21275
875.88	21408
876.008	21447
876.136	21359
876.265	21679
876.393	21736
876.521	21770
876.65	21755
876.778	21766
876.906	21663
877.034	21595
877.162	21698
877.29	21652
877.418	21591
877.546	21507
877.674	21549
877.802	21572
877.93	21724
878.058	21618
878.185	21477
878.313	21622
878.441	21644
878.568	21515
878.696	21591
878.824	21770
878.951	21743
879.079	21918
879.206	21873
879.333	21751
879.461	21686
879.588	21732
879.715	21808
879.842	21918
879.97	21736
880.097	21428
880.224	21363
880.351	21542
880.478	21428
880.605	21534
880.732	21450
880.859	21759
880.986	21538
881.112	21454
881.239	21321
881.366	21165
881.493	21104
881.619	20910
881.746	21081
881.872	21020
881.999	21028
882.125	20929
882.252	21066
882.378	21005
882.505	21127
882.631	20895
882.757	20861
882.883	20853
883.01	20708
883.136	20644
883.262	20651
883.388	20575
883.514	20697
883.64	20845
883.766	20868
883.892	20655
884.018	20689
884.143	20697
884.269	20853
884.395	20427
884.52	20294
884.646	20465
884.772	20461
884.897	20381
885.023	20446
885.148	20469
885.274	20564
885.399	20530
885.524	20412
885.65	20366
885.775	20419
885.9	20393
886.025	20564
886.15	20454
886.275	20336
886.4	20263
886.525	20389
886.65	20248
886.775	20343
886.9	20457
887.025	20575
887.149	20446
887.274	20309
887.399	20195
887.523	20271
887.648	20122
887.773	20145
887.897	20218
888.021	20233
888.146	20153
888.27	20202
888.395	20317
888.519	20244
888.643	20248
888.767	20259
888.891	20077
889.015	20020
889.139	20039
889.263	19963
889.387	20077
889.511	20237
889.635	20145
889.759	19959
889.883	19982
890.006	20012
890.13	20149
890.254	20008
890.377	20046
890.501	19742
890.624	19704
890.748	19837
890.871	19674
890.995	19632
891.118	19480
891.241	19632
891.364	19613
891.488	19750
891.611	19655
891.734	19635
891.857	19632
891.98	19696
892.103	19677
892.226	19575
892.349	19639
892.471	19464
892.594	19518
892.717	19540
892.839	19510
892.962	19506
893.085	19567
893.207	19487
893.33	19358
893.452	19537
893.575	19586
893.697	19426
893.819	19647
893.941	19708
894.064	19696
894.186	19518
894.308	19441
894.43	19495
894.552	19556
894.674	19601
894.796	19453
894.918	19476
895.04	19590
895.161	19556
895.283	19613
895.405	19464
895.526	19468
895.648	19578
895.769	19457
895.891	19544
896.012	19464
896.134	19632
896.255	19552
896.376	19483
896.498	19559
896.619	19578
896.74	19521
896.861	19666
896.982	19856
897.103	19925
897.224	19784
897.345	19632
897.466	19567
897.587	19784
897.708	19986
897.828	19837
897.949	19677
898.07	19495
898.19	19613
898.311	19761
898.431	19635
898.552	19757
898.672	19803
898.792	19898
898.913	19704
899.033	19639
899.153	19567
899.273	19434
899.393	19480
899.513	19567
899.633	19445
899.753	19658
899.873	19502
899.993	19559
900.113	19464
900.232	19510
900.352	19381
900.472	19403
900.591	19251
900.711	19327
900.83	19236
900.95	19381
901.069	19396
901.189	19247
901.308	18913
901.427	18932
901.546	18848
901.665	18909
901.784	18905
901.904	18635
902.023	18681
902.141	18448
902.26	18475
902.379	18418
902.498	18429
902.617	18448
902.735	18441
902.854	18407
902.973	18304
903.091	18045
903.21	18049
903.328	18022
903.446	18041
903.565	17901
903.683	17950
903.801	17874
903.919	17802
904.038	17878
904.156	17764
904.274	17726
904.392	17642
904.51	17684
904.627	17649
904.745	17661
904.863	17684
904.981	17551
905.098	17299
905.216	17334
905.334	17463
905.451	17368
905.569	17337
905.686	17334
905.803	17330
905.921	17109
906.038	17223
906.155	17159
906.272	17010
906.389	17128
906.506	16896
906.623	16881
906.74	16934
906.857	16736
906.974	16793
907.091	16953
907.208	17014
907.324	16927
907.441	16763
907.557	16626
907.674	16683
907.79	16603
907.907	16531
908.023	16653
908.139	16656
908.256	16577
908.372	16451
908.488	16592
908.604	16371
908.72	16356
908.836	16344
908.952	16310
909.068	16451
909.184	16516
909.3	16352
909.415	16436
909.531	16322
909.647	16105
909.762	16109
909.878	16006
909.993	16071
910.108	16055
910.224	16013
910.339	15964
910.454	15960
910.57	15808
910.685	15732
910.8	16006
910.915	16013
911.03	15831
911.145	15667
911.259	15667
911.374	15679
911.489	15663
911.604	15568
911.718	15412
911.833	15454
911.947	15389
912.062	15351
912.176	15393
912.291	15443
912.405	15523
912.519	15679
912.633	15545
912.748	15416
912.862	15378
912.976	15169
913.09	15024
913.204	15154
913.318	15260
913.431	15389
913.545	15291
913.659	15393
913.772	15252
913.886	15066
914	15028
914.113	15127
914.226	15104
914.34	15119
914.453	14937
914.566	15097
914.68	14921
914.793	14880
914.906	14667
915.019	14678
915.132	14636
915.245	14659
915.358	14716
915.47	14705
915.583	14651
915.696	14632
915.809	14750
915.921	14758
916.034	14621
916.146	14518
916.259	14541
916.371	14644
916.483	14598
916.595	14480
916.708	14434
916.82	14465
916.932	14533
917.044	14438
917.156	14522
917.268	14324
917.38	14278
917.491	14206
917.603	14396
917.715	14408
917.826	14404
917.938	14240
918.049	14111
918.161	14339
918.272	14419
918.384	14370
918.495	14286
918.606	14100
918.717	14016
918.828	14073
918.939	14176
919.05	13978
919.161	14096
919.272	13845
919.383	14020
919.494	14107
919.604	14351
919.715	14096
919.826	13978
919.936	14035
920.047	14111
920.157	14046
920.267	14244
920.378	14084
920.488	13982
920.598	14263
920.708	14385
920.818	14267
920.928	14248
921.038	14339
921.148	14301
921.258	14008
921.368	13890
921.477	13791
921.587	13776
921.697	13628
921.806	13742
921.916	13636
922.025	13533
922.134	13411
922.244	13483
922.353	13571
922.462	13422
922.571	13304
922.68	13149
922.789	13038
922.898	13061
923.007	12985
923.116	13171
923.224	13126
923.333	13053
923.442	13000
923.55	12924
923.659	12947
923.767	12897
923.876	12833
923.984	12973
924.092	12897
924.201	12905
924.309	12909
924.417	12810
924.525	12814
924.633	12791
924.741	13681
924.849	12517
924.956	12791
925.064	12563
925.172	12540
925.279	12460
925.387	12544
925.494	12589
925.602	12604
925.709	12547
925.816	12380
925.924	12544
926.031	12585
926.138	12467
926.245	12479
926.352	12357
926.459	12547
926.566	12566
926.673	12376
926.779	12376
926.886	12311
926.993	12209
927.099	12129
927.206	12083
927.312	12068
927.419	12197
927.525	12072
927.631	12133
927.737	12030
927.843	12064
927.95	11859
928.056	12011
928.162	11939
928.267	11969
928.373	12521
928.479	12117
928.585	11802
928.69	11992
928.796	11996
928.901	11851
929.007	11657
929.112	11745
929.218	11824
929.323	11737
929.428	11722
929.533	11805
929.638	11573
929.743	11672
929.848	11691
929.953	11570
930.058	11528
930.163	11398
930.267	11356
930.372	11524
930.477	11322
930.581	11604
930.685	11379
930.79	11284
930.894	11368
930.998	11265
931.103	11452
931.207	11037
931.311	11029
931.415	10854
931.519	10656
931.623	10637
