Data from test_V78500241_2813.txt Node
Date: Fri Mar 25 15:29:26 CST 2022
User: usil
Spectrometer: V785-0024
Trigger mode: 0
Integration Time (sec): 4.000000E-1
Scans to average: 1
Nonlinearity correction enabled: false
Boxcar width: 0
Storing dark spectrum: false
XAxis mode: Wavelengths
Number of Pixels in Spectrum: 1024
>>>>>Begin Spectral Data<<<<<
801.071	27317
801.214	27043
801.356	26971
801.499	26705
801.641	26773
801.783	26712
801.926	26727
802.068	26644
802.211	26594
802.353	26613
802.496	26453
802.638	26427
802.78	26286
802.923	26275
803.065	26149
803.208	26210
803.35	26282
803.492	26446
803.635	26644
803.777	26499
803.919	26431
804.061	26834
804.204	26446
804.346	26503
804.488	26358
804.63	26556
804.773	26400
804.915	26526
805.057	26602
805.199	26492
805.341	26469
805.483	26609
805.626	26693
805.768	26442
805.91	26636
806.052	26560
806.194	26587
806.336	26785
806.478	26648
806.62	26625
806.762	26765
806.904	26804
807.046	27112
807.188	27036
807.33	27032
807.472	26975
807.614	26880
807.756	27036
807.898	26807
808.04	26807
808.182	26792
808.324	26864
808.465	26902
808.607	27142
808.749	27188
808.891	27355
809.033	27378
809.174	27294
809.316	27131
809.458	27268
809.6	27237
809.741	27245
809.883	27317
810.025	27481
810.166	27595
810.308	27496
810.45	27469
810.591	27507
810.733	27249
810.875	27180
811.016	27127
811.158	27123
811.299	27374
811.441	27492
811.582	27431
811.724	27176
811.865	27222
812.007	27104
812.148	27157
812.29	27222
812.431	27416
812.573	27507
812.714	27606
812.855	27679
812.997	27743
813.138	27842
813.279	27816
813.421	27705
813.562	27633
813.703	27519
813.845	27363
813.986	27218
814.127	27055
814.268	26952
814.41	26906
814.551	26819
814.692	26982
814.833	26921
814.974	26899
815.115	26925
815.256	26788
815.397	26785
815.539	26640
815.68	26727
815.821	26556
815.962	26648
816.103	26587
816.244	26636
816.385	26450
816.526	26320
816.666	26358
816.807	26145
816.948	26248
817.089	26278
817.23	26180
817.371	26096
817.512	26138
817.653	26157
817.793	26027
817.934	26096
818.075	26107
818.216	26031
818.356	25989
818.497	25917
818.638	25772
818.778	25795
818.919	25951
819.06	25921
819.2	26077
819.341	26088
819.481	26084
819.622	26309
819.762	26400
819.903	26571
820.043	26362
820.184	26305
820.324	26092
820.465	26278
820.605	26172
820.746	26092
820.886	26046
821.026	26309
821.167	26016
821.307	26259
821.447	26195
821.588	25955
821.728	26035
821.868	25696
822.008	25670
822.149	25571
822.289	25548
822.429	25403
822.569	25247
822.709	25289
822.849	25198
822.99	25099
823.13	25072
823.27	25034
823.41	24916
823.55	24825
823.69	24871
823.83	24859
823.97	24947
824.11	24661
824.25	24616
824.389	24707
824.529	24730
824.669	24764
824.809	24681
824.949	24764
825.089	24814
825.228	24791
825.368	24540
825.508	24407
825.648	24601
825.787	24509
825.927	24623
826.067	24551
826.206	24585
826.346	24563
826.485	24681
826.625	24513
826.765	24612
826.904	24570
827.044	24407
827.183	24429
827.323	24292
827.462	24194
827.601	24300
827.741	24384
827.88	24224
828.02	24243
828.159	24334
828.298	24247
828.437	24372
828.577	24323
828.716	24224
828.855	24213
828.994	23996
829.134	23935
829.273	24015
829.412	23916
829.551	23912
829.69	23904
829.829	23950
829.968	24114
830.107	24026
830.246	23984
830.385	23916
830.524	23920
830.663	23786
830.802	23817
830.941	23684
831.08	23566
831.219	23646
831.357	23600
831.496	23980
831.635	23577
831.774	23421
831.913	23410
832.051	23471
832.19	23459
832.329	23368
832.467	23307
832.606	23250
832.744	23212
832.883	23299
833.022	23174
833.16	23364
833.299	23288
833.437	23334
833.576	23364
833.714	23387
833.852	23280
833.991	23455
834.129	23246
834.267	23364
834.406	23250
834.544	23406
834.682	23322
834.821	23204
834.959	23417
835.097	23261
835.235	23273
835.373	23345
835.511	23444
835.65	23162
835.788	23181
835.926	23025
836.064	22919
836.202	22949
836.34	23181
836.478	23181
836.615	23185
836.753	23029
836.891	23181
837.029	23033
837.167	23155
837.305	23044
837.443	23006
837.58	22976
837.718	23143
837.856	23140
837.993	22896
838.131	22987
838.269	22900
838.406	22854
838.544	22854
838.681	22733
838.819	22660
838.956	22557
839.094	22565
839.231	22481
839.369	22672
839.506	22748
839.643	22824
839.781	22641
839.918	22443
840.055	22493
840.193	22546
840.33	22470
840.467	22573
840.604	22512
840.742	22733
840.879	22276
841.016	22402
841.153	22367
841.29	22474
841.427	22523
841.564	22432
841.701	22394
841.838	22249
841.975	22200
842.112	22276
842.249	22253
842.385	22272
842.522	22421
842.659	22303
842.796	22188
842.933	22150
843.069	22181
843.206	22070
843.343	22268
843.479	22177
843.616	22055
843.752	22059
843.889	21949
844.025	22013
844.162	21941
844.298	22013
844.435	21934
844.571	21934
844.708	21975
844.844	22116
844.98	22086
845.117	22086
845.253	21979
845.389	21816
845.525	21804
845.661	21690
845.798	21770
845.934	21690
846.07	21644
846.206	21793
846.342	21743
846.478	21667
846.614	21568
846.75	21329
846.886	21507
847.022	21591
847.158	21424
847.294	21397
847.429	21515
847.565	21363
847.701	21583
847.837	21131
847.972	21176
848.108	21370
848.244	21252
848.379	21001
848.515	21009
848.65	20914
848.786	21047
848.921	20941
849.057	21207
849.192	21047
849.328	20994
849.463	20998
849.598	20971
849.734	20845
849.869	20937
850.004	20716
850.14	20716
850.275	20765
850.41	20735
850.545	20701
850.68	20765
850.815	20811
850.95	20769
851.085	20963
851.22	20815
851.355	20861
851.49	20716
851.625	20819
851.76	20651
851.895	20769
852.03	20708
852.165	20861
852.299	20830
852.434	20834
852.569	20876
852.703	20708
852.838	20864
852.973	20883
853.107	20826
853.242	20708
853.376	20583
853.511	20434
853.645	20495
853.78	20773
853.914	20625
854.048	20537
854.183	20629
854.317	20655
854.451	20708
854.585	20598
854.72	20594
854.854	20617
854.988	20499
855.122	20697
855.256	20530
855.39	20648
855.524	20602
855.658	20663
855.792	20640
855.926	20541
856.06	20682
856.194	20724
856.327	20545
856.461	20488
856.595	20556
856.729	20636
856.862	20667
856.996	20457
857.13	20670
857.263	20632
857.397	20568
857.53	20636
857.664	20792
857.797	20598
857.931	20644
858.064	20621
858.197	20625
858.331	20693
858.464	20537
858.597	20480
858.731	20560
858.864	20571
858.997	20655
859.13	20602
859.263	20731
859.396	20651
859.529	20556
859.662	20564
859.795	20602
859.928	20621
860.061	20746
860.194	20891
860.327	20629
860.46	20769
860.592	20609
860.725	20746
860.858	20773
860.99	20564
861.123	20564
861.256	20632
861.388	20606
861.521	21230
861.653	20442
861.786	20396
861.918	20423
862.05	20480
862.183	20568
862.315	20469
862.447	20746
862.58	20594
862.712	20427
862.844	20343
862.976	20377
863.108	20298
863.24	20769
863.372	20286
863.504	20339
863.636	20332
863.768	20298
863.9	20355
864.032	20313
864.164	20374
864.296	20320
864.428	20374
864.559	20358
864.691	20336
864.823	20290
864.954	20423
865.086	20282
865.217	20275
865.349	20221
865.48	20202
865.612	20126
865.743	20336
865.875	20168
866.006	20210
866.137	20210
866.269	20176
866.4	20088
866.531	20248
866.662	20183
866.793	20142
866.924	20252
867.055	20153
867.186	20122
867.317	20164
867.448	20088
867.579	20138
867.71	20043
867.841	20008
867.972	20157
868.103	20031
868.233	20214
868.364	20202
868.495	20358
868.625	20374
868.756	20495
868.886	20275
869.017	20446
869.147	20522
869.278	20431
869.408	20393
869.539	20305
869.669	20457
869.799	20465
869.929	20461
870.06	20446
870.19	20735
870.32	20632
870.45	20746
870.58	20956
870.71	20963
870.84	20853
870.97	20765
871.1	20823
871.23	21020
871.36	21013
871.489	20868
871.619	20963
871.749	20963
871.879	21089
872.008	21173
872.138	21093
872.267	20986
872.397	20868
872.526	20823
872.656	20815
872.785	20804
872.915	20895
873.044	21150
873.173	20994
873.303	21096
873.432	20998
873.561	21127
873.69	21032
873.819	20899
873.948	21077
874.077	20963
874.206	20941
874.335	21058
874.464	21119
874.593	21268
874.722	21233
874.851	21321
874.979	21199
875.108	21287
875.237	21123
875.365	21131
875.494	21298
875.623	21363
875.751	21294
875.88	21329
876.008	21511
876.136	21431
876.265	21713
876.393	21804
876.521	21808
876.65	21846
876.778	21656
876.906	21473
877.034	21618
877.162	21583
877.29	21580
877.418	21663
877.546	21728
877.674	21675
877.802	21595
877.93	21667
878.058	21576
878.185	21485
878.313	21641
878.441	21625
878.568	21583
878.696	21587
878.824	21778
878.951	21705
879.079	21899
879.206	21888
879.333	21823
879.461	21545
879.588	21610
879.715	21895
879.842	21926
879.97	21842
880.097	21431
880.224	21447
880.351	21534
880.478	21595
880.605	21420
880.732	21397
880.859	21656
880.986	21458
881.112	21599
881.239	21523
881.366	21237
881.493	21222
881.619	21161
881.746	21024
881.872	21085
881.999	20960
882.125	20986
882.252	21116
882.378	21028
882.505	21211
882.631	21005
882.757	20830
882.883	20712
883.01	20792
883.136	20762
883.262	20632
883.388	20583
883.514	20845
883.64	20815
883.766	20651
883.892	20514
884.018	20537
884.143	20724
884.269	20796
884.395	20465
884.52	20446
884.646	20412
884.772	20423
884.897	20320
885.023	20488
885.148	20514
885.274	20564
885.399	20549
885.524	20434
885.65	20389
885.775	20423
885.9	20294
886.025	20526
886.15	20583
886.275	20351
886.4	20259
886.525	20358
886.65	20336
886.775	20317
886.9	20503
887.025	20708
887.149	20374
887.274	20237
887.399	20130
887.523	20081
887.648	20107
887.773	20153
887.897	20404
888.021	20221
888.146	20119
888.27	20278
888.395	20298
888.519	20244
888.643	20275
888.767	20229
888.891	20199
889.015	19944
889.139	20134
889.263	19997
889.387	20122
889.511	20294
889.635	20062
889.759	20062
889.883	20046
890.006	20088
890.13	19963
890.254	19936
890.377	19925
890.501	19712
890.624	19689
890.748	19791
890.871	19605
890.995	19582
891.118	19601
891.241	19685
891.364	19525
891.488	19742
891.611	19658
891.734	19578
891.857	19624
891.98	19620
892.103	19677
892.226	19605
892.349	19628
892.471	19434
892.594	19559
892.717	19563
892.839	19540
892.962	19362
893.085	19567
893.207	19571
893.33	19381
893.452	19502
893.575	19552
893.697	19434
893.819	19677
893.941	19696
894.064	19658
894.186	19480
894.308	19373
894.43	19533
894.552	19613
894.674	19605
894.796	19472
894.918	19438
895.04	19464
895.161	19635
895.283	19480
895.405	19460
895.526	19510
895.648	19499
895.769	19540
895.891	19483
896.012	19582
896.134	19499
896.255	19472
896.376	19506
896.498	19559
896.619	19529
896.74	19506
896.861	19658
896.982	19898
897.103	19928
897.224	19799
897.345	19723
897.466	19719
897.587	19715
897.708	19734
897.828	19738
897.949	19670
898.07	19575
898.19	19681
898.311	19731
898.431	19723
898.552	19685
898.672	19742
898.792	19776
898.913	19765
899.033	19689
899.153	19651
899.273	19422
899.393	19411
899.513	19582
899.633	19521
899.753	19556
899.873	19472
899.993	19502
900.113	19464
900.232	19381
900.352	19445
900.472	19312
900.591	19232
900.711	19422
900.83	19209
900.95	19312
901.069	19377
901.189	19304
901.308	18920
901.427	18878
901.546	18894
901.665	18852
901.784	18901
901.904	18787
902.023	18658
902.141	18544
902.26	18361
902.379	18494
902.498	18327
902.617	18410
902.735	18448
902.854	18353
902.973	18391
903.091	18019
903.21	17996
903.328	18079
903.446	18068
903.565	17878
903.683	17961
903.801	17748
903.919	17969
904.038	17935
904.156	17737
904.274	17832
904.392	17604
904.51	17710
904.627	17604
904.745	17687
904.863	17680
904.981	17440
905.098	17292
905.216	17448
905.334	17383
905.451	17330
905.569	17372
905.686	17322
905.803	17425
905.921	17143
906.038	17296
906.155	17200
906.272	17006
906.389	17094
906.506	16850
906.623	16889
906.74	16839
906.857	16793
906.974	16809
907.091	16965
907.208	17010
907.324	16938
907.441	16725
907.557	16634
907.674	16683
907.79	16656
907.907	16596
908.023	16607
908.139	16691
908.256	16607
908.372	16497
908.488	16500
908.604	16367
908.72	16352
908.836	16360
908.952	16280
909.068	16310
909.184	16436
909.3	16280
909.415	16360
909.531	16333
909.647	16013
909.762	15964
909.878	15987
909.993	16086
910.108	15972
910.224	15953
910.339	16093
910.454	15949
910.57	15793
910.685	15743
910.8	16010
910.915	16006
911.03	15789
911.145	15614
911.259	15641
911.374	15637
911.489	15568
911.604	15584
911.718	15424
911.833	15382
911.947	15367
912.062	15291
912.176	15348
912.291	15435
912.405	15454
912.519	15576
912.633	15614
912.748	15424
912.862	15336
912.976	15313
913.09	15150
913.204	15123
913.318	15237
913.431	15294
913.545	15336
913.659	15317
913.772	15138
913.886	14986
914	15058
914.113	15161
914.226	15055
914.34	15123
914.453	14899
914.566	15036
914.68	14944
914.793	14868
914.906	14708
915.019	14670
915.132	14492
915.245	14636
915.358	14724
915.47	14632
915.583	14594
915.696	14640
915.809	14739
915.921	14883
916.034	14552
916.146	14579
916.259	14507
916.371	14598
916.483	14594
916.595	14495
916.708	14465
916.82	14465
916.932	14370
917.044	14480
917.156	14366
917.268	14377
917.38	14290
917.491	14358
917.603	14396
917.715	14522
917.826	14389
917.938	14339
918.049	14195
918.161	14191
918.272	14408
918.384	14389
918.495	14221
918.606	14123
918.717	14062
918.828	14005
918.939	14119
919.05	13898
919.161	13951
919.272	13822
919.383	13978
919.494	14077
919.604	14221
919.715	14008
919.826	14031
919.936	13967
920.047	14111
920.157	14012
920.267	14202
920.378	14024
920.488	14039
920.598	14248
920.708	14313
920.818	14157
920.928	14081
921.038	14305
921.148	14305
921.258	13963
921.368	13947
921.477	13807
921.587	13811
921.697	13632
921.806	13731
921.916	13613
922.025	13518
922.134	13472
922.244	13506
922.353	13476
922.462	13343
922.571	13324
922.68	13050
922.789	13088
922.898	13091
923.007	13061
923.116	13156
923.224	13091
923.333	13103
923.442	12954
923.55	12943
923.659	13019
923.767	13015
923.876	12867
923.984	13027
924.092	12829
924.201	13008
924.309	12837
924.417	12890
924.525	12821
924.633	12745
924.741	13518
924.849	12582
924.956	12700
925.064	12532
925.172	12486
925.279	12498
925.387	12464
925.494	12559
925.602	12612
925.709	12574
925.816	12464
925.924	12502
926.031	12502
926.138	12517
926.245	12498
926.352	12372
926.459	12502
926.566	12566
926.673	12304
926.779	12262
926.886	12330
926.993	12125
927.099	12136
927.206	12117
927.312	12114
927.419	12152
927.525	12049
927.631	12079
927.737	11965
927.843	11980
927.95	11908
928.056	11961
928.162	11961
928.267	11980
928.373	12620
928.479	12022
928.585	11805
928.69	11958
928.796	12026
928.901	11824
929.007	11668
929.112	11733
929.218	11775
929.323	11752
929.428	11691
929.533	11817
929.638	11577
929.743	11726
929.848	11691
929.953	11611
930.058	11558
930.163	11307
930.267	11368
930.372	11592
930.477	11318
930.581	11585
930.685	11398
930.79	11250
930.894	11239
930.998	11254
931.103	11311
931.207	10999
931.311	10930
931.415	10816
931.519	10645
931.623	10672
