Data from test_V78500241_1307.txt Node
Date: Fri Mar 25 15:18:57 CST 2022
User: usil
Spectrometer: V785-0024
Trigger mode: 0
Integration Time (sec): 4.000000E-1
Scans to average: 1
Nonlinearity correction enabled: false
Boxcar width: 0
Storing dark spectrum: false
XAxis mode: Wavelengths
Number of Pixels in Spectrum: 1024
>>>>>Begin Spectral Data<<<<<
801.071	28128
801.214	27949
801.356	27755
801.499	27633
801.641	27564
801.783	27568
801.926	27686
802.068	27511
802.211	27610
802.353	27329
802.496	27306
802.638	27252
802.78	27123
802.923	27222
803.065	27154
803.208	27138
803.35	27154
803.492	27272
803.635	27367
803.777	27237
803.919	27355
804.061	27842
804.204	27720
804.346	27500
804.488	27294
804.63	27439
804.773	27264
804.915	27405
805.057	27511
805.199	27325
805.341	27637
805.483	27603
805.626	27538
805.768	27431
805.91	27603
806.052	27496
806.194	27564
806.336	27637
806.478	27580
806.62	27386
806.762	27690
806.904	27667
807.046	27911
807.188	27823
807.33	28055
807.472	28006
807.614	27873
807.756	27991
807.898	27911
808.04	27667
808.182	27804
808.324	27876
808.465	27941
808.607	28070
808.749	28242
808.891	28211
809.033	28348
809.174	28169
809.316	28051
809.458	28204
809.6	28173
809.741	28268
809.883	28265
810.025	28580
810.166	28470
810.308	28611
810.45	28508
810.591	28356
810.733	28177
810.875	28230
811.016	28143
811.158	27934
811.299	28287
811.441	28295
811.582	28329
811.724	28219
811.865	28188
812.007	28211
812.148	28211
812.29	28329
812.431	28211
812.573	28565
812.714	28672
812.855	28641
812.997	28759
813.138	28938
813.279	28839
813.421	28694
813.562	28675
813.703	28493
813.845	28329
813.986	28105
814.127	28013
814.268	27892
814.41	27903
814.551	27865
814.692	27994
814.833	27861
814.974	27911
815.115	28074
815.256	27831
815.397	27823
815.539	27812
815.68	27644
815.821	27846
815.962	27671
816.103	27652
816.244	27618
816.385	27526
816.526	27435
816.666	27306
816.807	27100
816.948	27203
817.089	27355
817.23	27306
817.371	27142
817.512	27180
817.653	27222
817.793	27237
817.934	27169
818.075	27268
818.216	27184
818.356	27085
818.497	26967
818.638	26861
818.778	26929
818.919	26979
819.06	26880
819.2	26979
819.341	27161
819.481	27214
819.622	27287
819.762	27618
819.903	27397
820.043	27264
820.184	27214
820.324	27355
820.465	27355
820.605	27199
820.746	27310
820.886	27161
821.026	27279
821.167	27116
821.307	27222
821.447	27222
821.588	27169
821.728	27001
821.868	26857
822.008	26629
822.149	26705
822.289	26644
822.429	26434
822.569	26298
822.709	26393
822.849	26172
822.99	26191
823.13	26221
823.27	26168
823.41	26039
823.55	25780
823.69	26016
823.83	26058
823.97	25871
824.11	25940
824.25	25898
824.389	25811
824.529	25940
824.669	25651
824.809	25982
824.949	25928
825.089	25845
825.228	25864
825.368	25708
825.508	25719
825.648	25742
825.787	25696
825.927	25750
826.067	25556
826.206	25655
826.346	25788
826.485	25811
826.625	25628
826.765	25826
826.904	25704
827.044	25559
827.183	25479
827.323	25460
827.462	25521
827.601	25419
827.741	25457
827.88	25438
828.02	25266
828.159	25358
828.298	25388
828.437	25426
828.577	25350
828.716	25495
828.855	25422
828.994	25126
829.134	25103
829.273	25091
829.412	24958
829.551	24924
829.69	25095
829.829	25103
829.968	25156
830.107	25183
830.246	25137
830.385	24989
830.524	24916
830.663	24958
830.802	24840
830.941	24760
831.08	24783
831.219	24795
831.357	24692
831.496	24962
831.635	24528
831.774	24582
831.913	24646
832.051	24570
832.19	24498
832.329	24498
832.467	24380
832.606	24319
832.744	24380
832.883	24422
833.022	24399
833.16	24456
833.299	24426
833.437	24513
833.576	24517
833.714	24460
833.852	24388
833.991	24471
834.129	24551
834.267	24544
834.406	24479
834.544	24570
834.682	24372
834.821	24395
834.959	24509
835.097	24391
835.235	24547
835.373	24467
835.511	24445
835.65	24353
835.788	24258
835.926	24220
836.064	24114
836.202	24197
836.34	24308
836.478	24372
836.615	24220
836.753	24277
836.891	24388
837.029	24319
837.167	24384
837.305	24232
837.443	24174
837.58	24072
837.718	24216
837.856	24133
837.993	24049
838.131	24133
838.269	23984
838.406	24095
838.544	24011
838.681	23767
838.819	23783
838.956	23543
839.094	23649
839.231	23600
839.369	23771
839.506	24041
839.643	23866
839.781	23604
839.918	23490
840.055	23684
840.193	23592
840.33	23414
840.467	23482
840.604	23554
840.742	23771
840.879	23490
841.016	23478
841.153	23318
841.29	23611
841.427	23524
841.564	23505
841.701	23493
841.838	23524
841.975	23414
842.112	23334
842.249	23288
842.385	23216
842.522	23452
842.659	23315
842.796	23231
842.933	23220
843.069	23280
843.206	23269
843.343	23368
843.479	23410
843.616	23151
843.752	22984
843.889	23109
844.025	23189
844.162	23132
844.298	23216
844.435	22991
844.571	23117
844.708	23166
844.844	23178
844.98	23071
845.117	23159
845.253	22942
845.389	22900
845.525	22965
845.661	23029
845.798	22603
845.934	22744
846.07	22687
846.206	22904
846.342	22885
846.478	22729
846.614	22554
846.75	22333
846.886	22371
847.022	22615
847.158	22557
847.294	22531
847.429	22455
847.565	22599
847.701	22774
847.837	22325
847.972	22238
848.108	22306
848.244	22223
848.379	22105
848.515	22067
848.65	22036
848.786	22010
848.921	22105
849.057	22105
849.192	22185
849.328	22124
849.463	22059
849.598	22036
849.734	21991
849.869	22040
850.004	21903
850.14	21880
850.275	21983
850.41	21903
850.545	21793
850.68	21850
850.815	21770
850.95	21861
851.085	22021
851.22	21998
851.355	21941
851.49	21747
851.625	21819
851.76	21861
851.895	21842
852.03	21804
852.165	21838
852.299	21819
852.434	22025
852.569	21892
852.703	21884
852.838	22002
852.973	21991
853.107	21987
853.242	21850
853.376	21648
853.511	21572
853.645	21576
853.78	21770
853.914	21564
854.048	21572
854.183	21610
854.317	21603
854.451	21861
854.585	21641
854.72	21690
854.854	21720
854.988	21606
855.122	21663
855.256	21530
855.39	21656
855.524	21690
855.658	21739
855.792	21637
855.926	21675
856.06	21679
856.194	21679
856.327	21698
856.461	21671
856.595	21595
856.729	21679
856.862	21774
856.996	21739
857.13	21739
857.263	21682
857.397	21793
857.53	21675
857.664	21667
857.797	21800
857.931	21682
858.064	21743
858.197	21770
858.331	21739
858.464	21511
858.597	21603
858.731	21644
858.864	21629
858.997	21720
859.13	21682
859.263	21671
859.396	21781
859.529	21778
859.662	21705
859.795	21603
859.928	21724
860.061	21983
860.194	21751
860.327	21759
860.46	21717
860.592	21766
860.725	21797
860.858	21743
860.99	21827
861.123	21625
861.256	21739
861.388	21641
861.521	22447
861.653	21698
861.786	21443
861.918	21492
862.05	21599
862.183	21606
862.315	21652
862.447	21682
862.58	21564
862.712	21443
862.844	21389
862.976	21511
863.108	21439
863.24	21709
863.372	21329
863.504	21389
863.636	21344
863.768	21545
863.9	21401
864.032	21279
864.164	21306
864.296	21515
864.428	21450
864.559	21363
864.691	21542
864.823	21310
864.954	21348
865.086	21344
865.217	21252
865.349	21211
865.48	21279
865.612	21256
865.743	21340
865.875	21374
866.006	21214
866.137	21325
866.269	21135
866.4	21214
866.531	21230
866.662	21104
866.793	21176
866.924	21226
867.055	21245
867.186	21138
867.317	21199
867.448	21032
867.579	21157
867.71	21119
867.841	21173
867.972	21161
868.103	21180
868.233	21203
868.364	21157
868.495	21245
868.625	21561
868.756	21523
868.886	21526
869.017	21492
869.147	21469
869.278	21519
869.408	21466
869.539	21431
869.669	21466
869.799	21641
869.929	21542
870.06	21526
870.19	21656
870.32	21694
870.45	21641
870.58	21850
870.71	21979
870.84	21987
870.97	21899
871.1	21770
871.23	21907
871.36	21983
871.489	22002
871.619	22101
871.749	22063
871.879	22090
872.008	22013
872.138	22086
872.267	21892
872.397	21926
872.526	21892
872.656	21861
872.785	21861
872.915	21884
873.044	22162
873.173	22036
873.303	22128
873.432	22036
873.561	22128
873.69	22074
873.819	22158
873.948	22109
874.077	22120
874.206	21960
874.335	22169
874.464	22181
874.593	22360
874.722	22257
874.851	22314
874.979	22177
875.108	22344
875.237	22196
875.365	22162
875.494	22287
875.623	22344
875.751	22139
875.88	22246
876.008	22371
876.136	22398
876.265	22637
876.393	22835
876.521	22717
876.65	22618
876.778	22816
876.906	22691
877.034	22500
877.162	22622
877.29	22615
877.418	22774
877.546	22649
877.674	22546
877.802	22656
877.93	22668
878.058	22607
878.185	22504
878.313	22618
878.441	22573
878.568	22348
878.696	22596
878.824	22641
878.951	22645
879.079	22698
879.206	22885
879.333	22820
879.461	22432
879.588	22645
879.715	22782
879.842	22847
879.97	22664
880.097	22527
880.224	22291
880.351	22516
880.478	22436
880.605	22314
880.732	22485
880.859	22645
880.986	22459
881.112	22443
881.239	22314
881.366	22139
881.493	22196
881.619	22063
881.746	21953
881.872	22063
881.999	22021
882.125	21994
882.252	22017
882.378	21998
882.505	22166
882.631	21785
882.757	21747
882.883	21759
883.01	21785
883.136	21572
883.262	21523
883.388	21641
883.514	21743
883.64	21781
883.766	21564
883.892	21583
884.018	21557
884.143	21641
884.269	21732
884.395	21500
884.52	21275
884.646	21336
884.772	21321
884.897	21233
885.023	21393
885.148	21504
885.274	21443
885.399	21416
885.524	21249
885.65	21389
885.775	21249
885.9	21260
886.025	21496
886.15	21348
886.275	21291
886.4	21321
886.525	21222
886.65	21298
886.775	21252
886.9	21485
887.025	21557
887.149	21363
887.274	21173
887.399	21062
887.523	21108
887.648	21039
887.773	20971
887.897	21237
888.021	21135
888.146	21100
888.27	21165
888.395	21203
888.519	21180
888.643	21001
888.767	21119
888.891	20948
889.015	20883
889.139	20990
889.263	20788
889.387	20979
889.511	21176
889.635	21043
889.759	20887
889.883	20842
890.006	20819
890.13	20800
890.254	20826
890.377	20750
890.501	20579
890.624	20598
890.748	20697
890.871	20602
890.995	20499
891.118	20484
891.241	20446
891.364	20507
891.488	20621
891.611	20415
891.734	20499
891.857	20389
891.98	20503
892.103	20457
892.226	20533
892.349	20511
892.471	20305
892.594	20358
892.717	20317
892.839	20427
892.962	20419
893.085	20415
893.207	20336
893.33	20180
893.452	20240
893.575	20450
893.697	20427
893.819	20511
893.941	20598
894.064	20526
894.186	20263
894.308	20214
894.43	20442
894.552	20461
894.674	20393
894.796	20256
894.918	20351
895.04	20298
895.161	20355
895.283	20427
895.405	20237
895.526	20446
895.648	20370
895.769	20381
895.891	20339
896.012	20469
896.134	20271
896.255	20450
896.376	20298
896.498	20400
896.619	20400
896.74	20366
896.861	20377
896.982	20632
897.103	20845
897.224	20701
897.345	20648
897.466	20514
897.587	20488
897.708	20632
897.828	20651
897.949	20461
898.07	20404
898.19	20537
898.311	20541
898.431	20571
898.552	20541
898.672	20583
898.792	20689
898.913	20556
899.033	20457
899.153	20389
899.273	20172
899.393	20446
899.513	20271
899.633	20199
899.753	20301
899.873	20237
899.993	20309
900.113	20294
900.232	20290
900.352	20244
900.472	20157
900.591	20005
900.711	20111
900.83	20012
900.95	20134
901.069	20202
901.189	19963
901.308	19784
901.427	19620
901.546	19719
901.665	19734
901.784	19666
901.904	19464
902.023	19419
902.141	19255
902.26	19168
902.379	19259
902.498	19141
902.617	19076
902.735	19069
902.854	19076
902.973	19053
903.091	18867
903.21	18856
903.328	18875
903.446	18688
903.565	18673
903.683	18711
903.801	18456
903.919	18719
904.038	18654
904.156	18532
904.274	18475
904.392	18369
904.51	18281
904.627	18452
904.745	18414
904.863	18391
904.981	18182
905.098	18171
905.216	18148
905.334	18049
905.451	18144
905.569	18049
905.686	17984
905.803	18034
905.921	17874
906.038	18003
906.155	17851
906.272	17718
906.389	17851
906.506	17726
906.623	17608
906.74	17634
906.857	17493
906.974	17611
907.091	17695
907.208	17691
907.324	17577
907.441	17417
907.557	17414
907.674	17250
907.79	17303
907.907	17292
908.023	17315
908.139	17223
908.256	17239
908.372	17273
908.488	17242
908.604	17090
908.72	17006
908.836	17052
908.952	17033
909.068	17067
909.184	17109
909.3	17010
909.415	17064
909.531	17006
909.647	16828
909.762	16809
909.878	16634
909.993	16675
910.108	16793
910.224	16755
910.339	16675
910.454	16550
910.57	16573
910.685	16497
910.8	16831
910.915	16725
911.03	16512
911.145	16344
911.259	16382
911.374	16322
911.489	16143
911.604	16204
911.718	16090
911.833	16177
911.947	15994
912.062	15937
912.176	15956
912.291	16044
912.405	16036
912.519	16204
912.633	16295
912.748	16112
912.862	16029
912.976	15842
913.09	15778
913.204	15850
913.318	15831
913.431	15979
913.545	15979
913.659	15975
913.772	15850
913.886	15679
914	15656
914.113	15880
914.226	15762
914.34	15717
914.453	15572
914.566	15709
914.68	15603
914.793	15473
914.906	15389
915.019	15344
915.132	15405
915.245	15348
915.358	15218
915.47	15321
915.583	15272
915.696	15329
915.809	15283
915.921	15401
916.034	15237
916.146	15287
916.259	15127
916.371	15359
916.483	15188
916.595	15108
916.708	15085
916.82	15131
916.932	15135
917.044	15108
917.156	15032
917.268	14929
917.38	14929
917.491	14979
917.603	14967
917.715	15100
917.826	14998
917.938	14941
918.049	14712
918.161	14861
918.272	14994
918.384	14986
918.495	14880
918.606	14750
918.717	14617
918.828	14861
918.939	14701
919.05	14693
919.161	14629
919.272	14419
919.383	14511
919.494	14739
919.604	14857
919.715	14625
919.826	14602
919.936	14613
920.047	14754
920.157	14655
920.267	14880
920.378	14648
920.488	14571
920.598	14804
920.708	14921
920.818	14705
920.928	14804
921.038	14979
921.148	14899
921.258	14651
921.368	14495
921.477	14396
921.587	14419
921.697	14225
921.806	14415
921.916	14191
922.025	14084
922.134	14111
922.244	14005
922.353	13986
922.462	13925
922.571	13883
922.68	13746
922.789	13742
922.898	13643
923.007	13609
923.116	13613
923.224	13597
923.333	13647
923.442	13426
923.55	13495
923.659	13533
923.767	13613
923.876	13438
923.984	13502
924.092	13438
924.201	13346
924.309	13464
924.417	13362
924.525	13293
924.633	13301
924.741	14221
924.849	13107
924.956	13217
925.064	13107
925.172	13057
925.279	13008
925.387	13152
925.494	13038
925.602	13179
925.709	13122
925.816	12985
925.924	13012
926.031	13088
926.138	13050
926.245	13050
926.352	12825
926.459	13065
926.566	13012
926.673	12970
926.779	12840
926.886	12837
926.993	12795
927.099	12623
927.206	12650
927.312	12570
927.419	12684
927.525	12658
927.631	12616
927.737	12528
927.843	12483
927.95	12384
928.056	12494
928.162	12536
928.267	12475
928.373	13152
928.479	12547
928.585	12311
928.69	12506
928.796	12467
928.901	12266
929.007	12133
929.112	12273
929.218	12273
929.323	12254
929.428	12095
929.533	12281
929.638	12121
929.743	12155
929.848	12163
929.953	12110
930.058	11992
930.163	11836
930.267	11878
930.372	11992
930.477	11851
930.581	12038
930.685	11973
930.79	11748
930.894	11733
930.998	11665
931.103	11893
931.207	11467
931.311	11356
931.415	11280
931.519	11136
931.623	11174
