Data from test_V78500241_15.txt Node
Date: Fri Mar 25 15:09:58 CST 2022
User: usil
Spectrometer: V785-0024
Trigger mode: 0
Integration Time (sec): 4.000000E-1
Scans to average: 1
Nonlinearity correction enabled: false
Boxcar width: 0
Storing dark spectrum: false
XAxis mode: Wavelengths
Number of Pixels in Spectrum: 1024
>>>>>Begin Spectral Data<<<<<
801.071	27854
801.214	27800
801.356	27557
801.499	27507
801.641	27329
801.783	27287
801.926	27260
802.068	27397
802.211	27275
802.353	27066
802.496	26933
802.638	26864
802.78	26899
802.923	26830
803.065	26765
803.208	26765
803.35	26743
803.492	26845
803.635	26975
803.777	26960
803.919	26948
804.061	27207
804.204	27093
804.346	26883
804.488	26788
804.63	26937
804.773	26727
804.915	26899
805.057	26876
805.199	26708
805.341	26975
805.483	26971
805.626	26819
805.768	26830
805.91	26830
806.052	27009
806.194	26876
806.336	27081
806.478	26868
806.62	26834
806.762	26918
806.904	27142
807.046	27336
807.188	27241
807.33	27150
807.472	27298
807.614	27169
807.756	27207
807.898	26963
808.04	26895
808.182	27127
808.324	27066
808.465	27157
808.607	27264
808.749	27351
808.891	27405
809.033	27622
809.174	27287
809.316	27386
809.458	27336
809.6	27249
809.741	27355
809.883	27466
810.025	27485
810.166	27580
810.308	27545
810.45	27466
810.591	27526
810.733	27283
810.875	27192
811.016	27230
811.158	27169
811.299	27222
811.441	27283
811.582	27245
811.724	27325
811.865	27184
812.007	27245
812.148	27332
812.29	27199
812.431	27386
812.573	27515
812.714	27686
812.855	27732
812.997	27846
813.138	27991
813.279	27888
813.421	27690
813.562	27644
813.703	27557
813.845	27443
813.986	27146
814.127	26872
814.268	26826
814.41	26952
814.551	26807
814.692	26788
814.833	26849
814.974	26769
815.115	26773
815.256	26670
815.397	26556
815.539	26712
815.68	26404
815.821	26431
815.962	26545
816.103	26438
816.244	26336
816.385	26309
816.526	26271
816.666	26096
816.807	25982
816.948	26031
817.089	25986
817.23	25989
817.371	25902
817.512	25966
817.653	25833
817.793	25856
817.934	25947
818.075	25811
818.216	25890
818.356	25753
818.497	25651
818.638	25506
818.778	25666
818.919	25670
819.06	25670
819.2	25563
819.341	25666
819.481	25757
819.622	25913
819.762	26084
819.903	26058
820.043	25955
820.184	25841
820.324	25921
820.465	25890
820.605	25989
820.746	25818
820.886	25719
821.026	25746
821.167	25746
821.307	25898
821.447	25772
821.588	25704
821.728	25616
821.868	25308
822.008	25240
822.149	25244
822.289	25213
822.429	25034
822.569	24829
822.709	24810
822.849	24661
822.99	24604
823.13	24608
823.27	24563
823.41	24429
823.55	24247
823.69	24403
823.83	24357
823.97	24403
824.11	24330
824.25	24209
824.389	24087
824.529	24292
824.669	24224
824.809	24262
824.949	24342
825.089	24232
825.228	24140
825.368	24136
825.508	23931
825.648	24022
825.787	24064
825.927	24121
826.067	23874
826.206	24022
826.346	23923
826.485	24060
826.625	24018
826.765	24144
826.904	23931
827.044	23798
827.183	23687
827.323	23657
827.462	23634
827.601	23585
827.741	23611
827.88	23627
828.02	23531
828.159	23649
828.298	23611
828.437	23646
828.577	23547
828.716	23733
828.855	23482
828.994	23398
829.134	23421
829.273	23459
829.412	23318
829.551	23337
829.69	23307
829.829	23273
829.968	23364
830.107	23433
830.246	23303
830.385	23269
830.524	23132
830.663	23235
830.802	22946
830.941	22904
831.08	22801
831.219	22854
831.357	22850
831.496	22991
831.635	22873
831.774	22892
831.913	22774
832.051	22584
832.19	22607
832.329	22618
832.467	22485
832.606	22295
832.744	22470
832.883	22348
833.022	22409
833.16	22527
833.299	22573
833.437	22519
833.576	22481
833.714	22447
833.852	22455
833.991	22607
834.129	22577
834.267	22588
834.406	22470
834.544	22485
834.682	22455
834.821	22440
834.959	22641
835.097	22432
835.235	22451
835.373	22455
835.511	22538
835.65	22398
835.788	22352
835.926	22162
836.064	22082
836.202	22223
836.34	22333
836.478	22417
836.615	22356
836.753	22348
836.891	22360
837.029	22394
837.167	22238
837.305	22207
837.443	22116
837.58	22139
837.718	22257
837.856	22131
837.993	22173
838.131	22196
838.269	22101
838.406	22048
838.544	21949
838.681	21827
838.819	21720
838.956	21587
839.094	21595
839.231	21557
839.369	21705
839.506	22017
839.643	21823
839.781	21549
839.918	21549
840.055	21557
840.193	21462
840.33	21492
840.467	21504
840.604	21500
840.742	21823
840.879	21351
841.016	21302
841.153	21310
841.29	21485
841.427	21504
841.564	21519
841.701	21424
841.838	21428
841.975	21382
842.112	21382
842.249	21188
842.385	21165
842.522	21424
842.659	21230
842.796	21116
842.933	21222
843.069	21116
843.206	21119
843.343	21188
843.479	21252
843.616	21135
843.752	21028
843.889	20971
844.025	20979
844.162	20823
844.298	21108
844.435	20845
844.571	20868
844.708	20967
844.844	21123
844.98	21112
845.117	21058
845.253	20830
845.389	20796
845.525	20800
845.661	20743
845.798	20705
845.934	20648
846.07	20648
846.206	20571
846.342	20838
846.478	20564
846.614	20473
846.75	20336
846.886	20252
847.022	20514
847.158	20434
847.294	20423
847.429	20480
847.565	20366
847.701	20571
847.837	20130
847.972	20172
848.108	20153
848.244	20168
848.379	20062
848.515	19879
848.65	19944
848.786	19875
848.921	19879
849.057	20062
849.192	20005
849.328	19906
849.463	19955
849.598	19871
849.734	19662
849.869	19719
850.004	19658
850.14	19639
850.275	19635
850.41	19502
850.545	19616
850.68	19769
850.815	19586
850.95	19658
851.085	19814
851.22	19712
851.355	19548
851.49	19590
851.625	19601
851.76	19590
851.895	19529
852.03	19495
852.165	19521
852.299	19518
852.434	19651
852.569	19518
852.703	19518
852.838	19639
852.973	19719
853.107	19704
853.242	19419
853.376	19419
853.511	19343
853.645	19365
853.78	19540
853.914	19548
854.048	19430
854.183	19358
854.317	19434
854.451	19689
854.585	19396
854.72	19324
854.854	19537
854.988	19381
855.122	19403
855.256	19320
855.39	19438
855.524	19411
855.658	19377
855.792	19438
855.926	19464
856.06	19422
856.194	19552
856.327	19419
856.461	19339
856.595	19343
856.729	19343
856.862	19601
856.996	19556
857.13	19480
857.263	19422
857.397	19476
857.53	19339
857.664	19388
857.797	19460
857.931	19540
858.064	19331
858.197	19529
858.331	19350
858.464	19407
858.597	19320
858.731	19255
858.864	19297
858.997	19388
859.13	19293
859.263	19289
859.396	19453
859.529	19312
859.662	19411
859.795	19339
859.928	19369
860.061	19510
860.194	19476
860.327	19426
860.46	19377
860.592	19449
860.725	19415
860.858	19468
860.99	19346
861.123	19160
861.256	19346
861.388	19217
861.521	20039
861.653	19270
861.786	19042
861.918	19270
862.05	19164
862.183	19384
862.315	19411
862.447	19422
862.58	19377
862.712	19236
862.844	19065
862.976	19152
863.108	19034
863.24	19537
863.372	18943
863.504	18993
863.636	19084
863.768	19027
863.9	19031
864.032	18939
864.164	18863
864.296	19103
864.428	19065
864.559	19137
864.691	19118
864.823	19103
864.954	18890
865.086	19019
865.217	19015
865.349	18825
865.48	18973
865.612	18981
865.743	18993
865.875	19046
866.006	19000
866.137	18924
866.269	18928
866.4	18996
866.531	18939
866.662	18973
866.793	18859
866.924	18875
867.055	18871
867.186	18894
867.317	18776
867.448	18772
867.579	18833
867.71	18829
867.841	18829
867.972	18943
868.103	18935
868.233	18943
868.364	18791
868.495	19000
868.625	19133
868.756	19190
868.886	19034
869.017	19160
869.147	19168
869.278	19259
869.408	19050
869.539	19107
869.669	19141
869.799	19251
869.929	19156
870.06	19225
870.19	19476
870.32	19320
870.45	19449
870.58	19483
870.71	19628
870.84	19651
870.97	19559
871.1	19525
871.23	19674
871.36	19849
871.489	19556
871.619	19708
871.749	19670
871.879	19727
872.008	19864
872.138	19837
872.267	19723
872.397	19537
872.526	19559
872.656	19464
872.785	19422
872.915	19655
873.044	19746
873.173	19864
873.303	19738
873.432	19738
873.561	19890
873.69	19712
873.819	19799
873.948	19841
874.077	19788
874.206	19780
874.335	19727
874.464	19845
874.593	20153
874.722	19883
874.851	20005
874.979	20046
875.108	20157
875.237	19986
875.365	19970
875.494	20054
875.623	20153
875.751	19906
875.88	20039
876.008	20111
876.136	20195
876.265	20492
876.393	20518
876.521	20594
876.65	20476
876.778	20434
876.906	20343
877.034	20328
877.162	20526
877.29	20286
877.418	20457
877.546	20393
877.674	20400
877.802	20389
877.93	20393
878.058	20324
878.185	20244
878.313	20343
878.441	20355
878.568	20259
878.696	20240
878.824	20442
878.951	20450
879.079	20499
879.206	20602
879.333	20640
879.461	20317
879.588	20480
879.715	20484
879.842	20644
879.97	20396
880.097	20195
880.224	20210
880.351	20225
880.478	20119
880.605	20202
880.732	20278
880.859	20381
880.986	20218
881.112	20278
881.239	20180
881.366	19974
881.493	19856
881.619	19799
881.746	19814
881.872	19799
881.999	19719
882.125	19753
882.252	19936
882.378	19833
882.505	19936
882.631	19723
882.757	19491
882.883	19609
883.01	19605
883.136	19601
883.262	19426
883.388	19457
883.514	19655
883.64	19670
883.766	19586
883.892	19365
884.018	19426
884.143	19540
884.269	19647
884.395	19415
884.52	19202
884.646	19221
884.772	19297
884.897	19141
885.023	19183
885.148	19320
885.274	19301
885.399	19426
885.524	19206
885.65	19350
885.775	19263
885.9	19232
886.025	19499
886.15	19331
886.275	19171
886.4	19107
886.525	19122
886.65	19088
886.775	19057
886.9	19293
887.025	19506
887.149	19244
887.274	19076
887.399	18901
887.523	19061
887.648	18962
887.773	18875
887.897	18947
888.021	19065
888.146	18935
888.27	19004
888.395	19091
888.519	19019
888.643	19046
888.767	19042
888.891	18973
889.015	18817
889.139	18848
889.263	18795
889.387	18848
889.511	18932
889.635	18882
889.759	18776
889.883	18601
890.006	18772
890.13	18749
890.254	18711
890.377	18757
890.501	18525
890.624	18551
890.748	18650
890.871	18528
890.995	18308
891.118	18388
891.241	18395
891.364	18448
891.488	18528
891.611	18403
891.734	18456
891.857	18445
891.98	18426
892.103	18479
892.226	18418
892.349	18361
892.471	18117
892.594	18365
892.717	18429
892.839	18350
892.962	18391
893.085	18414
893.207	18342
893.33	18220
893.452	18292
893.575	18311
893.697	18247
893.819	18471
893.941	18521
894.064	18441
894.186	18251
894.308	18323
894.43	18475
894.552	18426
894.674	18346
894.796	18266
894.918	18216
895.04	18296
895.161	18315
895.283	18502
895.405	18266
895.526	18376
895.648	18315
895.769	18372
895.891	18467
896.012	18407
896.134	18456
896.255	18486
896.376	18285
896.498	18315
896.619	18414
896.74	18399
896.861	18464
896.982	18829
897.103	18901
897.224	18661
897.345	18738
897.466	18574
897.587	18623
897.708	18760
897.828	18692
897.949	18601
898.07	18513
898.19	18441
898.311	18734
898.431	18593
898.552	18612
898.672	18650
898.792	18669
898.913	18642
899.033	18441
899.153	18490
899.273	18376
899.393	18365
899.513	18384
899.633	18361
899.753	18350
899.873	18372
899.993	18395
900.113	18270
900.232	18315
900.352	18205
900.472	18243
900.591	17984
900.711	18197
900.83	18136
900.95	18235
901.069	18388
901.189	18174
901.308	17969
901.427	17760
901.546	17756
901.665	17760
901.784	17859
901.904	17532
902.023	17512
902.141	17296
902.26	17227
902.379	17440
902.498	17277
902.617	17185
902.735	17334
902.854	17204
902.973	17189
903.091	17033
903.21	17018
903.328	17083
903.446	16900
903.565	16877
903.683	16755
903.801	16736
903.919	16805
904.038	16790
904.156	16622
904.274	16653
904.392	16538
904.51	16497
904.627	16611
904.745	16706
904.863	16656
904.981	16280
905.098	16265
905.216	16249
905.334	16219
905.451	16242
905.569	16272
905.686	16223
905.803	16284
905.921	16124
906.038	16177
906.155	16044
906.272	15915
906.389	15895
906.506	15755
906.623	15846
906.74	15701
906.857	15713
906.974	15679
907.091	15888
907.208	15778
907.324	15808
907.441	15629
907.557	15545
907.674	15549
907.79	15481
907.907	15538
908.023	15416
908.139	15416
908.256	15370
908.372	15416
908.488	15287
908.604	15157
908.72	15100
908.836	15169
908.952	15142
909.068	15195
909.184	15268
909.3	15252
909.415	15123
909.531	15192
909.647	14941
909.762	14891
909.878	14876
909.993	14902
910.108	14834
910.224	14807
910.339	14887
910.454	14724
910.57	14663
910.685	14712
910.8	14914
910.915	14826
911.03	14712
911.145	14526
911.259	14480
911.374	14404
911.489	14499
911.604	14427
911.718	14225
911.833	14278
911.947	14111
912.062	14054
912.176	14233
912.291	14237
912.405	14256
912.519	14313
912.633	14454
912.748	14256
912.862	14145
912.976	14035
913.09	13883
913.204	14088
913.318	13989
913.431	14119
913.545	14153
913.659	14191
913.772	14062
913.886	13902
914	13890
914.113	13947
914.226	13982
914.34	13970
914.453	13803
914.566	13913
914.68	13845
914.793	13849
914.906	13655
915.019	13590
915.132	13415
915.245	13540
915.358	13582
915.47	13590
915.583	13487
915.696	13647
915.809	13693
915.921	13734
916.034	13495
916.146	13499
916.259	13529
916.371	13487
916.483	13480
916.595	13460
916.708	13460
916.82	13480
916.932	13354
917.044	13384
917.156	13270
917.268	13247
917.38	13346
917.491	13240
917.603	13183
917.715	13297
917.826	13392
917.938	13247
918.049	13187
918.161	13285
918.272	13335
918.384	13282
918.495	13160
918.606	13145
918.717	13038
918.828	13012
918.939	12954
919.05	12977
919.161	13046
919.272	12821
919.383	12848
919.494	13076
919.604	13190
919.715	13015
919.826	12905
919.936	13034
920.047	13122
920.157	12962
920.267	13259
920.378	13019
920.488	12958
920.598	13179
920.708	13320
920.818	13118
920.928	13133
921.038	13354
921.148	13293
921.258	13000
921.368	12905
921.477	12783
921.587	12825
921.697	12574
921.806	12757
921.916	12627
922.025	12437
922.134	12426
922.244	12289
922.353	12475
922.462	12228
922.571	12258
922.68	12125
922.789	12136
922.898	12011
923.007	11984
923.116	12114
923.224	12011
923.333	12057
923.442	11950
923.55	11916
923.659	12015
923.767	12045
923.876	11870
923.984	11988
924.092	11745
924.201	11870
924.309	11927
924.417	11866
924.525	11760
924.633	11756
924.741	12506
924.849	11581
924.956	11790
925.064	11646
925.172	11497
925.279	11547
925.387	11573
925.494	11646
925.602	11642
925.709	11547
925.816	11539
925.924	11532
926.031	11615
926.138	11486
926.245	11570
926.352	11467
926.459	11562
926.566	11596
926.673	11520
926.779	11417
926.886	11349
926.993	11216
927.099	11231
927.206	11181
927.312	11174
927.419	11227
927.525	11220
927.631	11265
927.737	11010
927.843	10980
927.95	10934
928.056	11056
928.162	10980
928.267	11045
928.373	11726
928.479	11090
928.585	10869
928.69	10968
928.796	11045
928.901	10866
929.007	10858
929.112	10858
929.218	10889
929.323	10714
929.428	10858
929.533	10953
929.638	10694
929.743	10736
929.848	10774
929.953	10801
930.058	10637
930.163	10440
930.267	10546
930.372	10641
930.477	10421
930.581	10634
930.685	10493
930.79	10421
930.894	10390
930.998	10295
931.103	10470
931.207	10177
931.311	10082
931.415	9960
931.519	9804
931.623	9736
