Data from test_V78500241_2224.txt Node
Date: Fri Mar 25 15:25:20 CST 2022
User: usil
Spectrometer: V785-0024
Trigger mode: 0
Integration Time (sec): 4.000000E-1
Scans to average: 1
Nonlinearity correction enabled: false
Boxcar width: 0
Storing dark spectrum: false
XAxis mode: Wavelengths
Number of Pixels in Spectrum: 1024
>>>>>Begin Spectral Data<<<<<
801.071	27660
801.214	27618
801.356	27264
801.499	27207
801.641	27260
801.783	27279
801.926	27165
802.068	27260
802.211	27032
802.353	26940
802.496	26982
802.638	26891
802.78	26857
802.923	26720
803.065	26731
803.208	26815
803.35	26849
803.492	26994
803.635	26937
803.777	26891
803.919	27074
804.061	27195
804.204	27161
804.346	27013
804.488	26815
804.63	27077
804.773	26880
804.915	26998
805.057	27222
805.199	26963
805.341	26990
805.483	27135
805.626	27123
805.768	27081
805.91	27043
806.052	27047
806.194	27192
806.336	27340
806.478	27108
806.62	27272
806.762	27116
806.904	27378
807.046	27644
807.188	27534
807.33	27481
807.472	27663
807.614	27477
807.756	27492
807.898	27507
808.04	27336
808.182	27435
808.324	27572
808.465	27454
808.607	27526
808.749	27789
808.891	27800
809.033	27857
809.174	27610
809.316	27755
809.458	27739
809.6	27663
809.741	27895
809.883	27854
810.025	28002
810.166	28093
810.308	28143
810.45	28002
810.591	27998
810.733	27823
810.875	27732
811.016	27481
811.158	27549
811.299	27720
811.441	27747
811.582	28097
811.724	27827
811.865	27564
812.007	27644
812.148	27759
812.29	27720
812.431	27789
812.573	28154
812.714	28272
812.855	28344
812.997	28238
813.138	28523
813.279	28344
813.421	28291
813.562	28257
813.703	28032
813.845	27934
813.986	27705
814.127	27576
814.268	27389
814.41	27583
814.551	27576
814.692	27504
814.833	27397
814.974	27408
815.115	27408
815.256	27226
815.397	27351
815.539	27325
815.68	27374
815.821	27275
815.962	27180
816.103	27203
816.244	27024
816.385	26979
816.526	26906
816.666	26853
816.807	26701
816.948	26819
817.089	26971
817.23	26602
817.371	26712
817.512	26750
817.653	26693
817.793	26484
817.934	26621
818.075	26598
818.216	26838
818.356	26541
818.497	26495
818.638	26503
818.778	26415
818.919	26484
819.06	26541
819.2	26686
819.341	26674
819.481	26693
819.622	26830
819.762	27017
819.903	26876
820.043	26800
820.184	26868
820.324	26792
820.465	26921
820.605	26743
820.746	26853
820.886	26792
821.026	26804
821.167	26629
821.307	26838
821.447	26765
821.588	26632
821.728	26484
821.868	26320
822.008	26050
822.149	26164
822.289	26122
822.429	25909
822.569	25860
822.709	25890
822.849	25594
822.99	25715
823.13	25613
823.27	25605
823.41	25571
823.55	25400
823.69	25495
823.83	25483
823.97	25419
824.11	25240
824.25	25148
824.389	25316
824.529	25316
824.669	25263
824.809	25422
824.949	25430
825.089	25339
825.228	25350
825.368	25160
825.508	25232
825.648	25122
825.787	25137
825.927	25209
826.067	25160
826.206	25129
826.346	25213
826.485	25164
826.625	25190
826.765	25316
826.904	25160
827.044	24852
827.183	24951
827.323	24859
827.462	24833
827.601	24817
827.741	24989
827.88	24886
828.02	24837
828.159	24825
828.298	24913
828.437	24962
828.577	24817
828.716	24867
828.855	24840
828.994	24433
829.134	24544
829.273	24505
829.412	24475
829.551	24593
829.69	24513
829.829	24578
829.968	24684
830.107	24661
830.246	24608
830.385	24623
830.524	24555
830.663	24258
830.802	24266
830.941	24068
831.08	24121
831.219	24213
831.357	24254
831.496	24414
831.635	24178
831.774	24083
831.913	24041
832.051	23912
832.19	23893
832.329	24015
832.467	23859
832.606	23912
832.744	23710
832.883	23882
833.022	23771
833.16	23916
833.299	24038
833.437	23817
833.576	23939
833.714	23935
833.852	24018
833.991	23961
834.129	23996
834.267	24072
834.406	23901
834.544	23790
834.682	23760
834.821	23851
834.959	23897
835.097	23832
835.235	23901
835.373	23798
835.511	23897
835.65	23767
835.788	23817
835.926	23745
836.064	23566
836.202	23630
836.34	23756
836.478	23638
836.615	23718
836.753	23710
836.891	23760
837.029	23680
837.167	23691
837.305	23680
837.443	23619
837.58	23551
837.718	23722
837.856	23646
837.993	23566
838.131	23429
838.269	23524
838.406	23433
838.544	23463
838.681	23246
838.819	23231
838.956	23056
839.094	23029
839.231	23178
839.369	23216
839.506	23330
839.643	23273
839.781	22987
839.918	22889
840.055	23064
840.193	23102
840.33	23010
840.467	22972
840.604	22953
840.742	23212
840.879	22824
841.016	22881
841.153	22862
841.29	22980
841.427	22927
841.564	23044
841.701	22942
841.838	22889
841.975	22930
842.112	22793
842.249	22782
842.385	22717
842.522	22835
842.659	22660
842.796	22634
842.933	22698
843.069	22599
843.206	22683
843.343	22710
843.479	22744
843.616	22698
843.752	22546
843.889	22607
844.025	22611
844.162	22466
844.298	22694
844.435	22432
844.571	22455
844.708	22508
844.844	22729
844.98	22698
845.117	22577
845.253	22466
845.389	22413
845.525	22546
845.661	22363
845.798	22215
845.934	22249
846.07	22101
846.206	22249
846.342	22329
846.478	22211
846.614	21915
846.75	21930
846.886	21888
847.022	22086
847.158	21972
847.294	21987
847.429	22059
847.565	21998
847.701	22246
847.837	21732
847.972	21690
848.108	21846
848.244	21812
848.379	21618
848.515	21583
848.65	21511
848.786	21618
848.921	21622
849.057	21614
849.192	21568
849.328	21648
849.463	21553
849.598	21523
849.734	21336
849.869	21447
850.004	21374
850.14	21329
850.275	21317
850.41	21272
850.545	21275
850.68	21359
850.815	21389
850.95	21298
851.085	21526
851.22	21412
851.355	21382
851.49	21272
851.625	21245
851.76	21310
851.895	21226
852.03	21203
852.165	21370
852.299	21321
852.434	21462
852.569	21454
852.703	21241
852.838	21279
852.973	21439
853.107	21378
853.242	21218
853.376	21192
853.511	21100
853.645	21165
853.78	21150
853.914	21214
854.048	21161
854.183	21028
854.317	21237
854.451	21317
854.585	21036
854.72	21233
854.854	21100
854.988	21127
855.122	21066
855.256	21093
855.39	21028
855.524	21237
855.658	21131
855.792	21100
855.926	21192
856.06	21211
856.194	21173
856.327	21108
856.461	21024
856.595	21184
856.729	21036
856.862	21260
856.996	21074
857.13	21074
857.263	21264
857.397	21157
857.53	21047
857.664	21131
857.797	21173
857.931	21127
858.064	21142
858.197	21264
858.331	21184
858.464	21077
858.597	21009
858.731	21066
858.864	21017
858.997	21043
859.13	21157
859.263	21161
859.396	21199
859.529	21039
859.662	21135
859.795	21058
859.928	21096
860.061	21237
860.194	21389
860.327	21146
860.46	21085
860.592	21313
860.725	21222
860.858	21241
860.99	21142
861.123	21081
861.256	21108
861.388	21077
861.521	21895
861.653	20929
861.786	21001
861.918	20902
862.05	21001
862.183	20910
862.315	21119
862.447	21108
862.58	20910
862.712	20883
862.844	20823
862.976	20956
863.108	20823
863.24	21081
863.372	20872
863.504	20727
863.636	20785
863.768	20952
863.9	20792
864.032	20640
864.164	20735
864.296	20891
864.428	20941
864.559	20933
864.691	20842
864.823	20773
864.954	20792
865.086	20773
865.217	20819
865.349	20629
865.48	20648
865.612	20716
865.743	20720
865.875	20636
866.006	20842
866.137	20629
866.269	20705
866.4	20667
866.531	20678
866.662	20545
866.793	20712
866.924	20663
867.055	20606
867.186	20682
867.317	20689
867.448	20480
867.579	20659
867.71	20632
867.841	20549
867.972	20762
868.103	20590
868.233	20769
868.364	20705
868.495	20857
868.625	20872
868.756	21024
868.886	20941
869.017	20819
869.147	20944
869.278	21131
869.408	20834
869.539	21005
869.669	20933
869.799	21043
869.929	21051
870.06	20990
870.19	21237
870.32	21199
870.45	21283
870.58	21188
870.71	21454
870.84	21435
870.97	21310
871.1	21230
871.23	21496
871.36	21507
871.489	21359
871.619	21526
871.749	21492
871.879	21526
872.008	21576
872.138	21462
872.267	21492
872.397	21359
872.526	21302
872.656	21321
872.785	21184
872.915	21595
873.044	21523
873.173	21633
873.303	21496
873.432	21526
873.561	21633
873.69	21526
873.819	21606
873.948	21660
874.077	21435
874.206	21443
874.335	21431
874.464	21629
874.593	21747
874.722	21682
874.851	21663
874.979	21732
875.108	21713
875.237	21652
875.365	21720
875.494	21618
875.623	21884
875.751	21759
875.88	21751
876.008	21816
876.136	21819
876.265	22211
876.393	22261
876.521	22219
876.65	22238
876.778	22158
876.906	22097
877.034	21972
877.162	22124
877.29	22055
877.418	22135
877.546	22048
877.674	21979
877.802	22143
877.93	22154
878.058	22051
878.185	21979
878.313	22078
878.441	22112
878.568	21861
878.696	22025
878.824	22150
878.951	22230
879.079	22200
879.206	22394
879.333	22360
879.461	22238
879.588	22112
879.715	22329
879.842	22272
879.97	22131
880.097	21873
880.224	21884
880.351	21907
880.478	21941
880.605	21873
880.732	21945
880.859	22162
880.986	21983
881.112	22006
881.239	21816
881.366	21812
881.493	21622
881.619	21583
881.746	21561
881.872	21553
881.999	21488
882.125	21374
882.252	21454
882.378	21553
882.505	21545
882.631	21302
882.757	21249
882.883	21249
883.01	21146
883.136	21195
883.262	21093
883.388	21043
883.514	21313
883.64	21321
883.766	21127
883.892	20990
884.018	21100
884.143	21241
884.269	21264
884.395	20921
884.52	20864
884.646	20899
884.772	20853
884.897	20762
885.023	20883
885.148	20960
885.274	20960
885.399	20849
885.524	20876
885.65	20887
885.775	20815
885.9	20868
886.025	20929
886.15	20941
886.275	20842
886.4	20731
886.525	20845
886.65	20754
886.775	20754
886.9	21017
887.025	20994
887.149	20788
887.274	20754
887.399	20564
887.523	20644
887.648	20568
887.773	20583
887.897	20708
888.021	20602
888.146	20499
888.27	20613
888.395	20739
888.519	20629
888.643	20667
888.767	20674
888.891	20526
889.015	20454
889.139	20514
889.263	20511
889.387	20571
889.511	20674
889.635	20568
889.759	20423
889.883	20362
890.006	20533
890.13	20507
890.254	20431
890.377	20305
890.501	20187
890.624	20229
890.748	20240
890.871	20096
890.995	19917
891.118	20031
891.241	19989
891.364	20054
891.488	20130
891.611	19902
891.734	20062
891.857	20138
891.98	19989
892.103	20005
892.226	20024
892.349	19986
892.471	19776
892.594	19875
892.717	20027
892.839	20020
892.962	19890
893.085	20012
893.207	19909
893.33	19928
893.452	19849
893.575	19936
893.697	19902
893.819	20100
893.941	20122
894.064	20153
894.186	19727
894.308	19795
894.43	19982
894.552	20035
894.674	19982
894.796	19807
894.918	19986
895.04	19841
895.161	19963
895.283	19917
895.405	19830
895.526	19833
895.648	19967
895.769	19963
895.891	20100
896.012	19928
896.134	19982
896.255	19898
896.376	19921
896.498	19841
896.619	19947
896.74	19925
896.861	19917
896.982	20271
897.103	20495
897.224	20157
897.345	20183
897.466	19982
897.587	19947
897.708	20347
897.828	20153
897.949	19944
898.07	19951
898.19	20050
898.311	20263
898.431	20107
898.552	20005
898.672	20202
898.792	20225
898.913	20153
899.033	20142
899.153	19845
899.273	19780
899.393	19818
899.513	19856
899.633	19917
899.753	19913
899.873	19902
899.993	19917
900.113	19811
900.232	19864
900.352	19791
900.472	19799
900.591	19662
900.711	19643
900.83	19655
900.95	19837
901.069	19670
901.189	19628
901.308	19384
901.427	19187
901.546	19221
901.665	19308
901.784	19263
901.904	19171
902.023	19023
902.141	18798
902.26	18741
902.379	18867
902.498	18821
902.617	18738
902.735	18741
902.854	18715
902.973	18734
903.091	18517
903.21	18414
903.328	18426
903.446	18357
903.565	18262
903.683	18330
903.801	18129
903.919	18228
904.038	18220
904.156	18045
904.274	18144
904.392	18049
904.51	17927
904.627	17965
904.745	17980
904.863	18015
904.981	17809
905.098	17573
905.216	17619
905.334	17699
905.451	17695
905.569	17672
905.686	17843
905.803	17543
905.921	17455
906.038	17630
906.155	17459
906.272	17337
906.389	17391
906.506	17277
906.623	17227
906.74	17261
906.857	17083
906.974	17220
907.091	17208
907.208	17299
907.324	17258
907.441	17086
907.557	17010
907.674	16972
907.79	16881
907.907	16869
908.023	16858
908.139	16934
908.256	16847
908.372	16790
908.488	16839
908.604	16687
908.72	16607
908.836	16675
908.952	16630
909.068	16683
909.184	16725
909.3	16721
909.415	16721
909.531	16694
909.647	16417
909.762	16390
909.878	16379
909.993	16360
910.108	16325
910.224	16341
910.339	16382
910.454	16242
910.57	16169
910.685	16147
910.8	16436
910.915	16333
911.03	16162
911.145	16093
911.259	15899
911.374	15975
911.489	15972
911.604	15880
911.718	15682
911.833	15728
911.947	15713
912.062	15523
912.176	15675
912.291	15671
912.405	15644
912.519	15869
912.633	15987
912.748	15720
912.862	15648
912.976	15504
913.09	15466
913.204	15466
913.318	15481
913.431	15679
913.545	15545
913.659	15564
913.772	15538
913.886	15325
914	15378
914.113	15469
914.226	15428
914.34	15378
914.453	15142
914.566	15405
914.68	15252
914.793	15230
914.906	14971
915.019	15009
915.132	14883
915.245	14914
915.358	14982
915.47	14952
915.583	14952
915.696	14823
915.809	15116
915.921	15009
916.034	14872
916.146	14830
916.259	14781
916.371	14864
916.483	14853
916.595	14701
916.708	14765
916.82	14731
916.932	14720
917.044	14773
917.156	14720
917.268	14610
917.38	14644
917.491	14625
917.603	14629
917.715	14746
917.826	14708
917.938	14575
918.049	14473
918.161	14632
918.272	14587
918.384	14610
918.495	14549
918.606	14324
918.717	14301
918.828	14389
918.939	14446
919.05	14229
919.161	14275
919.272	14172
919.383	14221
919.494	14313
919.604	14514
919.715	14324
919.826	14240
919.936	14199
920.047	14332
920.157	14381
920.267	14526
920.378	14389
920.488	14259
920.598	14514
920.708	14648
920.818	14389
920.928	14419
921.038	14590
921.148	14541
921.258	14313
921.368	14183
921.477	14103
921.587	14027
921.697	13909
921.806	14081
921.916	13932
922.025	13708
922.134	13715
922.244	13685
922.353	13700
922.462	13628
922.571	13582
922.68	13400
922.789	13392
922.898	13339
923.007	13270
923.116	13403
923.224	13350
923.333	13244
923.442	13247
923.55	13156
923.659	13255
923.767	13255
923.876	13103
923.984	13350
924.092	13031
924.201	13137
924.309	13065
924.417	13069
924.525	13023
924.633	13072
924.741	13799
924.849	12764
924.956	12993
925.064	12833
925.172	12776
925.279	12760
925.387	12859
925.494	12726
925.602	12909
925.709	12817
925.816	12681
925.924	12688
926.031	12833
926.138	12760
926.245	12730
926.352	12608
926.459	12703
926.566	12802
926.673	12677
926.779	12479
926.886	12589
926.993	12350
927.099	12342
927.206	12338
927.312	12289
927.419	12361
927.525	12308
927.631	12429
927.737	12228
927.843	12125
927.95	12079
928.056	12216
928.162	12106
928.267	12155
928.373	12837
928.479	12281
928.585	12026
928.69	12133
928.796	12133
928.901	12110
929.007	11878
929.112	12026
929.218	12049
929.323	11878
929.428	11904
929.533	11950
929.638	11771
929.743	11863
929.848	11927
929.953	11855
930.058	11668
930.163	11623
930.267	11661
930.372	11752
930.477	11520
930.581	11733
930.685	11619
930.79	11368
930.894	11528
930.998	11478
931.103	11676
931.207	11250
931.311	11117
931.415	11094
931.519	10843
931.623	10892
