Data from test_V78500241_2329.txt Node
Date: Fri Mar 25 15:26:04 CST 2022
User: usil
Spectrometer: V785-0024
Trigger mode: 0
Integration Time (sec): 4.000000E-1
Scans to average: 1
Nonlinearity correction enabled: false
Boxcar width: 0
Storing dark spectrum: false
XAxis mode: Wavelengths
Number of Pixels in Spectrum: 1024
>>>>>Begin Spectral Data<<<<<
801.071	27454
801.214	27427
801.356	27310
801.499	27222
801.641	27058
801.783	27195
801.926	27154
802.068	27032
802.211	26994
802.353	26811
802.496	26701
802.638	26686
802.78	26632
802.923	26659
803.065	26594
803.208	26469
803.35	26765
803.492	26758
803.635	26830
803.777	26663
803.919	26868
804.061	27081
804.204	26796
804.346	26864
804.488	26800
804.63	26952
804.773	26868
804.915	26876
805.057	26933
805.199	26834
805.341	26975
805.483	26994
805.626	27009
805.768	26952
805.91	26891
806.052	27119
806.194	26975
806.336	27138
806.478	26979
806.62	26994
806.762	27062
806.904	27146
807.046	27321
807.188	27378
807.33	27507
807.472	27431
807.614	27439
807.756	27408
807.898	27180
808.04	27112
808.182	27230
808.324	27310
808.465	27207
808.607	27427
808.749	27675
808.891	27526
809.033	27591
809.174	27713
809.316	27675
809.458	27500
809.6	27462
809.741	27778
809.883	27751
810.025	27751
810.166	27861
810.308	27804
810.45	27720
810.591	27713
810.733	27595
810.875	27641
811.016	27485
811.158	27443
811.299	27568
811.441	27599
811.582	27739
811.724	27637
811.865	27485
812.007	27469
812.148	27454
812.29	27618
812.431	27701
812.573	27903
812.714	28029
812.855	28090
812.997	28226
813.138	28344
813.279	28128
813.421	28013
813.562	28002
813.703	27964
813.845	27823
813.986	27507
814.127	27336
814.268	27260
814.41	27150
814.551	27142
814.692	27427
814.833	27150
814.974	27268
815.115	27302
815.256	27233
815.397	27165
815.539	27100
815.68	27051
815.821	27020
815.962	27001
816.103	26853
816.244	26781
816.385	26857
816.526	26773
816.666	26636
816.807	26533
816.948	26533
817.089	26739
817.23	26511
817.371	26625
817.512	26457
817.653	26545
817.793	26423
817.934	26568
818.075	26469
818.216	26594
818.356	26484
818.497	26419
818.638	26199
818.778	26199
818.919	26225
819.06	26240
819.2	26355
819.341	26480
819.481	26503
819.622	26651
819.762	26796
819.903	26743
820.043	26743
820.184	26526
820.324	26663
820.465	26663
820.605	26587
820.746	26545
820.886	26594
821.026	26579
821.167	26568
821.307	26465
821.447	26526
821.588	26476
821.728	26324
821.868	26278
822.008	26149
822.149	26027
822.289	25963
822.429	25666
822.569	25674
822.709	25696
822.849	25483
822.99	25396
823.13	25521
823.27	25487
823.41	25449
823.55	25168
823.69	25266
823.83	25304
823.97	25297
824.11	25198
824.25	25072
824.389	25110
824.529	25156
824.669	25175
824.809	25304
824.949	25171
825.089	25187
825.228	25129
825.368	25023
825.508	24973
825.648	24947
825.787	24989
825.927	25103
826.067	24878
826.206	25004
826.346	24970
826.485	25122
826.625	24852
826.765	25103
826.904	25122
827.044	24787
827.183	24719
827.323	24677
827.462	24814
827.601	24745
827.741	24604
827.88	24787
828.02	24635
828.159	24536
828.298	24661
828.437	24848
828.577	24593
828.716	24798
828.855	24639
828.994	24456
829.134	24323
829.273	24380
829.412	24513
829.551	24266
829.69	24429
829.829	24308
829.968	24391
830.107	24601
830.246	24486
830.385	24270
830.524	24304
830.663	24174
830.802	23988
830.941	23931
831.08	24034
831.219	24079
831.357	24220
831.496	24311
831.635	24015
831.774	23874
831.913	23965
832.051	23809
832.19	23802
832.329	23874
832.467	23535
832.606	23684
832.744	23676
832.883	23661
833.022	23627
833.16	23741
833.299	23752
833.437	23824
833.576	23729
833.714	23760
833.852	23779
833.991	23851
834.129	23805
834.267	23805
834.406	23680
834.544	23843
834.682	23665
834.821	23798
834.959	23794
835.097	23741
835.235	23870
835.373	23722
835.511	23668
835.65	23493
835.788	23539
835.926	23577
836.064	23376
836.202	23425
836.34	23596
836.478	23783
836.615	23531
836.753	23467
836.891	23562
837.029	23562
837.167	23471
837.305	23406
837.443	23474
837.58	23372
837.718	23440
837.856	23474
837.993	23493
838.131	23280
838.269	23341
838.406	23341
838.544	23147
838.681	23083
838.819	23033
838.956	22812
839.094	22927
839.231	22946
839.369	23041
839.506	23273
839.643	23098
839.781	22972
839.918	22702
840.055	22866
840.193	22885
840.33	22691
840.467	22744
840.604	22801
840.742	23006
840.879	22725
841.016	22702
841.153	22592
841.29	22866
841.427	22801
841.564	22854
841.701	22923
841.838	22694
841.975	22752
842.112	22653
842.249	22664
842.385	22611
842.522	22687
842.659	22615
842.796	22516
842.933	22645
843.069	22466
843.206	22577
843.343	22649
843.479	22634
843.616	22504
843.752	22314
843.889	22344
844.025	22584
844.162	22257
844.298	22478
844.435	22371
844.571	22272
844.708	22371
844.844	22497
844.98	22497
845.117	22447
845.253	22253
845.389	22303
845.525	22215
845.661	22169
845.798	21956
845.934	22162
846.07	22032
846.206	22135
846.342	22196
846.478	22188
846.614	21808
846.75	21861
846.886	21861
847.022	21930
847.158	21937
847.294	21964
847.429	21941
847.565	21743
847.701	22044
847.837	21587
847.972	21485
848.108	21724
848.244	21603
848.379	21534
848.515	21424
848.65	21351
848.786	21416
848.921	21431
849.057	21504
849.192	21542
849.328	21405
849.463	21428
849.598	21367
849.734	21275
849.869	21237
850.004	21180
850.14	21241
850.275	21184
850.41	21138
850.545	21146
850.68	21199
850.815	21214
850.95	21108
851.085	21481
851.22	21268
851.355	21264
851.49	21184
851.625	21089
851.76	21176
851.895	21077
852.03	21058
852.165	21131
852.299	21249
852.434	21317
852.569	21241
852.703	21180
852.838	21233
852.973	21325
853.107	21268
853.242	21245
853.376	20986
853.511	20910
853.645	21032
853.78	21138
853.914	21009
854.048	20979
854.183	20975
854.317	20963
854.451	21237
854.585	20990
854.72	21146
854.854	21176
854.988	20967
855.122	20960
855.256	20891
855.39	20902
855.524	21039
855.658	21142
855.792	21146
855.926	21127
856.06	21058
856.194	21108
856.327	20876
856.461	20910
856.595	20986
856.729	20952
856.862	21096
856.996	21096
857.13	21085
857.263	21066
857.397	21074
857.53	20971
857.664	21028
857.797	21112
857.931	21127
858.064	20998
858.197	21142
858.331	21036
858.464	20994
858.597	20971
858.731	21051
858.864	21028
858.997	20952
859.13	21093
859.263	21085
859.396	21203
859.529	20941
859.662	20967
859.795	21032
859.928	21058
860.061	21249
860.194	21161
860.327	21043
860.46	21070
860.592	21135
860.725	21184
860.858	21039
860.99	21081
861.123	20998
861.256	20876
861.388	21119
861.521	21473
861.653	20838
861.786	20842
861.918	20899
862.05	20979
862.183	21055
862.315	20982
862.447	21081
862.58	20887
862.712	20632
862.844	20823
862.976	20887
863.108	20868
863.24	21298
863.372	20716
863.504	20701
863.636	20670
863.768	20640
863.9	20769
864.032	20659
864.164	20716
864.296	20712
864.428	20883
864.559	20735
864.691	20743
864.823	20834
864.954	20701
865.086	20686
865.217	20667
865.349	20438
865.48	20659
865.612	20583
865.743	20773
865.875	20621
866.006	20541
866.137	20609
866.269	20670
866.4	20629
866.531	20530
866.662	20526
866.793	20651
866.924	20552
867.055	20587
867.186	20564
867.317	20484
867.448	20518
867.579	20682
867.71	20431
867.841	20415
867.972	20613
868.103	20492
868.233	20575
868.364	20560
868.495	20674
868.625	20739
868.756	20895
868.886	20708
869.017	20735
869.147	20864
869.278	20975
869.408	20807
869.539	20819
869.669	20910
869.799	20925
869.929	21028
870.06	20971
870.19	21165
870.32	21051
870.45	21180
870.58	21211
870.71	21294
870.84	21405
870.97	21039
871.1	21203
871.23	21272
871.36	21443
871.489	21428
871.619	21397
871.749	21382
871.879	21435
872.008	21523
872.138	21462
872.267	21355
872.397	21165
872.526	21264
872.656	21233
872.785	21184
872.915	21488
873.044	21519
873.173	21420
873.303	21553
873.432	21420
873.561	21488
873.69	21580
873.819	21428
873.948	21553
874.077	21473
874.206	21435
874.335	21363
874.464	21545
874.593	21698
874.722	21663
874.851	21682
874.979	21648
875.108	21743
875.237	21682
875.365	21587
875.494	21660
875.623	21732
875.751	21606
875.88	21603
876.008	21728
876.136	21869
876.265	22128
876.393	22306
876.521	22063
876.65	22147
876.778	22048
876.906	21994
877.034	21930
877.162	22040
877.29	21949
877.418	21945
877.546	22044
877.674	21899
877.802	21953
877.93	22032
878.058	21937
878.185	21930
878.313	22059
878.441	22006
878.568	21899
878.696	21953
878.824	22093
878.951	22154
879.079	22124
879.206	22207
879.333	22135
879.461	22078
879.588	22150
879.715	22116
879.842	22230
879.97	22036
880.097	21876
880.224	21838
880.351	21915
880.478	21785
880.605	21895
880.732	21873
880.859	22025
880.986	21857
881.112	21827
881.239	21717
881.366	21690
881.493	21477
881.619	21344
881.746	21405
881.872	21424
881.999	21298
882.125	21363
882.252	21523
882.378	21355
882.505	21549
882.631	21222
882.757	21131
882.883	21165
883.01	21180
883.136	21024
883.262	20960
883.388	20948
883.514	21138
883.64	21150
883.766	21009
883.892	20910
884.018	20933
884.143	21123
884.269	21081
884.395	20823
884.52	20663
884.646	20815
884.772	20864
884.897	20689
885.023	20876
885.148	20864
885.274	20853
885.399	20857
885.524	20651
885.65	20792
885.775	20720
885.9	20826
886.025	20819
886.15	20773
886.275	20724
886.4	20735
886.525	20819
886.65	20686
886.775	20705
886.9	20830
887.025	20952
887.149	20697
887.274	20469
887.399	20606
887.523	20560
887.648	20503
887.773	20526
887.897	20579
888.021	20530
888.146	20476
888.27	20686
888.395	20712
888.519	20511
888.643	20583
888.767	20514
888.891	20389
889.015	20457
889.139	20358
889.263	20324
889.387	20469
889.511	20552
889.635	20476
889.759	20229
889.883	20294
890.006	20298
890.13	20427
890.254	20313
890.377	20237
890.501	20153
890.624	20058
890.748	20191
890.871	19921
890.995	19909
891.118	19887
891.241	19917
891.364	19951
891.488	20020
891.611	19868
891.734	19917
891.857	20012
891.98	19936
892.103	19921
892.226	19898
892.349	19807
892.471	19708
892.594	19727
892.717	19822
892.839	19753
892.962	19708
893.085	19932
893.207	19761
893.33	19757
893.452	19723
893.575	19864
893.697	19750
893.819	20001
893.941	20096
894.064	19849
894.186	19689
894.308	19731
894.43	19875
894.552	19970
894.674	19982
894.796	19708
894.918	19761
895.04	19814
895.161	19898
895.283	19860
895.405	19746
895.526	19803
895.648	19852
895.769	19788
895.891	19715
896.012	19974
896.134	19868
896.255	19814
896.376	19727
896.498	19822
896.619	19909
896.74	19799
896.861	19890
896.982	20069
897.103	20362
897.224	20199
897.345	19978
897.466	19951
897.587	20001
897.708	20187
897.828	20058
897.949	20031
898.07	19784
898.19	20027
898.311	20043
898.431	19978
898.552	19917
898.672	20122
898.792	20305
898.913	20103
899.033	19989
899.153	19864
899.273	19704
899.393	19761
899.513	19693
899.633	19803
899.753	19731
899.873	19715
899.993	19830
900.113	19788
900.232	19753
900.352	19788
900.472	19704
900.591	19537
900.711	19696
900.83	19464
900.95	19799
901.069	19715
901.189	19441
901.308	19179
901.427	19084
901.546	19213
901.665	19095
901.784	19141
901.904	19061
902.023	19019
902.141	18753
902.26	18745
902.379	18772
902.498	18646
902.617	18661
902.735	18722
902.854	18639
902.973	18730
903.091	18418
903.21	18300
903.328	18346
903.446	18334
903.565	18201
903.683	18232
903.801	18159
903.919	18247
904.038	18182
904.156	17927
904.274	18007
904.392	17874
904.51	17969
904.627	17920
904.745	17999
904.863	18041
904.981	17748
905.098	17585
905.216	17566
905.334	17722
905.451	17512
905.569	17512
905.686	17665
905.803	17623
905.921	17349
906.038	17467
906.155	17478
906.272	17318
906.389	17307
906.506	17121
906.623	17083
906.74	17128
906.857	17067
906.974	16961
907.091	17124
907.208	17208
907.324	17166
907.441	16999
907.557	16881
907.674	16767
907.79	16786
907.907	16721
908.023	16809
908.139	16869
908.256	16801
908.372	16805
908.488	16717
908.604	16588
908.72	16588
908.836	16573
908.952	16573
909.068	16596
909.184	16748
909.3	16588
909.415	16679
909.531	16577
909.647	16352
909.762	16299
909.878	16207
909.993	16337
910.108	16257
910.224	16211
910.339	16173
910.454	16086
910.57	16093
910.685	16055
910.8	16306
910.915	16192
911.03	16086
911.145	15956
911.259	15892
911.374	15895
911.489	15816
911.604	15709
911.718	15580
911.833	15648
911.947	15447
912.062	15424
912.176	15679
912.291	15633
912.405	15633
912.519	15789
912.633	15846
912.748	15667
912.862	15667
912.976	15439
913.09	15355
913.204	15428
913.318	15439
913.431	15587
913.545	15450
913.659	15523
913.772	15443
913.886	15329
914	15226
914.113	15279
914.226	15351
914.34	15260
914.453	15135
914.566	15199
914.68	15169
914.793	15058
914.906	14944
915.019	14880
915.132	14811
915.245	14845
915.358	14864
915.47	14895
915.583	14933
915.696	14925
915.809	15055
915.921	15017
916.034	14758
916.146	14701
916.259	14758
916.371	14830
916.483	14788
916.595	14579
916.708	14659
916.82	14689
916.932	14629
917.044	14727
917.156	14659
917.268	14488
917.38	14568
917.491	14499
917.603	14530
917.715	14640
917.826	14556
917.938	14450
918.049	14419
918.161	14408
918.272	14655
918.384	14522
918.495	14450
918.606	14343
918.717	14305
918.828	14305
918.939	14377
919.05	14218
919.161	14126
919.272	14084
919.383	14134
919.494	14324
919.604	14389
919.715	14286
919.826	14149
919.936	14168
920.047	14317
920.157	14123
920.267	14343
920.378	14336
920.488	14134
920.598	14339
920.708	14495
920.818	14332
920.928	14419
921.038	14590
921.148	14549
921.258	14252
921.368	14115
921.477	14039
921.587	13936
921.697	13925
921.806	13967
921.916	13868
922.025	13674
922.134	13647
922.244	13499
922.353	13636
922.462	13521
922.571	13445
922.68	13415
922.789	13240
922.898	13400
923.007	13244
923.116	13373
923.224	13301
923.333	13164
923.442	13129
923.55	13103
923.659	13145
923.767	13168
923.876	13152
923.984	13137
924.092	13019
924.201	13004
924.309	13015
924.417	12947
924.525	12897
924.633	12909
924.741	13856
924.849	12806
924.956	12886
925.064	12795
925.172	12623
925.279	12707
925.387	12719
925.494	12688
925.602	12852
925.709	12741
925.816	12662
925.924	12719
926.031	12711
926.138	12715
926.245	12696
926.352	12563
926.459	12711
926.566	12692
926.673	12688
926.779	12521
926.886	12452
926.993	12384
927.099	12342
927.206	12277
927.312	12296
927.419	12300
927.525	12323
927.631	12365
927.737	12243
927.843	12182
927.95	11999
928.056	12045
928.162	12152
928.267	12079
928.373	12825
928.479	12220
928.585	11961
928.69	12083
928.796	12011
928.901	12007
929.007	11802
929.112	11882
929.218	11897
929.323	11897
929.428	11817
929.533	12019
929.638	11786
929.743	11760
929.848	11824
929.953	11802
930.058	11668
930.163	11585
930.267	11592
930.372	11630
930.477	11471
930.581	11718
930.685	11577
930.79	11398
930.894	11448
930.998	11376
931.103	11512
931.207	11201
931.311	11117
931.415	10976
931.519	10748
931.623	10809
