Data from test_V78500241_1795.txt Node
Date: Fri Mar 25 15:22:21 CST 2022
User: usil
Spectrometer: V785-0024
Trigger mode: 0
Integration Time (sec): 4.000000E-1
Scans to average: 1
Nonlinearity correction enabled: false
Boxcar width: 0
Storing dark spectrum: false
XAxis mode: Wavelengths
Number of Pixels in Spectrum: 1024
>>>>>Begin Spectral Data<<<<<
801.071	27873
801.214	27732
801.356	27492
801.499	27481
801.641	27245
801.783	27450
801.926	27351
802.068	27275
802.211	27203
802.353	27272
802.496	26967
802.638	26956
802.78	27032
802.923	26887
803.065	26921
803.208	26998
803.35	27039
803.492	27074
803.635	27188
803.777	27176
803.919	27237
804.061	27538
804.204	27275
804.346	27275
804.488	26986
804.63	27237
804.773	27157
804.915	27256
805.057	27287
805.199	27222
805.341	27268
805.483	27386
805.626	27351
805.768	27275
805.91	27249
806.052	27241
806.194	27252
806.336	27416
806.478	27313
806.62	27355
806.762	27439
806.904	27568
807.046	27675
807.188	27831
807.33	27747
807.472	27709
807.614	27606
807.756	27724
807.898	27618
808.04	27515
808.182	27637
808.324	27656
808.465	27694
808.607	27781
808.749	27991
808.891	27987
809.033	28082
809.174	28029
809.316	27823
809.458	27854
809.6	27979
809.741	27994
809.883	28040
810.025	28143
810.166	28223
810.308	28329
810.45	28063
810.591	28059
810.733	27831
810.875	27888
811.016	27831
811.158	27911
811.299	28051
811.441	28067
811.582	28166
811.724	27994
811.865	28105
812.007	28029
812.148	27876
812.29	28154
812.431	28143
812.573	28192
812.714	28363
812.855	28470
812.997	28557
813.138	28706
813.279	28561
813.421	28462
813.562	28295
813.703	28329
813.845	28238
813.986	27930
814.127	27759
814.268	27625
814.41	27675
814.551	27701
814.692	27572
814.833	27511
814.974	27481
815.115	27717
815.256	27583
815.397	27504
815.539	27435
815.68	27447
815.821	27557
815.962	27504
816.103	27519
816.244	27173
816.385	27180
816.526	27256
816.666	27074
816.807	26971
816.948	26921
817.089	27135
817.23	26914
817.371	26971
817.512	26925
817.653	26891
817.793	26868
817.934	26861
818.075	26937
818.216	27013
818.356	26925
818.497	26781
818.638	26632
818.778	26632
818.919	26724
819.06	26674
819.2	26811
819.341	26891
819.481	26864
819.622	27146
819.762	27283
819.903	27154
820.043	27074
820.184	27142
820.324	27123
820.465	27077
820.605	27009
820.746	26979
820.886	26899
821.026	27032
821.167	26899
821.307	27142
821.447	26902
821.588	26891
821.728	26792
821.868	26480
822.008	26423
822.149	26423
822.289	26336
822.429	26065
822.569	26149
822.709	26081
822.849	25932
822.99	25765
823.13	25982
823.27	25879
823.41	25647
823.55	25540
823.69	25761
823.83	25693
823.97	25757
824.11	25388
824.25	25556
824.389	25655
824.529	25601
824.669	25506
824.809	25590
824.949	25651
825.089	25628
825.228	25677
825.368	25396
825.508	25460
825.648	25525
825.787	25518
825.927	25540
826.067	25339
826.206	25533
826.346	25449
826.485	25510
826.625	25419
826.765	25422
826.904	25559
827.044	25244
827.183	25209
827.323	25148
827.462	25190
827.601	25091
827.741	25278
827.88	25137
828.02	24985
828.159	25126
828.298	25190
828.437	25297
828.577	25103
828.716	25160
828.855	25099
828.994	24779
829.134	24745
829.273	24905
829.412	24795
829.551	24787
829.69	24882
829.829	24844
829.968	24859
830.107	24882
830.246	24802
830.385	24886
830.524	24776
830.663	24616
830.802	24528
830.941	24315
831.08	24467
831.219	24502
831.357	24555
831.496	24566
831.635	24505
831.774	24502
831.913	24483
832.051	24213
832.19	24178
832.329	24216
832.467	24182
832.606	24015
832.744	24243
832.883	24235
833.022	24114
833.16	24098
833.299	24121
833.437	24174
833.576	24194
833.714	24152
833.852	24315
833.991	24338
834.129	24311
834.267	24251
834.406	24220
834.544	24338
834.682	24087
834.821	24277
834.959	24311
835.097	24232
835.235	24266
835.373	24136
835.511	24178
835.65	24057
835.788	24076
835.926	23977
836.064	23954
836.202	23885
836.34	24152
836.478	24228
836.615	24152
836.753	24060
836.891	24194
837.029	24106
837.167	24102
837.305	23916
837.443	23973
837.58	23973
837.718	24045
837.856	23847
837.993	23912
838.131	23931
838.269	23874
838.406	23882
838.544	23722
838.681	23501
838.819	23524
838.956	23535
839.094	23421
839.231	23490
839.369	23501
839.506	23779
839.643	23566
839.781	23311
839.918	23360
840.055	23379
840.193	23356
840.33	23280
840.467	23334
840.604	23318
840.742	23680
840.879	23216
841.016	23246
841.153	23246
841.29	23372
841.427	23216
841.564	23349
841.701	23341
841.838	23261
841.975	23162
842.112	23174
842.249	23159
842.385	23064
842.522	23220
842.659	23067
842.796	23014
842.933	23014
843.069	23041
843.206	23003
843.343	23006
843.479	23140
843.616	23109
843.752	22904
843.889	22759
844.025	22972
844.162	22866
844.298	23014
844.435	22820
844.571	22862
844.708	22923
844.844	23029
844.98	22908
845.117	23037
845.253	22797
845.389	22630
845.525	22740
845.661	22694
845.798	22596
845.934	22588
846.07	22508
846.206	22637
846.342	22698
846.478	22675
846.614	22352
846.75	22230
846.886	22348
847.022	22322
847.158	22341
847.294	22204
847.429	22333
847.565	22314
847.701	22519
847.837	21979
847.972	22070
848.108	22101
848.244	22086
848.379	21979
848.515	21846
848.65	21812
848.786	21903
848.921	21869
849.057	22059
849.192	21975
849.328	22006
849.463	21899
849.598	21831
849.734	21747
849.869	21713
850.004	21789
850.14	21675
850.275	21682
850.41	21473
850.545	21549
850.68	21652
850.815	21667
850.95	21648
851.085	21838
851.22	21717
851.355	21656
851.49	21595
851.625	21595
851.76	21523
851.895	21538
852.03	21591
852.165	21667
852.299	21538
852.434	21865
852.569	21660
852.703	21827
852.838	21747
852.973	21720
853.107	21633
853.242	21667
853.376	21557
853.511	21378
853.645	21416
853.78	21504
853.914	21534
854.048	21401
854.183	21496
854.317	21534
854.451	21682
854.585	21393
854.72	21370
854.854	21629
854.988	21382
855.122	21393
855.256	21389
855.39	21557
855.524	21599
855.658	21488
855.792	21397
855.926	21507
856.06	21591
856.194	21553
856.327	21420
856.461	21348
856.595	21412
856.729	21340
856.862	21595
856.996	21450
857.13	21549
857.263	21724
857.397	21663
857.53	21378
857.664	21530
857.797	21507
857.931	21538
858.064	21481
858.197	21652
858.331	21507
858.464	21408
858.597	21473
858.731	21374
858.864	21264
858.997	21443
859.13	21466
859.263	21439
859.396	21618
859.529	21382
859.662	21488
859.795	21424
859.928	21481
860.061	21606
860.194	21667
860.327	21682
860.46	21587
860.592	21656
860.725	21675
860.858	21500
860.99	21500
861.123	21481
861.256	21519
861.388	21610
861.521	21994
861.653	21294
861.786	21142
861.918	21211
862.05	21329
862.183	21405
862.315	21416
862.447	21469
862.58	21367
862.712	21062
862.844	21119
862.976	21348
863.108	21332
863.24	21572
863.372	21055
863.504	21237
863.636	21176
863.768	21184
863.9	21199
864.032	21142
864.164	21108
864.296	21214
864.428	21294
864.559	21138
864.691	21245
864.823	21237
864.954	21188
865.086	21146
865.217	21100
865.349	20994
865.48	21096
865.612	21081
865.743	21245
865.875	21017
866.006	21051
866.137	21039
866.269	21051
866.4	21081
866.531	21058
866.662	20948
866.793	21036
866.924	21028
867.055	21150
867.186	21005
867.317	20986
867.448	20880
867.579	20933
867.71	20902
867.841	20975
867.972	20990
868.103	21093
868.233	20982
868.364	21028
868.495	21165
868.625	21272
868.756	21344
868.886	21112
869.017	21233
869.147	21287
869.278	21401
869.408	21313
869.539	21256
869.669	21393
869.799	21230
869.929	21351
870.06	21370
870.19	21561
870.32	21458
870.45	21576
870.58	21576
870.71	21778
870.84	21717
870.97	21728
871.1	21663
871.23	21838
871.36	21823
871.489	21781
871.619	21892
871.749	21770
871.879	21850
872.008	21975
872.138	21857
872.267	21915
872.397	21679
872.526	21701
872.656	21732
872.785	21663
872.915	21892
873.044	21808
873.173	21819
873.303	21994
873.432	21926
873.561	21915
873.69	21838
873.819	21888
873.948	21991
874.077	21778
874.206	21823
874.335	21964
874.464	22059
874.593	22135
874.722	21960
874.851	22086
874.979	22055
875.108	22196
875.237	22044
875.365	22032
875.494	22082
875.623	22246
875.751	22150
875.88	22101
876.008	22238
876.136	22344
876.265	22367
876.393	22634
876.521	22516
876.65	22550
876.778	22440
876.906	22481
877.034	22322
877.162	22519
877.29	22379
877.418	22405
877.546	22493
877.674	22455
877.802	22428
877.93	22432
878.058	22394
878.185	22314
878.313	22375
878.441	22523
878.568	22268
878.696	22314
878.824	22504
878.951	22500
879.079	22698
879.206	22706
879.333	22611
879.461	22504
879.588	22618
879.715	22523
879.842	22668
879.97	22527
880.097	22181
880.224	22337
880.351	22230
880.478	22303
880.605	22204
880.732	22306
880.859	22607
880.986	22360
881.112	22276
881.239	22086
881.366	22116
881.493	21876
881.619	21816
881.746	21911
881.872	21804
881.999	21793
882.125	21800
882.252	21857
882.378	21701
882.505	21953
882.631	21671
882.757	21519
882.883	21507
883.01	21462
883.136	21526
883.262	21443
883.388	21420
883.514	21572
883.64	21481
883.766	21405
883.892	21348
884.018	21363
884.143	21450
884.269	21519
884.395	21169
884.52	21066
884.646	21146
884.772	21058
884.897	21093
885.023	21180
885.148	21161
885.274	21351
885.399	21325
885.524	21245
885.65	21260
885.775	21230
885.9	21184
886.025	21199
886.15	21195
886.275	20990
886.4	21169
886.525	21218
886.65	21077
886.775	21047
886.9	21245
887.025	21329
887.149	21127
887.274	21043
887.399	20971
887.523	20800
887.648	20887
887.773	20838
887.897	20975
888.021	20929
888.146	20842
888.27	21009
888.395	21017
888.519	20994
888.643	20952
888.767	20963
888.891	20823
889.015	20750
889.139	20754
889.263	20663
889.387	20861
889.511	20883
889.635	20883
889.759	20735
889.883	20800
890.006	20724
890.13	20918
890.254	20785
890.377	20762
890.501	20423
890.624	20461
890.748	20526
890.871	20362
890.995	20278
891.118	20320
891.241	20275
891.364	20358
891.488	20370
891.611	20336
891.734	20180
891.857	20256
891.98	20511
892.103	20415
892.226	20358
892.349	20206
892.471	20161
892.594	20252
892.717	20263
892.839	20164
892.962	20233
893.085	20400
893.207	20210
893.33	20145
893.452	20157
893.575	20142
893.697	20122
893.819	20408
893.941	20358
894.064	20343
894.186	20298
894.308	20233
894.43	20278
894.552	20305
894.674	20313
894.796	20092
894.918	20176
895.04	20107
895.161	20343
895.283	20290
895.405	20111
895.526	20202
895.648	20218
895.769	20278
895.891	20263
896.012	20480
896.134	20298
896.255	20305
896.376	20096
896.498	20214
896.619	20298
896.74	20202
896.861	20286
896.982	20488
897.103	20724
897.224	20454
897.345	20351
897.466	20332
897.587	20415
897.708	20533
897.828	20343
897.949	20415
898.07	20263
898.19	20339
898.311	20507
898.431	20415
898.552	20434
898.672	20415
898.792	20438
898.913	20351
899.033	20336
899.153	20237
899.273	20126
899.393	20164
899.513	20176
899.633	20183
899.753	20221
899.873	20130
899.993	20229
900.113	20069
900.232	20218
900.352	20134
900.472	19837
900.591	19890
900.711	19963
900.83	20046
900.95	20005
901.069	19986
901.189	19921
901.308	19647
901.427	19548
901.546	19578
901.665	19563
901.784	19609
901.904	19377
902.023	19282
902.141	19133
902.26	19088
902.379	19118
902.498	19012
902.617	19000
902.735	19072
902.854	19031
902.973	18924
903.091	18821
903.21	18734
903.328	18650
903.446	18563
903.565	18513
903.683	18506
903.801	18346
903.919	18441
904.038	18456
904.156	18346
904.274	18384
904.392	18334
904.51	18319
904.627	18167
904.745	18300
904.863	18304
904.981	18049
905.098	18011
905.216	18003
905.334	18045
905.451	17996
905.569	17973
905.686	17916
905.803	17965
905.921	17786
906.038	17767
906.155	17699
906.272	17570
906.389	17661
906.506	17562
906.623	17600
906.74	17452
906.857	17372
906.974	17220
907.091	17444
907.208	17623
907.324	17532
907.441	17440
907.557	17239
907.674	17254
907.79	17212
907.907	17178
908.023	17227
908.139	17223
908.256	17102
908.372	17064
908.488	17159
908.604	16999
908.72	16968
908.836	16873
908.952	16885
909.068	17056
909.184	17052
909.3	16965
909.415	16991
909.531	16987
909.647	16645
909.762	16649
909.878	16607
909.993	16599
910.108	16596
910.224	16679
910.339	16626
910.454	16398
910.57	16516
910.685	16386
910.8	16668
910.915	16504
911.03	16459
911.145	16325
911.259	16200
911.374	16246
911.489	16204
911.604	16055
911.718	15983
911.833	15998
911.947	15873
912.062	15816
912.176	15983
912.291	15854
912.405	16051
912.519	16143
912.633	16211
912.748	16021
912.862	15975
912.976	15816
913.09	15675
913.204	15717
913.318	15888
913.431	15869
913.545	15854
913.659	15926
913.772	15766
913.886	15599
914	15561
914.113	15720
914.226	15709
914.34	15572
914.453	15557
914.566	15633
914.68	15496
914.793	15431
914.906	15275
915.019	15116
915.132	15226
915.245	15192
915.358	15275
915.47	15192
915.583	15157
915.696	15180
915.809	15291
915.921	15329
916.034	15203
916.146	15051
916.259	15131
916.371	15066
916.483	15051
916.595	14963
916.708	15055
916.82	15024
916.932	14956
917.044	15017
917.156	14902
917.268	14792
917.38	14876
917.491	14811
917.603	14826
917.715	14982
917.826	14910
917.938	14796
918.049	14739
918.161	14792
918.272	14857
918.384	14918
918.495	14743
918.606	14648
918.717	14530
918.828	14648
918.939	14644
919.05	14549
919.161	14610
919.272	14385
919.383	14507
919.494	14682
919.604	14781
919.715	14545
919.826	14560
919.936	14514
920.047	14731
920.157	14476
920.267	14727
920.378	14518
920.488	14511
920.598	14686
920.708	14834
920.818	14716
920.928	14701
921.038	14887
921.148	14746
921.258	14522
921.368	14431
921.477	14355
921.587	14309
921.697	14157
921.806	14374
921.916	14199
922.025	13997
922.134	14024
922.244	13868
922.353	14065
922.462	13811
922.571	13799
922.68	13609
922.789	13597
922.898	13636
923.007	13510
923.116	13567
923.224	13575
923.333	13548
923.442	13449
923.55	13415
923.659	13445
923.767	13506
923.876	13297
923.984	13487
924.092	13335
924.201	13365
924.309	13278
924.417	13293
924.525	13274
924.633	13274
924.741	14164
924.849	13012
924.956	13194
925.064	13004
925.172	12954
925.279	13072
925.387	12996
925.494	13057
925.602	13072
925.709	13046
925.816	12935
925.924	12897
926.031	13050
926.138	12943
926.245	12947
926.352	12833
926.459	12989
926.566	12996
926.673	12878
926.779	12730
926.886	12764
926.993	12582
927.099	12547
927.206	12452
927.312	12471
927.419	12570
927.525	12574
927.631	12559
927.737	12528
927.843	12486
927.95	12266
928.056	12441
928.162	12376
928.267	12452
928.373	13034
928.479	12532
928.585	12175
928.69	12323
928.796	12308
928.901	12251
929.007	12045
929.112	12289
929.218	12117
929.323	12110
929.428	12064
929.533	12148
929.638	12019
929.743	12045
929.848	12098
929.953	12064
930.058	11939
930.163	11798
930.267	11828
930.372	11836
930.477	11775
930.581	12003
930.685	11897
930.79	11714
930.894	11680
930.998	11672
931.103	11832
931.207	11425
931.311	11322
931.415	11193
931.519	11048
931.623	11048
