Data from test_V78500241_2465.txt Node
Date: Fri Mar 25 15:27:01 CST 2022
User: usil
Spectrometer: V785-0024
Trigger mode: 0
Integration Time (sec): 4.000000E-1
Scans to average: 1
Nonlinearity correction enabled: false
Boxcar width: 0
Storing dark spectrum: false
XAxis mode: Wavelengths
Number of Pixels in Spectrum: 1024
>>>>>Begin Spectral Data<<<<<
801.071	27066
801.214	26971
801.356	26777
801.499	26674
801.641	26465
801.783	26442
801.926	26568
802.068	26499
802.211	26381
802.353	26244
802.496	26142
802.638	26172
802.78	26111
802.923	26100
803.065	25871
803.208	25841
803.35	26016
803.492	26240
803.635	26275
803.777	26324
803.919	26237
804.061	26640
804.204	26301
804.346	26069
804.488	26111
804.63	26130
804.773	26256
804.915	26214
805.057	26328
805.199	26187
805.341	26313
805.483	26450
805.626	26286
805.768	26271
805.91	26336
806.052	26332
806.194	26172
806.336	26400
806.478	26358
806.62	26237
806.762	26385
806.904	26773
807.046	26743
807.188	26758
807.33	26769
807.472	26815
807.614	26727
807.756	26765
807.898	26613
808.04	26465
808.182	26545
808.324	26556
808.465	26727
808.607	26815
808.749	26956
808.891	27020
809.033	27165
809.174	26956
809.316	26883
809.458	26975
809.6	26910
809.741	27169
809.883	27108
810.025	27188
810.166	27272
810.308	27150
810.45	27131
810.591	27096
810.733	26994
810.875	26979
811.016	26781
811.158	26819
811.299	27150
811.441	27230
811.582	27100
811.724	27104
811.865	26842
812.007	26895
812.148	26853
812.29	26758
812.431	27032
812.573	27207
812.714	27291
812.855	27431
812.997	27492
813.138	27599
813.279	27530
813.421	27458
813.562	27477
813.703	27214
813.845	27062
813.986	26868
814.127	26640
814.268	26651
814.41	26689
814.551	26549
814.692	26602
814.833	26434
814.974	26450
815.115	26587
815.256	26499
815.397	26507
815.539	26385
815.68	26347
815.821	26244
815.962	26385
816.103	26263
816.244	26286
816.385	26126
816.526	26100
816.666	25966
816.807	25928
816.948	25951
817.089	26016
817.23	25921
817.371	25826
817.512	25913
817.653	25814
817.793	25609
817.934	25769
818.075	25932
818.216	25791
818.356	25769
818.497	25738
818.638	25518
818.778	25571
818.919	25533
819.06	25559
819.2	25670
819.341	25788
819.481	25734
819.622	25883
819.762	26126
819.903	26100
820.043	26005
820.184	25940
820.324	25966
820.465	25925
820.605	25944
820.746	25982
820.886	25826
821.026	25909
821.167	25879
821.307	25928
821.447	25772
821.588	25750
821.728	25601
821.868	25502
822.008	25426
822.149	25244
822.289	25331
822.429	25019
822.569	25027
822.709	24916
822.849	24817
822.99	24688
823.13	24825
823.27	24825
823.41	24616
823.55	24623
823.69	24738
823.83	24673
823.97	24551
824.11	24399
824.25	24460
824.389	24452
824.529	24464
824.669	24631
824.809	24544
824.949	24429
825.089	24513
825.228	24437
825.368	24247
825.508	24273
825.648	24262
825.787	24342
825.927	24365
826.067	24285
826.206	24369
826.346	24388
826.485	24395
826.625	24247
826.765	24426
826.904	24296
827.044	24121
827.183	24110
827.323	24045
827.462	24064
827.601	24015
827.741	24011
827.88	24140
828.02	23897
828.159	23942
828.298	23935
828.437	23992
828.577	23821
828.716	24003
828.855	23958
828.994	23684
829.134	23733
829.273	23756
829.412	23703
829.551	23703
829.69	23745
829.829	23630
829.968	23745
830.107	23798
830.246	23672
830.385	23638
830.524	23630
830.663	23627
830.802	23391
830.941	23391
831.08	23280
831.219	23345
831.357	23360
831.496	23676
831.635	23341
831.774	23280
831.913	23200
832.051	23159
832.19	23204
832.329	23178
832.467	23014
832.606	23003
832.744	22965
832.883	23022
833.022	22915
833.16	22923
833.299	22949
833.437	23037
833.576	22972
833.714	23094
833.852	23109
833.991	23117
834.129	23197
834.267	23060
834.406	23102
834.544	23117
834.682	23121
834.821	23025
834.959	23299
835.097	23041
835.235	23117
835.373	23086
835.511	23136
835.65	23094
835.788	22968
835.926	22790
836.064	22668
836.202	22805
836.34	22927
836.478	22957
836.615	22908
836.753	22908
836.891	22953
837.029	22896
837.167	22892
837.305	22892
837.443	22725
837.58	22573
837.718	22790
837.856	22759
837.993	22763
838.131	22748
838.269	22740
838.406	22592
838.544	22573
838.681	22390
838.819	22424
838.956	22314
839.094	22299
839.231	22360
839.369	22363
839.506	22557
839.643	22348
839.781	22257
839.918	22211
840.055	22223
840.193	22226
840.33	22215
840.467	22306
840.604	22325
840.742	22645
840.879	22196
841.016	22097
841.153	22154
841.29	22249
841.427	22093
841.564	22261
841.701	22143
841.838	22192
841.975	22002
842.112	22139
842.249	22166
842.385	22002
842.522	22246
842.659	22120
842.796	21899
842.933	22032
843.069	21983
843.206	21998
843.343	22093
843.479	21903
843.616	21987
843.752	21717
843.889	21842
844.025	21960
844.162	21838
844.298	21789
844.435	21785
844.571	21663
844.708	21869
844.844	21899
844.98	21812
845.117	21888
845.253	21816
845.389	21656
845.525	21698
845.661	21679
845.798	21462
845.934	21538
846.07	21367
846.206	21454
846.342	21637
846.478	21416
846.614	21260
846.75	21169
846.886	21161
847.022	21367
847.158	21252
847.294	21272
847.429	21412
847.565	21165
847.701	21367
847.837	21013
847.972	20880
848.108	20933
848.244	21020
848.379	20826
848.515	20838
848.65	20762
848.786	20754
848.921	20754
849.057	21028
849.192	20876
849.328	20853
849.463	20876
849.598	20651
849.734	20785
849.869	20705
850.004	20545
850.14	20564
850.275	20629
850.41	20495
850.545	20480
850.68	20549
850.815	20651
850.95	20609
851.085	20811
851.22	20716
851.355	20693
851.49	20495
851.625	20613
851.76	20552
851.895	20530
852.03	20511
852.165	20655
852.299	20640
852.434	20575
852.569	20484
852.703	20556
852.838	20602
852.973	20754
853.107	20636
853.242	20545
853.376	20473
853.511	20317
853.645	20385
853.78	20469
853.914	20434
854.048	20343
854.183	20396
854.317	20434
854.451	20621
854.585	20434
854.72	20229
854.854	20492
854.988	20461
855.122	20442
855.256	20290
855.39	20370
855.524	20377
855.658	20469
855.792	20396
855.926	20469
856.06	20415
856.194	20469
856.327	20317
856.461	20385
856.595	20385
856.729	20389
856.862	20457
856.996	20533
857.13	20374
857.263	20526
857.397	20594
857.53	20427
857.664	20427
857.797	20461
857.931	20579
858.064	20480
858.197	20594
858.331	20336
858.464	20423
858.597	20320
858.731	20423
858.864	20423
858.997	20343
859.13	20484
859.263	20362
859.396	20499
859.529	20419
859.662	20290
859.795	20278
859.928	20362
860.061	20526
860.194	20609
860.327	20473
860.46	20442
860.592	20552
860.725	20587
860.858	20518
860.99	20450
861.123	20248
861.256	20286
861.388	20465
861.521	21017
861.653	20278
861.786	20225
861.918	20275
862.05	20278
862.183	20336
862.315	20286
862.447	20317
862.58	20366
862.712	20142
862.844	20130
862.976	20259
863.108	20278
863.24	20492
863.372	20043
863.504	20081
863.636	20119
863.768	20286
863.9	20069
864.032	20100
864.164	20081
864.296	20122
864.428	20275
864.559	20103
864.691	20134
864.823	20001
864.954	20126
865.086	20100
865.217	19989
865.349	19951
865.48	20073
865.612	19940
865.743	20077
865.875	19932
866.006	20065
866.137	19997
866.269	19970
866.4	20031
866.531	19989
866.662	19993
866.793	20008
866.924	20012
867.055	20024
867.186	19913
867.317	19963
867.448	19753
867.579	19940
867.71	19921
867.841	20005
867.972	19940
868.103	19921
868.233	20062
868.364	20001
868.495	20035
868.625	20275
868.756	20355
868.886	20164
869.017	20180
869.147	20328
869.278	20431
869.408	20324
869.539	20168
869.669	20214
869.799	20248
869.929	20370
870.06	20343
870.19	20511
870.32	20480
870.45	20488
870.58	20484
870.71	20750
870.84	20659
870.97	20670
871.1	20545
871.23	20693
871.36	20876
871.489	20697
871.619	20785
871.749	20842
871.879	20872
872.008	20834
872.138	20834
872.267	20788
872.397	20902
872.526	20621
872.656	20781
872.785	20648
872.915	20902
873.044	20921
873.173	20708
873.303	20834
873.432	20823
873.561	20849
873.69	20754
873.819	20800
873.948	20925
874.077	20796
874.206	20746
874.335	20750
874.464	20963
874.593	21112
874.722	21093
874.851	21123
874.979	20918
875.108	21218
875.237	21028
875.365	20845
875.494	21089
875.623	21028
875.751	21020
875.88	21024
876.008	21230
876.136	21279
876.265	21481
876.393	21591
876.521	21549
876.65	21580
876.778	21557
876.906	21428
877.034	21416
877.162	21355
877.29	21408
877.418	21435
877.546	21420
877.674	21431
877.802	21401
877.93	21580
878.058	21351
878.185	21389
878.313	21237
878.441	21348
878.568	21279
878.696	21325
878.824	21507
878.951	21622
879.079	21496
879.206	21808
879.333	21686
879.461	21454
879.588	21648
879.715	21614
879.842	21545
879.97	21473
880.097	21192
880.224	21374
880.351	21325
880.478	21329
880.605	21260
880.732	21233
880.859	21435
880.986	21302
881.112	21211
881.239	21070
881.366	21077
881.493	21017
881.619	20830
881.746	20906
881.872	20902
881.999	20891
882.125	20705
882.252	20864
882.378	20765
882.505	20868
882.631	20720
882.757	20655
882.883	20629
883.01	20571
883.136	20526
883.262	20366
883.388	20377
883.514	20629
883.64	20598
883.766	20503
883.892	20301
884.018	20332
884.143	20560
884.269	20579
884.395	20199
884.52	20221
884.646	20164
884.772	20183
884.897	20134
885.023	20244
885.148	20256
885.274	20351
885.399	20267
885.524	20263
885.65	20305
885.775	20240
885.9	20187
886.025	20237
886.15	20271
886.275	20058
886.4	19974
886.525	20069
886.65	20062
886.775	20161
886.9	20393
887.025	20423
887.149	20195
887.274	19951
887.399	19906
887.523	20096
887.648	19917
887.773	19860
887.897	19997
888.021	20031
888.146	19871
888.27	20115
888.395	19997
888.519	20046
888.643	19917
888.767	19997
888.891	20005
889.015	19788
889.139	19936
889.263	19811
889.387	19917
889.511	19944
889.635	19932
889.759	19849
889.883	19776
890.006	19837
890.13	19898
890.254	19746
890.377	19628
890.501	19480
890.624	19537
890.748	19635
890.871	19597
890.995	19354
891.118	19335
891.241	19426
891.364	19457
891.488	19533
891.611	19377
891.734	19308
891.857	19407
891.98	19396
892.103	19445
892.226	19411
892.349	19324
892.471	19175
892.594	19392
892.717	19354
892.839	19266
892.962	19289
893.085	19339
893.207	19381
893.33	19095
893.452	19324
893.575	19320
893.697	19228
893.819	19540
893.941	19537
894.064	19480
894.186	19198
894.308	19232
894.43	19263
894.552	19388
894.674	19324
894.796	19225
894.918	19274
895.04	19289
895.161	19381
895.283	19240
895.405	19240
895.526	19282
895.648	19343
895.769	19312
895.891	19304
896.012	19362
896.134	19312
896.255	19316
896.376	19297
896.498	19282
896.619	19377
896.74	19308
896.861	19403
896.982	19651
897.103	19742
897.224	19578
897.345	19540
897.466	19506
897.587	19468
897.708	19696
897.828	19597
897.949	19411
898.07	19324
898.19	19415
898.311	19529
898.431	19480
898.552	19548
898.672	19635
898.792	19632
898.913	19449
899.033	19499
899.153	19377
899.273	19297
899.393	19198
899.513	19209
899.633	19236
899.753	19301
899.873	19266
899.993	19312
900.113	19274
900.232	19354
900.352	19129
900.472	19236
900.591	19137
900.711	19160
900.83	19042
900.95	19099
901.069	19099
901.189	18947
901.308	18844
901.427	18734
901.546	18719
901.665	18700
901.784	18684
901.904	18601
902.023	18597
902.141	18190
902.26	18159
902.379	18296
902.498	18167
902.617	18205
902.735	18235
902.854	18262
902.973	18136
903.091	17885
903.21	17863
903.328	17889
903.446	17790
903.565	17745
903.683	17741
903.801	17657
903.919	17638
904.038	17596
904.156	17493
904.274	17684
904.392	17429
904.51	17547
904.627	17398
904.745	17509
904.863	17478
904.981	17341
905.098	17060
905.216	17159
905.334	17204
905.451	17140
905.569	17151
905.686	17242
905.803	17170
905.921	16938
906.038	17071
906.155	16896
906.272	16778
906.389	16847
906.506	16790
906.623	16778
906.74	16599
906.857	16569
906.974	16565
907.091	16672
907.208	16805
907.324	16706
907.441	16618
907.557	16417
907.674	16550
907.79	16413
907.907	16421
908.023	16466
908.139	16512
908.256	16497
908.372	16299
908.488	16223
908.604	16116
908.72	16086
908.836	16154
908.952	16112
909.068	16200
909.184	16188
909.3	16135
909.415	16086
909.531	16109
909.647	15827
909.762	15854
909.878	15842
909.993	15739
910.108	15770
910.224	15804
910.339	15781
910.454	15759
910.57	15614
910.685	15656
910.8	15800
910.915	15819
911.03	15728
911.145	15492
911.259	15454
911.374	15454
911.489	15367
911.604	15386
911.718	15184
911.833	15332
911.947	15214
912.062	15192
912.176	15291
912.291	15378
912.405	15359
912.519	15580
912.633	15378
912.748	15173
912.862	15279
912.976	15017
913.09	14902
913.204	14982
913.318	15119
913.431	15047
913.545	15146
913.659	15165
913.772	14944
913.886	14819
914	14880
914.113	14800
914.226	14902
914.34	14906
914.453	14746
914.566	14845
914.68	14720
914.793	14830
914.906	14571
915.019	14583
915.132	14434
915.245	14423
915.358	14419
915.47	14499
915.583	14461
915.696	14442
915.809	14583
915.921	14590
916.034	14408
916.146	14511
916.259	14328
916.371	14446
916.483	14476
916.595	14370
916.708	14328
916.82	14332
916.932	14313
917.044	14191
917.156	14206
917.268	14035
917.38	14142
917.491	14077
917.603	14180
917.715	14172
917.826	14161
917.938	14092
918.049	14039
918.161	14012
918.272	14233
918.384	14225
918.495	14046
918.606	13932
918.717	13959
918.828	13967
918.939	13822
919.05	13852
919.161	13837
919.272	13712
919.383	13776
919.494	13909
919.604	14180
919.715	13944
919.826	13788
919.936	13845
920.047	13993
920.157	13963
920.267	13982
920.378	13925
920.488	13868
920.598	14126
920.708	14206
920.818	14001
920.928	14008
921.038	14164
921.148	14202
921.258	13727
921.368	13814
921.477	13651
921.587	13636
921.697	13559
921.806	13715
921.916	13548
922.025	13331
922.134	13285
922.244	13282
922.353	13377
922.462	13217
922.571	13110
922.68	12916
922.789	12989
922.898	12928
923.007	12871
923.116	12989
923.224	12939
923.333	12913
923.442	12882
923.55	12711
923.659	12894
923.767	12882
923.876	12757
923.984	12856
924.092	12658
924.201	12673
924.309	12658
924.417	12764
924.525	12646
924.633	12585
924.741	13552
924.849	12433
924.956	12574
925.064	12365
925.172	12361
925.279	12342
925.387	12399
925.494	12395
925.602	12555
925.709	12376
925.816	12258
925.924	12380
926.031	12441
926.138	12342
926.245	12296
926.352	12296
926.459	12380
926.566	12353
926.673	12327
926.779	12201
926.886	12171
926.993	12083
927.099	11912
927.206	11893
927.312	11832
927.419	11992
927.525	11996
927.631	11996
927.737	11870
927.843	11904
927.95	11855
928.056	11775
928.162	11840
928.267	11893
928.373	12494
928.479	11809
928.585	11657
928.69	11794
928.796	11813
928.901	11684
929.007	11516
929.112	11710
929.218	11577
929.323	11577
929.428	11539
929.533	11733
929.638	11539
929.743	11478
929.848	11589
929.953	11493
930.058	11509
930.163	11242
930.267	11299
930.372	11406
930.477	11246
930.581	11444
930.685	11261
930.79	11124
930.894	11147
930.998	11071
931.103	11261
931.207	10953
931.311	10797
931.415	10778
931.519	10596
931.623	10542
