Data from test_V78500241_2543.txt Node
Date: Fri Mar 25 15:27:34 CST 2022
User: usil
Spectrometer: V785-0024
Trigger mode: 0
Integration Time (sec): 4.000000E-1
Scans to average: 1
Nonlinearity correction enabled: false
Boxcar width: 0
Storing dark spectrum: false
XAxis mode: Wavelengths
Number of Pixels in Spectrum: 1024
>>>>>Begin Spectral Data<<<<<
801.071	27180
801.214	27192
801.356	27032
801.499	27032
801.641	26845
801.783	26940
801.926	26887
802.068	26769
802.211	26735
802.353	26712
802.496	26571
802.638	26450
802.78	26556
802.923	26271
803.065	26393
803.208	26320
803.35	26347
803.492	26560
803.635	26476
803.777	26480
803.919	26571
804.061	26804
804.204	26590
804.346	26533
804.488	26415
804.63	26575
804.773	26484
804.915	26663
805.057	26712
805.199	26530
805.341	26659
805.483	26758
805.626	26720
805.768	26598
805.91	26765
806.052	26758
806.194	26556
806.336	26902
806.478	26746
806.62	26655
806.762	26857
806.904	27138
807.046	27195
807.188	26998
807.33	27173
807.472	27108
807.614	27062
807.756	27028
807.898	27036
808.04	26902
808.182	26902
808.324	27062
808.465	26944
808.607	27207
808.749	27226
808.891	27405
809.033	27504
809.174	27245
809.316	27180
809.458	27374
809.6	27237
809.741	27321
809.883	27431
810.025	27515
810.166	27633
810.308	27561
810.45	27549
810.591	27469
810.733	27256
810.875	27233
811.016	27127
811.158	27431
811.299	27507
811.441	27473
811.582	27625
811.724	27256
811.865	27348
812.007	27203
812.148	27154
812.29	27363
812.431	27336
812.573	27488
812.714	27663
812.855	27888
812.997	27873
813.138	28044
813.279	27884
813.421	27762
813.562	27766
813.703	27583
813.845	27420
813.986	27256
814.127	27047
814.268	26899
814.41	26944
814.551	26868
814.692	27112
814.833	27017
814.974	26883
815.115	27024
815.256	26754
815.397	26785
815.539	26861
815.68	26796
815.821	26556
815.962	26648
816.103	26716
816.244	26518
816.385	26499
816.526	26469
816.666	26389
816.807	26183
816.948	26149
817.089	26343
817.23	26244
817.371	26126
817.512	26138
817.653	26145
817.793	26031
817.934	26275
818.075	26225
818.216	26343
818.356	26214
818.497	26058
818.638	25970
818.778	26020
818.919	25989
819.06	26065
819.2	26100
819.341	26142
819.481	26229
819.622	26355
819.762	26427
819.903	26461
820.043	26324
820.184	26313
820.324	26351
820.465	26453
820.605	26400
820.746	26298
820.886	26336
821.026	26214
821.167	26286
821.307	26374
821.447	26172
821.588	26100
821.728	26039
821.868	25769
822.008	25651
822.149	25590
822.289	25597
822.429	25392
822.569	25407
822.709	25358
822.849	25133
822.99	25266
823.13	25088
823.27	25145
823.41	25103
823.55	24859
823.69	25099
823.83	24939
823.97	24954
824.11	24837
824.25	24802
824.389	24817
824.529	24878
824.669	24833
824.809	24817
824.949	24848
825.089	25012
825.228	24837
825.368	24646
825.508	24760
825.648	24722
825.787	24654
825.927	24757
826.067	24688
826.206	24757
826.346	24741
826.485	24757
826.625	24833
826.765	24749
826.904	24795
827.044	24395
827.183	24490
827.323	24407
827.462	24494
827.601	24334
827.741	24319
827.88	24399
828.02	24285
828.159	24319
828.298	24342
828.437	24509
828.577	24300
828.716	24433
828.855	24327
828.994	24190
829.134	24129
829.273	24144
829.412	24038
829.551	24091
829.69	24190
829.829	24102
829.968	24197
830.107	24197
830.246	24091
830.385	23984
830.524	23980
830.663	23832
830.802	23832
830.941	23691
831.08	23687
831.219	23908
831.357	23813
831.496	23939
831.635	23733
831.774	23657
831.913	23608
832.051	23558
832.19	23497
832.329	23398
832.467	23566
832.606	23383
832.744	23425
832.883	23356
833.022	23376
833.16	23334
833.299	23482
833.437	23353
833.576	23589
833.714	23436
833.852	23509
833.991	23448
834.129	23512
834.267	23509
834.406	23490
834.544	23505
834.682	23509
834.821	23368
834.959	23649
835.097	23417
835.235	23490
835.373	23379
835.511	23581
835.65	23395
835.788	23383
835.926	23227
836.064	23136
836.202	23079
836.34	23486
836.478	23524
836.615	23337
836.753	23376
836.891	23474
837.029	23425
837.167	23303
837.305	23311
837.443	23136
837.58	23220
837.718	23296
837.856	23246
837.993	23212
838.131	23181
838.269	22968
838.406	23181
838.544	22995
838.681	22858
838.819	22831
838.956	22713
839.094	22584
839.231	22729
839.369	22965
839.506	23022
839.643	22927
839.781	22771
839.918	22630
840.055	22618
840.193	22687
840.33	22653
840.467	22660
840.604	22710
840.742	22877
840.879	22459
841.016	22546
841.153	22577
841.29	22744
841.427	22675
841.564	22546
841.701	22630
841.838	22519
841.975	22538
842.112	22455
842.249	22436
842.385	22531
842.522	22607
842.659	22592
842.796	22341
842.933	22405
843.069	22367
843.206	22261
843.343	22325
843.479	22261
843.616	22409
843.752	22124
843.889	22204
844.025	22360
844.162	22116
844.298	22249
844.435	22158
844.571	22131
844.708	22238
844.844	22375
844.98	22409
845.117	22242
845.253	22055
845.389	21983
845.525	21964
845.661	21903
845.798	21922
845.934	21949
846.07	21895
846.206	21934
846.342	21964
846.478	21918
846.614	21652
846.75	21488
846.886	21675
847.022	21713
847.158	21694
847.294	21424
847.429	21701
847.565	21580
847.701	21743
847.837	21302
847.972	21313
848.108	21412
848.244	21393
848.379	21157
848.515	21199
848.65	21218
848.786	21146
848.921	21207
849.057	21344
849.192	21233
849.328	21214
849.463	21077
849.598	21142
849.734	21104
849.869	21013
850.004	20941
850.14	20986
850.275	20899
850.41	20963
850.545	20944
850.68	20887
850.815	20925
850.95	20914
851.085	21066
851.22	21066
851.355	20899
851.49	20895
851.625	20944
851.76	20963
851.895	20876
852.03	20842
852.165	20933
852.299	21058
852.434	21020
852.569	20929
852.703	20952
852.838	21009
852.973	21039
853.107	21169
853.242	20918
853.376	20777
853.511	20629
853.645	20815
853.78	20864
853.914	20819
854.048	20876
854.183	20785
854.317	20724
854.451	21013
854.585	20769
854.72	20899
854.854	20845
854.988	20667
855.122	20864
855.256	20716
855.39	20773
855.524	20819
855.658	20815
855.792	20918
855.926	20781
856.06	20861
856.194	20842
856.327	20773
856.461	20621
856.595	20769
856.729	20689
856.862	20929
856.996	20750
857.13	20899
857.263	20925
857.397	20921
857.53	20769
857.664	20765
857.797	20880
857.931	20830
858.064	20914
858.197	20857
858.331	20670
858.464	20716
858.597	20720
858.731	20731
858.864	20762
858.997	20792
859.13	20785
859.263	20693
859.396	20914
859.529	20762
859.662	20648
859.795	20743
859.928	20819
860.061	20883
860.194	21024
860.327	20811
860.46	20800
860.592	20826
860.725	20963
860.858	20960
860.99	20792
861.123	20712
861.256	20708
861.388	20765
861.521	21443
861.653	20864
861.786	20522
861.918	20648
862.05	20716
862.183	20670
862.315	20849
862.447	20800
862.58	20724
862.712	20537
862.844	20606
862.976	20629
863.108	20541
863.24	21001
863.372	20469
863.504	20598
863.636	20427
863.768	20518
863.9	20530
864.032	20419
864.164	20526
864.296	20590
864.428	20689
864.559	20629
864.691	20575
864.823	20503
864.954	20514
865.086	20507
865.217	20408
865.349	20339
865.48	20499
865.612	20465
865.743	20476
865.875	20533
866.006	20305
866.137	20343
866.269	20324
866.4	20461
866.531	20336
866.662	20389
866.793	20400
866.924	20347
867.055	20419
867.186	20385
867.317	20252
867.448	20301
867.579	20259
867.71	20294
867.841	20328
867.972	20389
868.103	20328
868.233	20442
868.364	20317
868.495	20492
868.625	20526
868.756	20629
868.886	20621
869.017	20461
869.147	20716
869.278	20693
869.408	20598
869.539	20598
869.669	20594
869.799	20678
869.929	20724
870.06	20686
870.19	20944
870.32	20853
870.45	20952
870.58	20971
870.71	21043
870.84	21062
870.97	21036
871.1	21036
871.23	21036
871.36	21184
871.489	21112
871.619	21157
871.749	21112
871.879	21306
872.008	21256
872.138	21291
872.267	21184
872.397	21157
872.526	21062
872.656	21036
872.785	21043
872.915	21252
873.044	21298
873.173	21233
873.303	21287
873.432	21256
873.561	21294
873.69	21252
873.819	21256
873.948	21351
874.077	21245
874.206	21207
874.335	21188
874.464	21294
874.593	21568
874.722	21466
874.851	21507
874.979	21428
875.108	21526
875.237	21549
875.365	21348
875.494	21351
875.623	21641
875.751	21473
875.88	21519
876.008	21682
876.136	21652
876.265	21899
876.393	21949
876.521	22040
876.65	22036
876.778	21876
876.906	21732
877.034	21717
877.162	21823
877.29	21789
877.418	21778
877.546	21751
877.674	21759
877.802	21827
877.93	21808
878.058	21785
878.185	21709
878.313	21759
878.441	21759
878.568	21660
878.696	21812
878.824	21857
878.951	21895
879.079	22051
879.206	22082
879.333	21960
879.461	21850
879.588	21861
879.715	21884
879.842	22070
879.97	21861
880.097	21743
880.224	21675
880.351	21660
880.478	21690
880.605	21603
880.732	21633
880.859	21857
880.986	21663
881.112	21618
881.239	21545
881.366	21336
881.493	21291
881.619	21233
881.746	21268
881.872	21237
881.999	21180
882.125	21131
882.252	21298
882.378	21184
882.505	21443
882.631	21123
882.757	21005
882.883	20975
883.01	20902
883.136	20735
883.262	20800
883.388	20826
883.514	20853
883.64	20994
883.766	20796
883.892	20819
884.018	20815
884.143	20876
884.269	20807
884.395	20663
884.52	20499
884.646	20579
884.772	20526
884.897	20541
885.023	20537
885.148	20640
885.274	20731
885.399	20602
885.524	20533
885.65	20655
885.775	20640
885.9	20492
886.025	20659
886.15	20693
886.275	20423
886.4	20385
886.525	20613
886.65	20400
886.775	20438
886.9	20678
887.025	20769
887.149	20473
887.274	20476
887.399	20366
887.523	20290
887.648	20309
887.773	20183
887.897	20298
888.021	20408
888.146	20362
888.27	20457
888.395	20408
888.519	20408
888.643	20248
888.767	20358
888.891	20259
889.015	20168
889.139	20180
889.263	20176
889.387	20229
889.511	20298
889.635	20244
889.759	20172
889.883	20183
890.006	20134
890.13	20248
890.254	20176
890.377	20077
890.501	19959
890.624	19890
890.748	19967
890.871	19826
890.995	19769
891.118	19643
891.241	19715
891.364	19765
891.488	19830
891.611	19788
891.734	19689
891.857	19807
891.98	19693
892.103	19788
892.226	19677
892.349	19594
892.471	19540
892.594	19632
892.717	19594
892.839	19632
892.962	19727
893.085	19742
893.207	19540
893.33	19502
893.452	19430
893.575	19681
893.697	19662
893.819	19830
893.941	19833
894.064	19780
894.186	19639
894.308	19601
894.43	19818
894.552	19837
894.674	19635
894.796	19499
894.918	19582
895.04	19597
895.161	19556
895.283	19635
895.405	19601
895.526	19674
895.648	19548
895.769	19556
895.891	19613
896.012	19738
896.134	19708
896.255	19742
896.376	19559
896.498	19677
896.619	19609
896.74	19689
896.861	19784
896.982	20024
897.103	20157
897.224	19906
897.345	19776
897.466	19860
897.587	19826
897.708	20024
897.828	19833
897.949	19765
898.07	19647
898.19	19845
898.311	20050
898.431	19788
898.552	19875
898.672	19871
898.792	19974
898.913	19845
899.033	19799
899.153	19693
899.273	19502
899.393	19693
899.513	19662
899.633	19700
899.753	19632
899.873	19601
899.993	19723
900.113	19609
900.232	19575
900.352	19514
900.472	19327
900.591	19377
900.711	19369
900.83	19343
900.95	19525
901.069	19472
901.189	19308
901.308	19160
901.427	18947
901.546	18913
901.665	19031
901.784	19080
901.904	18920
902.023	18715
902.141	18608
902.26	18486
902.379	18738
902.498	18506
902.617	18327
902.735	18467
902.854	18528
902.973	18422
903.091	18098
903.21	17999
903.328	18121
903.446	18011
903.565	18015
903.683	18076
903.801	17961
903.919	17961
904.038	17904
904.156	17779
904.274	17745
904.392	17748
904.51	17737
904.627	17672
904.745	17779
904.863	17684
904.981	17600
905.098	17520
905.216	17471
905.334	17421
905.451	17471
905.569	17417
905.686	17326
905.803	17280
905.921	17178
906.038	17284
906.155	17254
906.272	17166
906.389	17124
906.506	17010
906.623	16972
906.74	16968
906.857	16904
906.974	16927
907.091	17109
907.208	17037
907.324	16919
907.441	16816
907.557	16797
907.674	16755
907.79	16641
907.907	16664
908.023	16763
908.139	16702
908.256	16615
908.372	16489
908.488	16592
908.604	16424
908.72	16519
908.836	16367
908.952	16310
909.068	16512
909.184	16546
909.3	16329
909.415	16462
909.531	16428
909.647	16120
909.762	16226
909.878	16143
909.993	16158
910.108	16074
910.224	16013
910.339	16097
910.454	15987
910.57	15956
910.685	15903
910.8	16177
910.915	16135
911.03	15873
911.145	15785
911.259	15644
911.374	15717
911.489	15641
911.604	15515
911.718	15526
911.833	15553
911.947	15412
912.062	15382
912.176	15561
912.291	15625
912.405	15610
912.519	15759
912.633	15599
912.748	15576
912.862	15450
912.976	15291
913.09	15214
913.204	15230
913.318	15275
913.431	15462
913.545	15367
913.659	15447
913.772	15214
913.886	15165
914	15150
914.113	15157
914.226	15230
914.34	15127
914.453	15055
914.566	15188
914.68	14899
914.793	14895
914.906	14929
915.019	14811
915.132	14640
915.245	14705
915.358	14724
915.47	14781
915.583	14708
915.696	14754
915.809	14804
915.921	14880
916.034	14674
916.146	14594
916.259	14545
916.371	14716
916.483	14610
916.595	14492
916.708	14518
916.82	14480
916.932	14511
917.044	14564
917.156	14530
917.268	14305
917.38	14438
917.491	14366
917.603	14332
917.715	14381
917.826	14442
917.938	14290
918.049	14202
918.161	14313
918.272	14488
918.384	14423
918.495	14404
918.606	14229
918.717	14073
918.828	14164
918.939	14214
919.05	14043
919.161	14256
919.272	13906
919.383	14039
919.494	14214
919.604	14347
919.715	14145
919.826	13982
919.936	14107
920.047	14237
920.157	14050
920.267	14278
920.378	14164
920.488	14088
920.598	14233
920.708	14415
920.818	14328
920.928	14233
921.038	14476
921.148	14347
921.258	14134
921.368	13955
921.477	13875
921.587	13883
921.697	13715
921.806	13856
921.916	13689
922.025	13685
922.134	13506
922.244	13483
922.353	13544
922.462	13468
922.571	13400
922.68	13179
922.789	13213
922.898	13175
923.007	13076
923.116	13179
923.224	13225
923.333	13152
923.442	13046
923.55	12970
923.659	13000
923.767	13137
923.876	12981
923.984	12958
924.092	12863
924.201	13000
924.309	12859
924.417	12958
924.525	12924
924.633	12844
924.741	13746
924.849	12662
924.956	12787
925.064	12646
925.172	12589
925.279	12608
925.387	12639
925.494	12551
925.602	12688
925.709	12707
925.816	12467
925.924	12601
926.031	12589
926.138	12555
926.245	12566
926.352	12479
926.459	12673
926.566	12700
926.673	12410
926.779	12346
926.886	12346
926.993	12323
927.099	12224
927.206	12171
927.312	12148
927.419	12319
927.525	12167
927.631	12228
927.737	12057
927.843	12022
927.95	11885
928.056	12041
928.162	12068
928.267	12079
928.373	12639
928.479	12091
928.585	11927
928.69	11942
928.796	11916
928.901	11904
929.007	11802
929.112	11893
929.218	11901
929.323	11779
929.428	11718
929.533	11889
929.638	11718
929.743	11722
929.848	11783
929.953	11699
930.058	11562
930.163	11433
930.267	11433
930.372	11566
930.477	11334
930.581	11653
930.685	11391
930.79	11372
930.894	11334
930.998	11330
931.103	11387
931.207	11102
931.311	11048
931.415	10889
931.519	10611
931.623	10691
