Data from test_V78500241_2436.txt Node
Date: Fri Mar 25 15:26:49 CST 2022
User: usil
Spectrometer: V785-0024
Trigger mode: 0
Integration Time (sec): 4.000000E-1
Scans to average: 1
Nonlinearity correction enabled: false
Boxcar width: 0
Storing dark spectrum: false
XAxis mode: Wavelengths
Number of Pixels in Spectrum: 1024
>>>>>Begin Spectral Data<<<<<
801.071	27085
801.214	26967
801.356	26800
801.499	26807
801.641	26606
801.783	26731
801.926	26682
802.068	26735
802.211	26492
802.353	26438
802.496	26343
802.638	26278
802.78	26073
802.923	26187
803.065	26168
803.208	26161
803.35	26256
803.492	26244
803.635	26469
803.777	26191
803.919	26256
804.061	26739
804.204	26511
804.346	26404
804.488	26309
804.63	26355
804.773	26263
804.915	26404
805.057	26507
805.199	26332
805.341	26446
805.483	26453
805.626	26389
805.768	26366
805.91	26298
806.052	26484
806.194	26507
806.336	26724
806.478	26579
806.62	26370
806.762	26697
806.904	26765
807.046	26937
807.188	26910
807.33	26925
807.472	26906
807.614	26838
807.756	26940
807.898	26613
808.04	26552
808.182	26670
808.324	26701
808.465	26735
808.607	26914
808.749	27070
808.891	27116
809.033	27302
809.174	27058
809.316	26998
809.458	27009
809.6	26963
809.741	27233
809.883	27112
810.025	27230
810.166	27291
810.308	27264
810.45	27298
810.591	27237
810.733	27131
810.875	27055
811.016	26963
811.158	26929
811.299	27077
811.441	27222
811.582	27237
811.724	26918
811.865	27028
812.007	27074
812.148	26914
812.29	27051
812.431	27211
812.573	27420
812.714	27469
812.855	27416
812.997	27656
813.138	27823
813.279	27656
813.421	27572
813.562	27545
813.703	27332
813.845	27325
813.986	26967
814.127	26864
814.268	26594
814.41	26750
814.551	26705
814.692	26781
814.833	26651
814.974	26785
815.115	26712
815.256	26568
815.397	26590
815.539	26530
815.68	26457
815.821	26507
815.962	26518
816.103	26427
816.244	26396
816.385	26317
816.526	26282
816.666	26043
816.807	25997
816.948	25868
817.089	26183
817.23	25974
817.371	26054
817.512	25978
817.653	25932
817.793	25841
817.934	25936
818.075	25860
818.216	25784
818.356	25970
818.497	25925
818.638	25723
818.778	25757
818.919	25727
819.06	25715
819.2	25883
819.341	26024
819.481	25906
819.622	26039
819.762	26259
819.903	26210
820.043	26176
820.184	25963
820.324	25974
820.465	26058
820.605	26077
820.746	25845
820.886	26062
821.026	26024
821.167	25894
821.307	26088
821.447	25978
821.588	25746
821.728	25814
821.868	25575
822.008	25521
822.149	25537
822.289	25426
822.429	25225
822.569	25065
822.709	25114
822.849	24844
822.99	24935
823.13	24837
823.27	24859
823.41	24757
823.55	24521
823.69	24688
823.83	24768
823.97	24848
824.11	24498
824.25	24604
824.389	24521
824.529	24559
824.669	24475
824.809	24566
824.949	24688
825.089	24570
825.228	24490
825.368	24327
825.508	24437
825.648	24418
825.787	24319
825.927	24570
826.067	24353
826.206	24353
826.346	24433
826.485	24513
826.625	24433
826.765	24566
826.904	24521
827.044	24220
827.183	24178
827.323	24125
827.462	24365
827.601	24171
827.741	24106
827.88	24197
828.02	23961
828.159	24053
828.298	24155
828.437	24220
828.577	24053
828.716	24205
828.855	24072
828.994	23824
829.134	23912
829.273	23855
829.412	23824
829.551	23813
829.69	23779
829.829	23901
829.968	23939
830.107	23874
830.246	23908
830.385	23767
830.524	23661
830.663	23657
830.802	23665
830.941	23334
831.08	23474
831.219	23524
831.357	23570
831.496	23604
831.635	23497
831.774	23326
831.913	23326
832.051	23288
832.19	23273
832.329	23307
832.467	23159
832.606	23178
832.744	23124
832.883	23159
833.022	23086
833.16	23197
833.299	23159
833.437	23220
833.576	23345
833.714	23216
833.852	23307
833.991	23216
834.129	23356
834.267	23353
834.406	23212
834.544	23318
834.682	23242
834.821	23200
834.959	23406
835.097	23102
835.235	23299
835.373	23208
835.511	23174
835.65	23102
835.788	23124
835.926	22938
836.064	22820
836.202	22839
836.34	22999
836.478	23052
836.615	23018
836.753	22991
836.891	23189
837.029	23083
837.167	23029
837.305	22968
837.443	22930
837.58	22927
837.718	22946
837.856	22896
837.993	22976
838.131	22862
838.269	22706
838.406	22736
838.544	22816
838.681	22653
838.819	22527
838.956	22390
839.094	22322
839.231	22413
839.369	22683
839.506	22702
839.643	22637
839.781	22360
839.918	22314
840.055	22535
840.193	22318
840.33	22314
840.467	22318
840.604	22459
840.742	22519
840.879	22055
841.016	22242
841.153	22124
841.29	22466
841.427	22322
841.564	22348
841.701	22375
841.838	22226
841.975	22215
842.112	22154
842.249	22124
842.385	22025
842.522	22268
842.659	22135
842.796	22090
842.933	22029
843.069	22029
843.206	21987
843.343	22139
843.479	22147
843.616	22070
843.752	21907
843.889	21865
844.025	21960
844.162	21934
844.298	21903
844.435	21823
844.571	21884
844.708	21899
844.844	21994
844.98	22093
845.117	21945
845.253	21846
845.389	21739
845.525	21732
845.661	21633
845.798	21564
845.934	21606
846.07	21587
846.206	21564
846.342	21663
846.478	21458
846.614	21344
846.75	21279
846.886	21325
847.022	21386
847.158	21291
847.294	21325
847.429	21447
847.565	21332
847.701	21526
847.837	21020
847.972	20967
848.108	21184
848.244	21100
848.379	20918
848.515	20967
848.65	20849
848.786	20868
848.921	20891
849.057	21001
849.192	20986
849.328	20952
849.463	20921
849.598	20868
849.734	20880
849.869	20929
850.004	20792
850.14	20845
850.275	20716
850.41	20697
850.545	20731
850.68	20629
850.815	20758
850.95	20689
851.085	20902
851.22	20743
851.355	20648
851.49	20640
851.625	20667
851.76	20724
851.895	20568
852.03	20590
852.165	20804
852.299	20701
852.434	20838
852.569	20659
852.703	20720
852.838	20743
852.973	20765
853.107	20743
853.242	20549
853.376	20575
853.511	20336
853.645	20476
853.78	20590
853.914	20492
854.048	20476
854.183	20507
854.317	20636
854.451	20621
854.585	20419
854.72	20473
854.854	20678
854.988	20465
855.122	20571
855.256	20343
855.39	20473
855.524	20617
855.658	20556
855.792	20511
855.926	20473
856.06	20507
856.194	20465
856.327	20389
856.461	20454
856.595	20442
856.729	20351
856.862	20720
856.996	20693
857.13	20423
857.263	20663
857.397	20724
857.53	20511
857.664	20518
857.797	20568
857.931	20568
858.064	20617
858.197	20629
858.331	20522
858.464	20537
858.597	20408
858.731	20469
858.864	20404
858.997	20473
859.13	20526
859.263	20533
859.396	20716
859.529	20530
859.662	20549
859.795	20450
859.928	20480
860.061	20609
860.194	20556
860.327	20598
860.46	20583
860.592	20560
860.725	20682
860.858	20727
860.99	20465
861.123	20480
861.256	20446
861.388	20507
861.521	21039
861.653	20309
861.786	20324
861.918	20328
862.05	20408
862.183	20400
862.315	20492
862.447	20583
862.58	20507
862.712	20305
862.844	20237
862.976	20358
863.108	20404
863.24	20545
863.372	20263
863.504	20149
863.636	20259
863.768	20290
863.9	20191
864.032	20119
864.164	20229
864.296	20237
864.428	20343
864.559	20206
864.691	20393
864.823	20282
864.954	20237
865.086	20278
865.217	20145
865.349	20062
865.48	20130
865.612	20176
865.743	20237
865.875	20092
866.006	20134
866.137	20138
866.269	20248
866.4	20039
866.531	20111
866.662	20161
866.793	20035
866.924	19978
867.055	20134
867.186	20126
867.317	20100
867.448	20054
867.579	20035
867.71	19955
867.841	19894
867.972	20164
868.103	20103
868.233	20122
868.364	20164
868.495	20206
868.625	20233
868.756	20381
868.886	20202
869.017	20263
869.147	20499
869.278	20480
869.408	20282
869.539	20412
869.669	20423
869.799	20317
869.929	20518
870.06	20381
870.19	20648
870.32	20568
870.45	20716
870.58	20811
870.71	20830
870.84	20921
870.97	20701
871.1	20731
871.23	20906
871.36	20967
871.489	20868
871.619	20921
871.749	20918
871.879	20929
872.008	21032
872.138	21017
872.267	20994
872.397	20899
872.526	20781
872.656	20826
872.785	20746
872.915	20941
873.044	21100
873.173	20982
873.303	21013
873.432	21001
873.561	21058
873.69	21066
873.819	20967
873.948	21009
874.077	20910
874.206	20921
874.335	21028
874.464	21161
874.593	21332
874.722	21104
874.851	21199
874.979	21329
875.108	21268
875.237	21214
875.365	21332
875.494	21264
875.623	21389
875.751	21127
875.88	21302
876.008	21504
876.136	21492
876.265	21728
876.393	21549
876.521	21705
876.65	21819
876.778	21663
876.906	21504
877.034	21515
877.162	21568
877.29	21492
877.418	21599
877.546	21618
877.674	21595
877.802	21648
877.93	21629
878.058	21622
878.185	21549
878.313	21564
878.441	21492
878.568	21317
878.696	21542
878.824	21599
878.951	21606
879.079	21835
879.206	21785
879.333	21751
879.461	21485
879.588	21831
879.715	21755
879.842	21903
879.97	21629
880.097	21412
880.224	21302
880.351	21485
880.478	21310
880.605	21549
880.732	21435
880.859	21690
880.986	21435
881.112	21561
881.239	21485
881.366	21032
881.493	21081
881.619	21024
881.746	21017
881.872	21093
881.999	20902
882.125	20956
882.252	21001
882.378	20963
882.505	21043
882.631	20872
882.757	20697
882.883	20815
883.01	20743
883.136	20689
883.262	20689
883.388	20530
883.514	20739
883.64	20651
883.766	20792
883.892	20571
884.018	20507
884.143	20674
884.269	20705
884.395	20343
884.52	20320
884.646	20415
884.772	20355
884.897	20237
885.023	20366
885.148	20480
885.274	20434
885.399	20355
885.524	20294
885.65	20370
885.775	20450
885.9	20404
886.025	20362
886.15	20377
886.275	20290
886.4	20183
886.525	20336
886.65	20233
886.775	20161
886.9	20446
887.025	20492
887.149	20294
887.274	20145
887.399	20088
887.523	20126
887.648	19997
887.773	20073
887.897	20149
888.021	20084
888.146	20084
888.27	20237
888.395	20149
888.519	20088
888.643	20229
888.767	20263
888.891	19993
889.015	19932
889.139	19974
889.263	19803
889.387	20058
889.511	20115
889.635	20073
889.759	19864
889.883	19909
890.006	19925
890.13	20199
890.254	19925
890.377	19947
890.501	19734
890.624	19658
890.748	19814
890.871	19670
890.995	19415
891.118	19468
891.241	19624
891.364	19571
891.488	19635
891.611	19556
891.734	19518
891.857	19628
891.98	19533
892.103	19662
892.226	19460
892.349	19544
892.471	19304
892.594	19415
892.717	19495
892.839	19365
892.962	19392
893.085	19506
893.207	19525
893.33	19381
893.452	19259
893.575	19411
893.697	19419
893.819	19544
893.941	19601
894.064	19658
894.186	19373
894.308	19415
894.43	19556
894.552	19594
894.674	19514
894.796	19487
894.918	19392
895.04	19365
895.161	19438
895.283	19430
895.405	19365
895.526	19476
895.648	19430
895.769	19381
895.891	19510
896.012	19514
896.134	19563
896.255	19430
896.376	19320
896.498	19422
896.619	19468
896.74	19411
896.861	19483
896.982	19883
897.103	19909
897.224	19757
897.345	19712
897.466	19597
897.587	19655
897.708	19818
897.828	19776
897.949	19571
898.07	19502
898.19	19624
898.311	19799
898.431	19594
898.552	19712
898.672	19772
898.792	19719
898.913	19647
899.033	19582
899.153	19483
899.273	19354
899.393	19487
899.513	19445
899.633	19354
899.753	19499
899.873	19438
899.993	19403
900.113	19320
900.232	19339
900.352	19339
900.472	19320
900.591	19194
900.711	19297
900.83	19236
900.95	19324
901.069	19137
901.189	19110
901.308	18829
901.427	18848
901.546	18886
901.665	18856
901.784	18776
901.904	18684
902.023	18639
902.141	18433
902.26	18350
902.379	18475
902.498	18369
902.617	18437
902.735	18281
902.854	18292
902.973	18213
903.091	18041
903.21	17980
903.328	18007
903.446	17961
903.565	17897
903.683	17840
903.801	17714
903.919	17813
904.038	17638
904.156	17573
904.274	17649
904.392	17543
904.51	17554
904.627	17581
904.745	17570
904.863	17687
904.981	17337
905.098	17311
905.216	17303
905.334	17246
905.451	17200
905.569	17254
905.686	17311
905.803	17265
905.921	16980
906.038	17162
906.155	17090
906.272	17022
906.389	17109
906.506	16831
906.623	16790
906.74	16850
906.857	16683
906.974	16736
907.091	16843
907.208	16911
907.324	16850
907.441	16752
907.557	16542
907.674	16474
907.79	16497
907.907	16565
908.023	16599
908.139	16596
908.256	16542
908.372	16390
908.488	16478
908.604	16337
908.72	16272
908.836	16261
908.952	16090
909.068	16322
909.184	16291
909.3	16310
909.415	16386
909.531	16287
909.647	15991
909.762	16002
909.878	15937
909.993	15903
910.108	15945
910.224	15895
910.339	15861
910.454	15869
910.57	15781
910.685	15705
910.8	16059
910.915	15949
911.03	15869
911.145	15584
911.259	15576
911.374	15603
911.489	15519
911.604	15424
911.718	15287
911.833	15279
911.947	15184
912.062	15131
912.176	15245
912.291	15355
912.405	15245
912.519	15507
912.633	15545
912.748	15405
912.862	15336
912.976	15218
913.09	14921
913.204	15085
913.318	15169
913.431	15237
913.545	15169
913.659	15222
913.772	15157
913.886	14956
914	14967
914.113	14960
914.226	15135
914.34	15085
914.453	14891
914.566	14979
914.68	14948
914.793	14739
914.906	14549
915.019	14629
915.132	14556
915.245	14541
915.358	14575
915.47	14503
915.583	14594
915.696	14583
915.809	14769
915.921	14708
916.034	14606
916.146	14507
916.259	14469
916.371	14648
916.483	14632
916.595	14434
916.708	14461
916.82	14355
916.932	14389
917.044	14492
917.156	14351
917.268	14248
917.38	14278
917.491	14180
917.603	14233
917.715	14339
917.826	14309
917.938	14191
918.049	14062
918.161	14256
918.272	14355
918.384	14305
918.495	14149
918.606	14001
918.717	13997
918.828	13898
918.939	14119
919.05	13894
919.161	13982
919.272	13883
919.383	13902
919.494	14050
919.604	14237
919.715	13989
919.826	14020
919.936	13921
920.047	14046
920.157	13917
920.267	14237
920.378	13982
920.488	13978
920.598	14092
920.708	14336
920.818	14134
920.928	14081
921.038	14290
921.148	14301
921.258	13928
921.368	13864
921.477	13757
921.587	13811
921.697	13521
921.806	13803
921.916	13582
922.025	13430
922.134	13426
922.244	13346
922.353	13449
922.462	13259
922.571	13171
922.68	13149
922.789	12981
922.898	12996
923.007	12985
923.116	13053
923.224	13012
923.333	13061
923.442	12958
923.55	12901
923.659	12916
923.767	13065
923.876	12875
923.984	12947
924.092	12821
924.201	12764
924.309	12719
924.417	12795
924.525	12787
924.633	12722
924.741	13723
924.849	12528
924.956	12616
925.064	12620
925.172	12509
925.279	12365
925.387	12525
925.494	12464
925.602	12589
925.709	12498
925.816	12384
925.924	12479
926.031	12608
926.138	12490
926.245	12475
926.352	12334
926.459	12498
926.566	12502
926.673	12414
926.779	12251
926.886	12247
926.993	12114
927.099	12060
927.206	12038
927.312	11965
927.419	12125
927.525	12007
927.631	12136
927.737	11942
927.843	11908
927.95	11805
928.056	11878
928.162	11942
928.267	11908
928.373	12574
928.479	11973
928.585	11764
928.69	11863
928.796	11859
928.901	11745
929.007	11684
929.112	11760
929.218	11729
929.323	11581
929.428	11684
929.533	11703
929.638	11577
929.743	11623
929.848	11619
929.953	11611
930.058	11455
930.163	11391
930.267	11258
930.372	11444
930.477	11273
930.581	11493
930.685	11303
930.79	11212
930.894	11239
930.998	11193
931.103	11299
931.207	10961
931.311	10949
931.415	10885
931.519	10641
931.623	10546
