Data from test_V78500241_2551.txt Node
Date: Fri Mar 25 15:27:37 CST 2022
User: usil
Spectrometer: V785-0024
Trigger mode: 0
Integration Time (sec): 4.000000E-1
Scans to average: 1
Nonlinearity correction enabled: false
Boxcar width: 0
Storing dark spectrum: false
XAxis mode: Wavelengths
Number of Pixels in Spectrum: 1024
>>>>>Begin Spectral Data<<<<<
801.071	27184
801.214	27165
801.356	27013
801.499	26967
801.641	26750
801.783	26796
801.926	26876
802.068	26785
802.211	26720
802.353	26724
802.496	26408
802.638	26473
802.78	26374
802.923	26412
803.065	26324
803.208	26256
803.35	26358
803.492	26583
803.635	26655
803.777	26358
803.919	26545
804.061	26925
804.204	26644
804.346	26488
804.488	26408
804.63	26640
804.773	26339
804.915	26587
805.057	26632
805.199	26545
805.341	26712
805.483	26830
805.626	26609
805.768	26537
805.91	26571
806.052	26518
806.194	26632
806.336	26792
806.478	26625
806.62	26587
806.762	26708
806.904	26982
807.046	27142
807.188	27070
807.33	27123
807.472	27268
807.614	27020
807.756	27131
807.898	26906
808.04	26868
808.182	26895
808.324	27108
808.465	27032
808.607	27146
808.749	27256
808.891	27397
809.033	27302
809.174	27310
809.316	27214
809.458	27370
809.6	27211
809.741	27336
809.883	27355
810.025	27644
810.166	27656
810.308	27576
810.45	27473
810.591	27485
810.733	27351
810.875	27424
811.016	27211
811.158	27135
811.299	27416
811.441	27431
811.582	27427
811.724	27332
811.865	27195
812.007	27317
812.148	27176
812.29	27367
812.431	27519
812.573	27469
812.714	27857
812.855	27736
812.997	27956
813.138	27823
813.279	27926
813.421	27804
813.562	27690
813.703	27587
813.845	27504
813.986	27275
814.127	26960
814.268	26826
814.41	26845
814.551	26861
814.692	27062
814.833	26876
814.974	26891
815.115	26986
815.256	26902
815.397	26674
815.539	26861
815.68	26777
815.821	26743
815.962	26807
816.103	26697
816.244	26674
816.385	26503
816.526	26484
816.666	26298
816.807	26126
816.948	26275
817.089	26286
817.23	26183
817.371	26248
817.512	26214
817.653	26218
817.793	26130
817.934	26164
818.075	26282
818.216	26381
818.356	26111
818.497	26180
818.638	25955
818.778	25932
818.919	25833
819.06	25917
819.2	26240
819.341	26218
819.481	26058
819.622	26480
819.762	26438
819.903	26545
820.043	26450
820.184	26286
820.324	26278
820.465	26309
820.605	26358
820.746	26271
820.886	26168
821.026	26301
821.167	26328
821.307	26233
821.447	26187
821.588	26134
821.728	25997
821.868	25860
822.008	25586
822.149	25693
822.289	25514
822.429	25400
822.569	25232
822.709	25350
822.849	25312
822.99	25133
823.13	25179
823.27	25168
823.41	25137
823.55	24970
823.69	25088
823.83	25050
823.97	24973
824.11	24844
824.25	24776
824.389	24833
824.529	24977
824.669	24833
824.809	25012
824.949	24920
825.089	24966
825.228	24897
825.368	24616
825.508	24623
825.648	24745
825.787	24848
825.927	24741
826.067	24536
826.206	24760
826.346	24700
826.485	24681
826.625	24738
826.765	24882
826.904	24719
827.044	24547
827.183	24410
827.323	24357
827.462	24422
827.601	24441
827.741	24384
827.88	24285
828.02	24388
828.159	24289
828.298	24410
828.437	24494
828.577	24327
828.716	24410
828.855	24262
828.994	24091
829.134	24011
829.273	24232
829.412	24110
829.551	24133
829.69	24030
829.829	24121
829.968	24110
830.107	24197
830.246	23988
830.385	23999
830.524	23897
830.663	23908
830.802	23885
830.941	23745
831.08	23745
831.219	23851
831.357	23828
831.496	24007
831.635	23707
831.774	23710
831.913	23627
832.051	23646
832.19	23425
832.329	23634
832.467	23486
832.606	23471
832.744	23330
832.883	23486
833.022	23235
833.16	23414
833.299	23509
833.437	23406
833.576	23535
833.714	23467
833.852	23646
833.991	23627
834.129	23615
834.267	23570
834.406	23577
834.544	23474
834.682	23535
834.821	23493
834.959	23676
835.097	23528
835.235	23630
835.373	23528
835.511	23524
835.65	23414
835.788	23341
835.926	23170
836.064	23151
836.202	23056
836.34	23417
836.478	23387
836.615	23242
836.753	23448
836.891	23383
837.029	23341
837.167	23315
837.305	23296
837.443	23178
837.58	23185
837.718	23166
837.856	23250
837.993	23258
838.131	23220
838.269	22976
838.406	23064
838.544	22984
838.681	22904
838.819	22725
838.956	22637
839.094	22698
839.231	22748
839.369	22896
839.506	23105
839.643	22946
839.781	22809
839.918	22683
840.055	22630
840.193	22611
840.33	22584
840.467	22656
840.604	22622
840.742	22999
840.879	22542
841.016	22584
841.153	22432
841.29	22702
841.427	22641
841.564	22660
841.701	22546
841.838	22546
841.975	22519
842.112	22592
842.249	22474
842.385	22436
842.522	22668
842.659	22459
842.796	22459
842.933	22478
843.069	22272
843.206	22204
843.343	22421
843.479	22386
843.616	22432
843.752	22048
843.889	22116
844.025	22219
844.162	22105
844.298	22230
844.435	22070
844.571	22025
844.708	22215
844.844	22318
844.98	22230
845.117	22162
845.253	22048
845.389	22010
845.525	22090
845.661	22101
845.798	21869
845.934	21934
846.07	21785
846.206	21895
846.342	22002
846.478	21774
846.614	21667
846.75	21500
846.886	21561
847.022	21633
847.158	21701
847.294	21675
847.429	21739
847.565	21564
847.701	21816
847.837	21275
847.972	21420
848.108	21481
848.244	21458
848.379	21256
848.515	21260
848.65	21268
848.786	21245
848.921	21249
849.057	21298
849.192	21283
849.328	21104
849.463	21222
849.598	21108
849.734	21085
849.869	21157
850.004	20899
850.14	21085
850.275	20963
850.41	20842
850.545	20910
850.68	20937
850.815	21009
850.95	20944
851.085	21154
851.22	21032
851.355	21074
851.49	20921
851.625	20921
851.76	20960
851.895	20914
852.03	20975
852.165	20910
852.299	21051
852.434	21146
852.569	21032
852.703	20929
852.838	21047
852.973	20990
853.107	21108
853.242	20910
853.376	20800
853.511	20693
853.645	20773
853.78	20883
853.914	20842
854.048	20800
854.183	20910
854.317	20750
854.451	20899
854.585	20823
854.72	20773
854.854	20872
854.988	20735
855.122	20887
855.256	20731
855.39	20651
855.524	20804
855.658	20853
855.792	20857
855.926	20902
856.06	20937
856.194	20834
856.327	20629
856.461	20689
856.595	20750
856.729	20842
856.862	20861
856.996	20872
857.13	20811
857.263	20864
857.397	20845
857.53	20716
857.664	20842
857.797	20826
857.931	20956
858.064	20792
858.197	20845
858.331	20834
858.464	20743
858.597	20621
858.731	20781
858.864	20674
858.997	20853
859.13	20838
859.263	20762
859.396	20933
859.529	20777
859.662	20727
859.795	20769
859.928	20849
860.061	20925
860.194	21017
860.327	20906
860.46	20872
860.592	20891
860.725	20918
860.858	20902
860.99	20819
861.123	20674
861.256	20686
861.388	20781
861.521	21462
861.653	20735
861.786	20609
861.918	20693
862.05	20689
862.183	20731
862.315	20701
862.447	20754
862.58	20830
862.712	20480
862.844	20423
862.976	20579
863.108	20667
863.24	20986
863.372	20385
863.504	20469
863.636	20552
863.768	20499
863.9	20461
864.032	20507
864.164	20469
864.296	20495
864.428	20545
864.559	20560
864.691	20594
864.823	20503
864.954	20499
865.086	20518
865.217	20442
865.349	20324
865.48	20343
865.612	20473
865.743	20545
865.875	20480
866.006	20484
866.137	20442
866.269	20484
866.4	20374
866.531	20259
866.662	20305
866.793	20396
866.924	20309
867.055	20332
867.186	20415
867.317	20294
867.448	20248
867.579	20267
867.71	20259
867.841	20263
867.972	20389
868.103	20301
868.233	20317
868.364	20317
868.495	20343
868.625	20583
868.756	20674
868.886	20511
869.017	20625
869.147	20579
869.278	20648
869.408	20636
869.539	20564
869.669	20785
869.799	20781
869.929	20746
870.06	20644
870.19	20838
870.32	20899
870.45	20834
870.58	20937
870.71	21096
870.84	21161
870.97	20971
871.1	21020
871.23	21123
871.36	21199
871.489	21062
871.619	21154
871.749	21058
871.879	21275
872.008	21386
872.138	21241
872.267	21199
872.397	21104
872.526	20971
872.656	20971
872.785	20982
872.915	21245
873.044	21313
873.173	21108
873.303	21157
873.432	21233
873.561	21256
873.69	21291
873.819	21279
873.948	21287
874.077	21207
874.206	21150
874.335	21245
874.464	21321
874.593	21370
874.722	21408
874.851	21481
874.979	21526
875.108	21545
875.237	21386
875.365	21279
875.494	21443
875.623	21701
875.751	21538
875.88	21534
876.008	21644
876.136	21667
876.265	21926
876.393	21880
876.521	21888
876.65	21934
876.778	21994
876.906	21854
877.034	21652
877.162	21797
877.29	21789
877.418	21842
877.546	21884
877.674	21789
877.802	21728
877.93	21789
878.058	21835
878.185	21713
878.313	21766
878.441	21762
878.568	21549
878.696	21774
878.824	21812
878.951	21888
879.079	21831
879.206	22131
879.333	22067
879.461	21865
879.588	21850
879.715	22051
879.842	22055
879.97	21857
880.097	21614
880.224	21690
880.351	21739
880.478	21591
880.605	21648
880.732	21583
880.859	21850
880.986	21720
881.112	21690
881.239	21637
881.366	21477
881.493	21188
881.619	21302
881.746	21207
881.872	21245
881.999	21188
882.125	21104
882.252	21264
882.378	21260
882.505	21298
882.631	21055
882.757	21020
882.883	20948
883.01	20986
883.136	20853
883.262	20849
883.388	20773
883.514	20861
883.64	20967
883.766	20838
883.892	20697
884.018	20716
884.143	20918
884.269	20952
884.395	20583
884.52	20564
884.646	20583
884.772	20579
884.897	20541
885.023	20473
885.148	20693
885.274	20792
885.399	20651
885.524	20670
885.65	20533
885.775	20712
885.9	20488
886.025	20629
886.15	20701
886.275	20533
886.4	20461
886.525	20526
886.65	20545
886.775	20511
886.9	20640
887.025	20667
887.149	20560
887.274	20412
887.399	20286
887.523	20400
887.648	20332
887.773	20202
887.897	20385
888.021	20415
888.146	20244
888.27	20530
888.395	20332
888.519	20461
888.643	20195
888.767	20347
888.891	20157
889.015	20088
889.139	20218
889.263	20176
889.387	20206
889.511	20347
889.635	20286
889.759	20164
889.883	20119
890.006	20050
890.13	20202
890.254	20157
890.377	20122
890.501	19936
890.624	19940
890.748	19845
890.871	19772
890.995	19731
891.118	19681
891.241	19693
891.364	19822
891.488	19902
891.611	19738
891.734	19818
891.857	19826
891.98	19635
892.103	19677
892.226	19696
892.349	19662
892.471	19540
892.594	19704
892.717	19693
892.839	19658
892.962	19670
893.085	19750
893.207	19533
893.33	19518
893.452	19556
893.575	19635
893.697	19693
893.819	19746
893.941	19932
894.064	19860
894.186	19487
894.308	19453
894.43	19776
894.552	19670
894.674	19731
894.796	19658
894.918	19693
895.04	19609
895.161	19613
895.283	19548
895.405	19597
895.526	19700
895.648	19533
895.769	19655
895.891	19647
896.012	19723
896.134	19590
896.255	19666
896.376	19715
896.498	19616
896.619	19719
896.74	19529
896.861	19647
896.982	19993
897.103	20199
897.224	19928
897.345	19871
897.466	19902
897.587	19917
897.708	20122
897.828	19845
897.949	19875
898.07	19715
898.19	19811
898.311	19849
898.431	19814
898.552	19871
898.672	19856
898.792	19967
898.913	19871
899.033	19681
899.153	19639
899.273	19609
899.393	19533
899.513	19601
899.633	19685
899.753	19616
899.873	19556
899.993	19700
900.113	19499
900.232	19643
900.352	19590
900.472	19571
900.591	19449
900.711	19495
900.83	19369
900.95	19540
901.069	19514
901.189	19183
901.308	19099
901.427	19000
901.546	18924
901.665	18977
901.784	19000
901.904	18795
902.023	18817
902.141	18540
902.26	18525
902.379	18665
902.498	18448
902.617	18509
902.735	18479
902.854	18445
902.973	18403
903.091	18239
903.21	18194
903.328	18190
903.446	18053
903.565	18030
903.683	18060
903.801	18007
903.919	17988
904.038	17946
904.156	17733
904.274	17882
904.392	17771
904.51	17710
904.627	17794
904.745	17843
904.863	17824
904.981	17558
905.098	17497
905.216	17379
905.334	17433
905.451	17490
905.569	17501
905.686	17482
905.803	17414
905.921	17193
906.038	17303
906.155	17242
906.272	17246
906.389	17094
906.506	17029
906.623	17060
906.74	16949
906.857	16862
906.974	16927
907.091	17003
907.208	17052
907.324	17086
907.441	16919
907.557	16763
907.674	16729
907.79	16675
907.907	16626
908.023	16725
908.139	16607
908.256	16637
908.372	16630
908.488	16542
908.604	16485
908.72	16352
908.836	16462
908.952	16398
909.068	16432
909.184	16493
909.3	16466
909.415	16432
909.531	16421
909.647	16181
909.762	16166
909.878	16124
909.993	16150
910.108	16128
910.224	16071
910.339	16116
910.454	16025
910.57	15895
910.685	15945
910.8	16211
910.915	16078
911.03	15930
911.145	15812
911.259	15667
911.374	15770
911.489	15675
911.604	15663
911.718	15435
911.833	15500
911.947	15454
912.062	15424
912.176	15599
912.291	15515
912.405	15599
912.519	15720
912.633	15629
912.748	15584
912.862	15424
912.976	15329
913.09	15180
913.204	15283
913.318	15393
913.431	15405
913.545	15359
913.659	15473
913.772	15279
913.886	15184
914	15146
914.113	15279
914.226	15222
914.34	15176
914.453	15097
914.566	15195
914.68	14929
914.793	14952
914.906	14811
915.019	14754
915.132	14640
915.245	14640
915.358	14826
915.47	14663
915.583	14746
915.696	14842
915.809	14739
915.921	14834
916.034	14564
916.146	14610
916.259	14610
916.371	14670
916.483	14640
916.595	14552
916.708	14621
916.82	14621
916.932	14651
917.044	14434
917.156	14499
917.268	14450
917.38	14431
917.491	14347
917.603	14412
917.715	14423
917.826	14457
917.938	14358
918.049	14267
918.161	14263
918.272	14514
918.384	14431
918.495	14282
918.606	14126
918.717	14134
918.828	14237
918.939	14195
919.05	14062
919.161	14180
919.272	13940
919.383	13997
919.494	14210
919.604	14438
919.715	14237
919.826	14027
919.936	14210
920.047	14164
920.157	14138
920.267	14336
920.378	14123
920.488	14054
920.598	14339
920.708	14396
920.818	14339
920.928	14298
921.038	14549
921.148	14298
921.258	14107
921.368	14039
921.477	13875
921.587	13909
921.697	13769
921.806	13871
921.916	13712
922.025	13544
922.134	13514
922.244	13487
922.353	13647
922.462	13483
922.571	13430
922.68	13171
922.789	13225
922.898	13179
923.007	13076
923.116	13175
923.224	13190
923.333	13080
923.442	13072
923.55	12973
923.659	13080
923.767	13012
923.876	12981
923.984	13015
924.092	12890
924.201	12928
924.309	12939
924.417	12989
924.525	12848
924.633	12947
924.741	13791
924.849	12570
924.956	12817
925.064	12627
925.172	12589
925.279	12639
925.387	12612
925.494	12570
925.602	12738
925.709	12730
925.816	12521
925.924	12616
926.031	12570
926.138	12639
926.245	12597
926.352	12464
926.459	12582
926.566	12612
926.673	12494
926.779	12407
926.886	12407
926.993	12182
927.099	12178
927.206	12129
927.312	12152
927.419	12270
927.525	12270
927.631	12205
927.737	12076
927.843	12011
927.95	11988
928.056	12022
928.162	11992
928.267	12148
928.373	12677
928.479	12064
928.585	11859
928.69	11969
928.796	12038
928.901	11824
929.007	11737
929.112	11817
929.218	11809
929.323	11771
929.428	11794
929.533	11920
929.638	11680
929.743	11722
929.848	11745
929.953	11680
930.058	11649
930.163	11452
930.267	11452
930.372	11581
930.477	11455
930.581	11649
930.685	11532
930.79	11277
930.894	11372
930.998	11216
931.103	11429
931.207	11067
931.311	10965
931.415	10934
931.519	10809
931.623	10710
