Data from test_V78500241_131.txt Node
Date: Fri Mar 25 15:10:46 CST 2022
User: usil
Spectrometer: V785-0024
Trigger mode: 0
Integration Time (sec): 4.000000E-1
Scans to average: 1
Nonlinearity correction enabled: false
Boxcar width: 0
Storing dark spectrum: false
XAxis mode: Wavelengths
Number of Pixels in Spectrum: 1024
>>>>>Begin Spectral Data<<<<<
801.071	28253
801.214	28215
801.356	27873
801.499	27964
801.641	27797
801.783	27838
801.926	27774
802.068	27804
802.211	27823
802.353	27610
802.496	27367
802.638	27363
802.78	27382
802.923	27344
803.065	27367
803.208	27367
803.35	27412
803.492	27523
803.635	27458
803.777	27382
803.919	27504
804.061	27686
804.204	27564
804.346	27405
804.488	27454
804.63	27298
804.773	27222
804.915	27336
805.057	27481
805.199	27291
805.341	27561
805.483	27682
805.626	27564
805.768	27427
805.91	27576
806.052	27572
806.194	27454
806.336	27629
806.478	27568
806.62	27435
806.762	27511
806.904	27728
807.046	27911
807.188	27979
807.33	27873
807.472	28040
807.614	27888
807.756	27850
807.898	27713
808.04	27675
808.182	27781
808.324	27663
808.465	27656
808.607	27854
808.749	27960
808.891	28109
809.033	28109
809.174	28185
809.316	27987
809.458	28112
809.6	28116
809.741	28162
809.883	28181
810.025	28325
810.166	28204
810.308	28261
810.45	28177
810.591	28135
810.733	28055
810.875	27941
811.016	27831
811.158	27865
811.299	27903
811.441	27918
811.582	28055
811.724	27873
811.865	27854
812.007	27914
812.148	27922
812.29	27914
812.431	28238
812.573	28322
812.714	28394
812.855	28554
812.997	28542
813.138	28778
813.279	28615
813.421	28421
813.562	28440
813.703	28287
813.845	28059
813.986	27842
814.127	27842
814.268	27660
814.41	27732
814.551	27606
814.692	27709
814.833	27625
814.974	27427
815.115	27454
815.256	27488
815.397	27302
815.539	27386
815.68	27302
815.821	27386
815.962	27367
816.103	27427
816.244	27211
816.385	27100
816.526	27055
816.666	26902
816.807	26838
816.948	26765
817.089	26876
817.23	26708
817.371	26716
817.512	26762
817.653	26785
817.793	26659
817.934	26781
818.075	26720
818.216	26716
818.356	26773
818.497	26568
818.638	26320
818.778	26499
818.919	26583
819.06	26347
819.2	26674
819.341	26701
819.481	26735
819.622	26925
819.762	27093
819.903	26933
820.043	26746
820.184	26750
820.324	26758
820.465	26796
820.605	26807
820.746	26842
820.886	26609
821.026	26632
821.167	26697
821.307	26891
821.447	26746
821.588	26438
821.728	26453
821.868	26324
822.008	26062
822.149	26062
822.289	26130
822.429	25822
822.569	25799
822.709	25826
822.849	25552
822.99	25575
823.13	25559
823.27	25506
823.41	25415
823.55	25396
823.69	25304
823.83	25400
823.97	25266
824.11	25221
824.25	25202
824.389	25183
824.529	25225
824.669	25202
824.809	25308
824.949	25259
825.089	25194
825.228	25160
825.368	24943
825.508	25156
825.648	25008
825.787	25080
825.927	25031
826.067	24947
826.206	24875
826.346	24947
826.485	25103
826.625	24943
826.765	25156
826.904	24958
827.044	24658
827.183	24635
827.323	24650
827.462	24764
827.601	24703
827.741	24589
827.88	24525
828.02	24483
828.159	24597
828.298	24734
828.437	24658
828.577	24646
828.716	24707
828.855	24661
828.994	24456
829.134	24410
829.273	24418
829.412	24289
829.551	24334
829.69	24384
829.829	24407
829.968	24483
830.107	24380
830.246	24205
830.385	24315
830.524	24133
830.663	24041
830.802	23977
830.941	23866
831.08	23798
831.219	23946
831.357	23923
831.496	24064
831.635	23988
831.774	23714
831.913	23661
832.051	23668
832.19	23691
832.329	23535
832.467	23733
832.606	23444
832.744	23467
832.883	23444
833.022	23558
833.16	23600
833.299	23581
833.437	23535
833.576	23623
833.714	23649
833.852	23634
833.991	23596
834.129	23672
834.267	23718
834.406	23600
834.544	23573
834.682	23570
834.821	23497
834.959	23722
835.097	23531
835.235	23676
835.373	23410
835.511	23531
835.65	23406
835.788	23391
835.926	23151
836.064	23216
836.202	23277
836.34	23345
836.478	23425
836.615	23372
836.753	23417
836.891	23452
837.029	23448
837.167	23334
837.305	23250
837.443	23299
837.58	23181
837.718	23311
837.856	23223
837.993	23178
838.131	23235
838.269	23109
838.406	23189
838.544	23140
838.681	22866
838.819	22858
838.956	22675
839.094	22694
839.231	22634
839.369	22869
839.506	23064
839.643	22896
839.781	22607
839.918	22569
840.055	22763
840.193	22630
840.33	22672
840.467	22432
840.604	22592
840.742	22793
840.879	22367
841.016	22569
841.153	22474
841.29	22577
841.427	22561
841.564	22489
841.701	22615
841.838	22478
841.975	22356
842.112	22352
842.249	22333
842.385	22352
842.522	22371
842.659	22318
842.796	22238
842.933	22306
843.069	22333
843.206	22303
843.343	22318
843.479	22238
843.616	22177
843.752	22067
843.889	22139
844.025	22169
844.162	22059
844.298	22112
844.435	22002
844.571	21865
844.708	22032
844.844	22200
844.98	22006
845.117	22070
845.253	21793
845.389	21842
845.525	21899
845.661	21812
845.798	21770
845.934	21728
846.07	21808
846.206	21743
846.342	21865
846.478	21587
846.614	21561
846.75	21405
846.886	21488
847.022	21530
847.158	21416
847.294	21447
847.429	21462
847.565	21412
847.701	21751
847.837	21157
847.972	21104
848.108	21192
848.244	21169
848.379	21074
848.515	20982
848.65	20960
848.786	21024
848.921	21024
849.057	21199
849.192	21077
849.328	21062
849.463	20967
849.598	20883
849.734	20982
849.869	20914
850.004	20712
850.14	20739
850.275	20845
850.41	20632
850.545	20632
850.68	20674
850.815	20864
850.95	20796
851.085	20910
851.22	20849
851.355	20629
851.49	20686
851.625	20720
851.76	20568
851.895	20594
852.03	20503
852.165	20746
852.299	20845
852.434	20838
852.569	20788
852.703	20777
852.838	20773
852.973	20769
853.107	20921
853.242	20678
853.376	20484
853.511	20427
853.645	20507
853.78	20636
853.914	20552
854.048	20442
854.183	20514
854.317	20617
854.451	20735
854.585	20629
854.72	20560
854.854	20518
854.988	20480
855.122	20530
855.256	20396
855.39	20434
855.524	20594
855.658	20568
855.792	20511
855.926	20473
856.06	20602
856.194	20651
856.327	20499
856.461	20469
856.595	20450
856.729	20526
856.862	20594
856.996	20549
857.13	20724
857.263	20587
857.397	20606
857.53	20571
857.664	20537
857.797	20583
857.931	20518
858.064	20537
858.197	20564
858.331	20549
858.464	20446
858.597	20389
858.731	20393
858.864	20465
858.997	20366
859.13	20514
859.263	20537
859.396	20511
859.529	20389
859.662	20454
859.795	20499
859.928	20511
860.061	20461
860.194	20678
860.327	20526
860.46	20587
860.592	20602
860.725	20629
860.858	20571
860.99	20507
861.123	20461
861.256	20278
861.388	20587
861.521	21131
861.653	20332
861.786	20313
861.918	20298
862.05	20434
862.183	20427
862.315	20598
862.447	20469
862.58	20545
862.712	20210
862.844	20301
862.976	20355
863.108	20199
863.24	20655
863.372	20111
863.504	20172
863.636	20210
863.768	20259
863.9	20164
864.032	20187
864.164	20218
864.296	20134
864.428	20412
864.559	20142
864.691	20221
864.823	20233
864.954	20256
865.086	20256
865.217	20161
865.349	20008
865.48	20012
865.612	20161
865.743	20119
865.875	20012
866.006	19989
866.137	20134
866.269	20065
866.4	20046
866.531	19997
866.662	19921
866.793	19978
866.924	20069
867.055	20065
867.186	20069
867.317	19925
867.448	19951
867.579	20073
867.71	20039
867.841	19826
867.972	20062
868.103	19902
868.233	19967
868.364	19932
868.495	20077
868.625	20206
868.756	20328
868.886	20142
869.017	20278
869.147	20286
869.278	20362
869.408	20259
869.539	20259
869.669	20328
869.799	20221
869.929	20442
870.06	20343
870.19	20499
870.32	20499
870.45	20655
870.58	20602
870.71	20785
870.84	20727
870.97	20636
871.1	20606
871.23	20746
871.36	20990
871.489	20811
871.619	20750
871.749	20792
871.879	20773
872.008	20834
872.138	20864
872.267	20861
872.397	20613
872.526	20511
872.656	20492
872.785	20621
872.915	20830
873.044	20857
873.173	20834
873.303	20963
873.432	20883
873.561	20998
873.69	20960
873.819	20868
873.948	20933
874.077	20902
874.206	20735
874.335	20937
874.464	21009
874.593	21013
874.722	21123
874.851	21077
874.979	21116
875.108	21184
875.237	21051
875.365	21150
875.494	21013
875.623	21150
875.751	20941
875.88	21108
876.008	21184
876.136	21321
876.265	21557
876.393	21641
876.521	21515
876.65	21553
876.778	21420
876.906	21496
877.034	21568
877.162	21504
877.29	21386
877.418	21462
877.546	21587
877.674	21511
877.802	21462
877.93	21466
878.058	21363
878.185	21454
878.313	21530
878.441	21515
878.568	21283
878.696	21310
878.824	21580
878.951	21618
879.079	21614
879.206	21751
879.333	21656
879.461	21469
879.588	21644
879.715	21747
879.842	21762
879.97	21526
880.097	21382
880.224	21249
880.351	21249
880.478	21317
880.605	21161
880.732	21321
880.859	21580
880.986	21317
881.112	21310
881.239	21161
881.366	21100
881.493	20971
881.619	20921
881.746	20937
881.872	20933
881.999	20807
882.125	20735
882.252	20952
882.378	20830
882.505	21036
882.631	20864
882.757	20644
882.883	20773
883.01	20663
883.136	20575
883.262	20499
883.388	20431
883.514	20686
883.64	20659
883.766	20511
883.892	20499
884.018	20503
884.143	20526
884.269	20541
884.395	20343
884.52	20145
884.646	20248
884.772	20240
884.897	20221
885.023	20240
885.148	20366
885.274	20313
885.399	20294
885.524	20180
885.65	20374
885.775	20187
885.9	20237
886.025	20408
886.15	20240
886.275	20225
886.4	20084
886.525	20145
886.65	20111
886.775	20157
886.9	20336
887.025	20415
887.149	20153
887.274	20027
887.399	19955
887.523	20005
887.648	19967
887.773	19947
887.897	20084
888.021	20065
888.146	19970
888.27	20100
888.395	20088
888.519	20012
888.643	19997
888.767	20043
888.891	19864
889.015	19780
889.139	19871
889.263	19811
889.387	19890
889.511	20081
889.635	19978
889.759	19784
889.883	19784
890.006	19761
890.13	19841
890.254	19753
890.377	19776
890.501	19441
890.624	19521
890.748	19685
890.871	19468
890.995	19369
891.118	19373
891.241	19453
891.364	19354
891.488	19491
891.611	19327
891.734	19426
891.857	19434
891.98	19331
892.103	19438
892.226	19449
892.349	19327
892.471	19141
892.594	19301
892.717	19434
892.839	19320
892.962	19304
893.085	19434
893.207	19354
893.33	19168
893.452	19221
893.575	19308
893.697	19255
893.819	19419
893.941	19422
894.064	19407
894.186	19228
894.308	19244
894.43	19346
894.552	19476
894.674	19445
894.796	19183
894.918	19247
895.04	19232
895.161	19320
895.283	19381
895.405	19175
895.526	19362
895.648	19312
895.769	19426
895.891	19415
896.012	19384
896.134	19457
896.255	19422
896.376	19270
896.498	19400
896.619	19441
896.74	19422
896.861	19396
896.982	19791
897.103	19852
897.224	19712
897.345	19567
897.466	19472
897.587	19441
897.708	19670
897.828	19666
897.949	19441
898.07	19438
898.19	19419
898.311	19685
898.431	19567
898.552	19514
898.672	19651
898.792	19712
898.913	19548
899.033	19460
899.153	19324
899.273	19156
899.393	19244
899.513	19263
899.633	19308
899.753	19308
899.873	19293
899.993	19255
900.113	19164
900.232	19293
900.352	19228
900.472	19122
900.591	19069
900.711	19053
900.83	18935
900.95	19217
901.069	19297
901.189	19038
901.308	18848
901.427	18669
901.546	18730
901.665	18661
901.784	18726
901.904	18509
902.023	18517
902.141	18224
902.26	18205
902.379	18304
902.498	18213
902.617	18129
902.735	18125
902.854	18068
902.973	18152
903.091	17851
903.21	17855
903.328	17832
903.446	17695
903.565	17649
903.683	17661
903.801	17516
903.919	17585
904.038	17608
904.156	17395
904.274	17573
904.392	17421
904.51	17440
904.627	17433
904.745	17452
904.863	17436
904.981	17330
905.098	17094
905.216	17037
905.334	17132
905.451	17083
905.569	17067
905.686	17159
905.803	17064
905.921	16866
906.038	16976
906.155	16900
906.272	16771
906.389	16972
906.506	16622
906.623	16641
906.74	16554
906.857	16523
906.974	16558
907.091	16618
907.208	16706
907.324	16603
907.441	16421
907.557	16371
907.674	16367
907.79	16211
907.907	16246
908.023	16405
908.139	16253
908.256	16234
908.372	16219
908.488	16185
908.604	16128
908.72	15937
908.836	16017
908.952	16055
909.068	16017
909.184	16116
909.3	15983
909.415	16048
909.531	15907
909.647	15759
909.762	15751
909.878	15717
909.993	15774
910.108	15701
910.224	15690
910.339	15652
910.454	15625
910.57	15500
910.685	15450
910.8	15800
910.915	15576
911.03	15545
911.145	15294
911.259	15294
911.374	15351
911.489	15233
911.604	15173
911.718	15077
911.833	15165
911.947	14910
912.062	14864
912.176	15058
912.291	15123
912.405	14948
912.519	15192
912.633	15108
912.748	15066
912.862	15055
912.976	14880
913.09	14758
913.204	14815
913.318	14819
913.431	15013
913.545	14921
913.659	15024
913.772	14800
913.886	14781
914	14632
914.113	14800
914.226	14777
914.34	14769
914.453	14564
914.566	14674
914.68	14571
914.793	14564
914.906	14457
915.019	14294
915.132	14408
915.245	14419
915.358	14381
915.47	14450
915.583	14442
915.696	14454
915.809	14473
915.921	14404
916.034	14263
916.146	14214
916.259	14229
916.371	14324
916.483	14237
916.595	14221
916.708	14164
916.82	14161
916.932	14187
917.044	14157
917.156	14149
917.268	14016
917.38	14081
917.491	14008
917.603	13944
917.715	14062
917.826	14062
917.938	13940
918.049	13925
918.161	13997
918.272	14126
918.384	14180
918.495	13944
918.606	13864
918.717	13738
918.828	13852
918.939	13879
919.05	13731
919.161	13826
919.272	13521
919.383	13639
919.494	13742
919.604	13955
919.715	13849
919.826	13712
919.936	13712
920.047	13795
920.157	13734
920.267	13921
920.378	13761
920.488	13677
920.598	13913
920.708	13997
920.818	13826
920.928	13871
921.038	14008
921.148	14001
921.258	13750
921.368	13639
921.477	13415
921.587	13445
921.697	13369
921.806	13529
921.916	13362
922.025	13206
922.134	13133
922.244	13088
922.353	13198
922.462	12943
922.571	12924
922.68	12798
922.789	12795
922.898	12684
923.007	12730
923.116	12806
923.224	12772
923.333	12692
923.442	12635
923.55	12559
923.659	12642
923.767	12662
923.876	12589
923.984	12669
924.092	12566
924.201	12620
924.309	12517
924.417	12483
924.525	12456
924.633	12464
924.741	13118
924.849	12300
924.956	12498
925.064	12342
925.172	12167
925.279	12213
925.387	12201
925.494	12167
925.602	12323
925.709	12243
925.816	12144
925.924	12167
926.031	12243
926.138	12175
926.245	12251
926.352	12220
926.459	12262
926.566	12254
926.673	12182
926.779	11980
926.886	12030
926.993	11813
927.099	11840
927.206	11821
927.312	11668
927.419	11809
927.525	11786
927.631	11798
927.737	11688
927.843	11718
927.95	11547
928.056	11634
928.162	11611
928.267	11745
928.373	12308
928.479	11786
928.585	11478
928.69	11615
928.796	11596
928.901	11524
929.007	11364
929.112	11440
929.218	11463
929.323	11410
929.428	11421
929.533	11528
929.638	11372
929.743	11315
929.848	11322
929.953	11364
930.058	11288
930.163	11136
930.267	11147
930.372	11216
930.477	11140
930.581	11292
930.685	11197
930.79	10953
930.894	11079
930.998	11033
931.103	11121
931.207	10706
931.311	10653
931.415	10558
931.519	10413
931.623	10360
