Data from test_V78500241_1572.txt Node
Date: Fri Mar 25 15:20:48 CST 2022
User: usil
Spectrometer: V785-0024
Trigger mode: 0
Integration Time (sec): 4.000000E-1
Scans to average: 1
Nonlinearity correction enabled: false
Boxcar width: 0
Storing dark spectrum: false
XAxis mode: Wavelengths
Number of Pixels in Spectrum: 1024
>>>>>Begin Spectral Data<<<<<
801.071	27998
801.214	27812
801.356	27606
801.499	27667
801.641	27481
801.783	27500
801.926	27591
802.068	27462
802.211	27332
802.353	27393
802.496	27176
802.638	27230
802.78	27142
802.923	27039
803.065	26929
803.208	27127
803.35	27104
803.492	27344
803.635	27363
803.777	27116
803.919	27283
804.061	27679
804.204	27332
804.346	27332
804.488	27173
804.63	27283
804.773	27214
804.915	27332
805.057	27542
805.199	27294
805.341	27412
805.483	27557
805.626	27454
805.768	27344
805.91	27458
806.052	27538
806.194	27363
806.336	27534
806.478	27435
806.62	27367
806.762	27564
806.904	27766
807.046	28006
807.188	27914
807.33	27937
807.472	27846
807.614	27838
807.756	27762
807.898	27732
808.04	27747
808.182	27865
808.324	27751
808.465	27930
808.607	28059
808.749	28090
808.891	28109
809.033	28268
809.174	28150
809.316	27991
809.458	28192
809.6	28097
809.741	28249
809.883	28246
810.025	28500
810.166	28344
810.308	28367
810.45	28398
810.591	28257
810.733	28310
810.875	28093
811.016	27979
811.158	28002
811.299	28162
811.441	28299
811.582	28306
811.724	28173
811.865	28188
812.007	28093
812.148	28238
812.29	28116
812.431	28344
812.573	28428
812.714	28557
812.855	28554
812.997	28538
813.138	28995
813.279	28740
813.421	28641
813.562	28577
813.703	28344
813.845	28341
813.986	28097
814.127	27968
814.268	27861
814.41	27903
814.551	27724
814.692	27808
814.833	27842
814.974	27911
815.115	27857
815.256	27686
815.397	27739
815.539	27675
815.68	27606
815.821	27603
815.962	27618
816.103	27747
816.244	27454
816.385	27473
816.526	27408
816.666	27104
816.807	27214
816.948	27047
817.089	27260
817.23	27077
817.371	27047
817.512	27020
817.653	27055
817.793	27131
817.934	27062
818.075	26990
818.216	27036
818.356	26994
818.497	26937
818.638	26815
818.778	26986
818.919	26906
819.06	26853
819.2	27043
819.341	27222
819.481	27203
819.622	27329
819.762	27485
819.903	27370
820.043	27367
820.184	27116
820.324	27203
820.465	27161
820.605	27249
820.746	27218
820.886	26982
821.026	27214
821.167	27241
821.307	27161
821.447	27081
821.588	26940
821.728	26906
821.868	26746
822.008	26655
822.149	26571
822.289	26541
822.429	26328
822.569	26142
822.709	26332
822.849	26088
822.99	26221
823.13	26073
823.27	25974
823.41	25909
823.55	25738
823.69	25986
823.83	25928
823.97	25887
824.11	25731
824.25	25708
824.389	25715
824.529	25814
824.669	25769
824.809	25822
824.949	25791
825.089	25826
825.228	25761
825.368	25616
825.508	25616
825.648	25491
825.787	25609
825.927	25674
826.067	25639
826.206	25491
826.346	25632
826.485	25628
826.625	25616
826.765	25685
826.904	25674
827.044	25377
827.183	25415
827.323	25236
827.462	25301
827.601	25217
827.741	25236
827.88	25369
828.02	25228
828.159	25320
828.298	25244
828.437	25304
828.577	25297
828.716	25263
828.855	25228
828.994	25004
829.134	24943
829.273	25031
829.412	24973
829.551	24817
829.69	25015
829.829	24939
829.968	25088
830.107	25206
830.246	24791
830.385	24985
830.524	24810
830.663	24768
830.802	24749
830.941	24597
831.08	24525
831.219	24745
831.357	24677
831.496	24837
831.635	24631
831.774	24544
831.913	24486
832.051	24608
832.19	24384
832.329	24502
832.467	24346
832.606	24182
832.744	24243
832.883	24239
833.022	24270
833.16	24232
833.299	24194
833.437	24277
833.576	24456
833.714	24247
833.852	24346
833.991	24338
834.129	24445
834.267	24456
834.406	24330
834.544	24323
834.682	24361
834.821	24281
834.959	24555
835.097	24277
835.235	24311
835.373	24350
835.511	24285
835.65	24235
835.788	24266
835.926	24091
836.064	23855
836.202	24007
836.34	24155
836.478	24167
836.615	24106
836.753	24148
836.891	24239
837.029	24209
837.167	24057
837.305	24053
837.443	24011
837.58	23954
837.718	24174
837.856	23965
837.993	23950
838.131	24057
838.269	23840
838.406	24022
838.544	23752
838.681	23604
838.819	23585
838.956	23448
839.094	23486
839.231	23501
839.369	23627
839.506	23916
839.643	23733
839.781	23482
839.918	23303
840.055	23509
840.193	23539
840.33	23231
840.467	23425
840.604	23330
840.742	23524
840.879	23349
841.016	23246
841.153	23284
841.29	23448
841.427	23360
841.564	23364
841.701	23341
841.838	23265
841.975	23132
842.112	23250
842.249	23060
842.385	23113
842.522	23345
842.659	23193
842.796	23052
842.933	23170
843.069	23064
843.206	23109
843.343	23178
843.479	23315
843.616	23197
843.752	22892
843.889	22984
844.025	23151
844.162	22862
844.298	22911
844.435	22881
844.571	22824
844.708	22968
844.844	23064
844.98	23044
845.117	22984
845.253	22759
845.389	22805
845.525	22752
845.661	22664
845.798	22767
845.934	22683
846.07	22622
846.206	22725
846.342	22710
846.478	22611
846.614	22573
846.75	22246
846.886	22226
847.022	22424
847.158	22360
847.294	22402
847.429	22470
847.565	22409
847.701	22527
847.837	22109
847.972	22124
848.108	22131
848.244	22230
848.379	22158
848.515	22029
848.65	21892
848.786	21953
848.921	21991
849.057	22086
849.192	21998
849.328	21972
849.463	22044
849.598	21956
849.734	21865
849.869	21751
850.004	21838
850.14	21743
850.275	21812
850.41	21743
850.545	21686
850.68	21823
850.815	21694
850.95	21789
851.085	21808
851.22	21876
851.355	21774
851.49	21660
851.625	21652
851.76	21561
851.895	21682
852.03	21618
852.165	21652
852.299	21709
852.434	21701
852.569	21831
852.703	21606
852.838	21835
852.973	21854
853.107	21827
853.242	21755
853.376	21485
853.511	21462
853.645	21557
853.78	21580
853.914	21549
854.048	21496
854.183	21507
854.317	21576
854.451	21732
854.585	21618
854.72	21511
854.854	21580
854.988	21473
855.122	21542
855.256	21344
855.39	21576
855.524	21458
855.658	21515
855.792	21488
855.926	21701
856.06	21526
856.194	21679
856.327	21477
856.461	21466
856.595	21412
856.729	21420
856.862	21705
856.996	21511
857.13	21583
857.263	21667
857.397	21694
857.53	21538
857.664	21705
857.797	21606
857.931	21576
858.064	21633
858.197	21656
858.331	21553
858.464	21348
858.597	21507
858.731	21599
858.864	21488
858.997	21462
859.13	21500
859.263	21591
859.396	21622
859.529	21534
859.662	21530
859.795	21557
859.928	21583
860.061	21717
860.194	21690
860.327	21622
860.46	21686
860.592	21633
860.725	21663
860.858	21682
860.99	21515
861.123	21382
861.256	21523
861.388	21610
861.521	22185
861.653	21374
861.786	21420
861.918	21408
862.05	21534
862.183	21378
862.315	21424
862.447	21511
862.58	21405
862.712	21161
862.844	21188
862.976	21279
863.108	21370
863.24	21595
863.372	21245
863.504	21268
863.636	21291
863.768	21332
863.9	21291
864.032	21245
864.164	21222
864.296	21195
864.428	21363
864.559	21294
864.691	21317
864.823	21283
864.954	21188
865.086	21150
865.217	21214
865.349	21058
865.48	21047
865.612	21188
865.743	21241
865.875	21214
866.006	21100
866.137	21161
866.269	21135
866.4	21131
866.531	21066
866.662	20982
866.793	21070
866.924	21039
867.055	21032
867.186	21131
867.317	20948
867.448	21043
867.579	21108
867.71	21020
867.841	21028
867.972	21028
868.103	21028
868.233	20994
868.364	21093
868.495	21096
868.625	21359
868.756	21466
868.886	21211
869.017	21351
869.147	21348
869.278	21431
869.408	21351
869.539	21355
869.669	21332
869.799	21321
869.929	21450
870.06	21393
870.19	21622
870.32	21580
870.45	21568
870.58	21717
870.71	21823
870.84	21709
870.97	21671
871.1	21633
871.23	21781
871.36	21861
871.489	21713
871.619	21861
871.749	21865
871.879	21960
872.008	21979
872.138	21861
872.267	21884
872.397	21690
872.526	21701
872.656	21838
872.785	21625
872.915	22002
873.044	22097
873.173	21903
873.303	22013
873.432	21949
873.561	21926
873.69	21934
873.819	21941
873.948	21911
874.077	21873
874.206	21945
874.335	22040
874.464	22105
874.593	22051
874.722	22063
874.851	22059
874.979	22215
875.108	22322
875.237	22112
875.365	22051
875.494	22055
875.623	22177
875.751	22143
875.88	22219
876.008	22261
876.136	22352
876.265	22577
876.393	22691
876.521	22675
876.65	22599
876.778	22478
876.906	22478
877.034	22421
877.162	22402
877.29	22371
877.418	22569
877.546	22478
877.674	22538
877.802	22531
877.93	22394
878.058	22535
878.185	22249
878.313	22405
878.441	22360
878.568	22360
878.696	22500
878.824	22516
878.951	22607
879.079	22641
879.206	22767
879.333	22550
879.461	22527
879.588	22615
879.715	22538
879.842	22736
879.97	22546
880.097	22386
880.224	22417
880.351	22341
880.478	22325
880.605	22310
880.732	22333
880.859	22436
880.986	22234
881.112	22443
881.239	22219
881.366	22074
881.493	21953
881.619	21789
881.746	21892
881.872	21987
881.999	21895
882.125	21770
882.252	21941
882.378	21831
882.505	21953
882.631	21667
882.757	21610
882.883	21755
883.01	21591
883.136	21515
883.262	21477
883.388	21355
883.514	21534
883.64	21675
883.766	21447
883.892	21397
884.018	21428
884.143	21507
884.269	21603
884.395	21203
884.52	21211
884.646	21230
884.772	21195
884.897	21077
885.023	21325
885.148	21325
885.274	21431
885.399	21245
885.524	21252
885.65	21195
885.775	21207
885.9	21249
886.025	21367
886.15	21317
886.275	21150
886.4	21020
886.525	21214
886.65	21066
886.775	21180
886.9	21275
887.025	21412
887.149	21230
887.274	20979
887.399	20941
887.523	21036
887.648	20952
887.773	20891
887.897	20967
888.021	20937
888.146	20937
888.27	21020
888.395	21020
888.519	21005
888.643	21085
888.767	20826
888.891	20750
889.015	20689
889.139	20811
889.263	20788
889.387	20868
889.511	20933
889.635	20910
889.759	20727
889.883	20777
890.006	20640
890.13	20830
890.254	20682
890.377	20724
890.501	20583
890.624	20495
890.748	20568
890.871	20457
890.995	20339
891.118	20286
891.241	20381
891.364	20355
891.488	20499
891.611	20408
891.734	20347
891.857	20393
891.98	20358
892.103	20362
892.226	20415
892.349	20225
892.471	20229
892.594	20225
892.717	20381
892.839	20252
892.962	20233
893.085	20366
893.207	20073
893.33	20153
893.452	20115
893.575	20263
893.697	20240
893.819	20324
893.941	20438
894.064	20343
894.186	20278
894.308	20035
894.43	20366
894.552	20339
894.674	20218
894.796	20157
894.918	20320
895.04	20191
895.161	20210
895.283	20358
895.405	20176
895.526	20240
895.648	20237
895.769	20309
895.891	20286
896.012	20286
896.134	20259
896.255	20233
896.376	20168
896.498	20301
896.619	20259
896.74	20153
896.861	20252
896.982	20476
897.103	20697
897.224	20522
897.345	20412
897.466	20301
897.587	20492
897.708	20526
897.828	20632
897.949	20336
898.07	20328
898.19	20393
898.311	20537
898.431	20301
898.552	20442
898.672	20419
898.792	20575
898.913	20552
899.033	20355
899.153	20256
899.273	20168
899.393	20214
899.513	20199
899.633	20180
899.753	20343
899.873	20187
899.993	20332
900.113	20119
900.232	20138
900.352	20107
900.472	20149
900.591	19830
900.711	20035
900.83	20020
900.95	19909
901.069	20092
901.189	19947
901.308	19578
901.427	19556
901.546	19556
901.665	19689
901.784	19476
901.904	19491
902.023	19301
902.141	19122
902.26	19046
902.379	19133
902.498	19065
902.617	19050
902.735	19015
902.854	19080
902.973	18928
903.091	18768
903.21	18817
903.328	18814
903.446	18661
903.565	18582
903.683	18582
903.801	18441
903.919	18452
904.038	18570
904.156	18429
904.274	18410
904.392	18285
904.51	18281
904.627	18338
904.745	18311
904.863	18254
904.981	18114
905.098	17961
905.216	17920
905.334	17984
905.451	17969
905.569	17901
905.686	17954
905.803	17965
905.921	17859
906.038	17840
906.155	17771
906.272	17604
906.389	17638
906.506	17551
906.623	17520
906.74	17585
906.857	17364
906.974	17368
907.091	17448
907.208	17745
907.324	17535
907.441	17311
907.557	17261
907.674	17288
907.79	17159
907.907	17273
908.023	17349
908.139	17128
908.256	17121
908.372	17197
908.488	17010
908.604	16987
908.72	16968
908.836	16908
908.952	16908
909.068	16934
909.184	17056
909.3	17003
909.415	16900
909.531	17006
909.647	16649
909.762	16668
909.878	16645
909.993	16683
910.108	16561
910.224	16569
910.339	16569
910.454	16493
910.57	16516
910.685	16375
910.8	16630
910.915	16573
911.03	16440
911.145	16219
911.259	16265
911.374	16268
911.489	16124
911.604	16162
911.718	16090
911.833	16048
911.947	15960
912.062	15797
912.176	15895
912.291	16059
912.405	15922
912.519	16128
912.633	16169
912.748	15987
912.862	15956
912.976	15831
913.09	15652
913.204	15880
913.318	15827
913.431	15766
913.545	15915
913.659	15888
913.772	15633
913.886	15694
914	15580
914.113	15701
914.226	15720
914.34	15618
914.453	15469
914.566	15614
914.68	15568
914.793	15504
914.906	15256
915.019	15302
915.132	15146
915.245	15203
915.358	15146
915.47	15146
915.583	15108
915.696	15176
915.809	15245
915.921	15207
916.034	15070
916.146	15028
916.259	15051
916.371	15150
916.483	15020
916.595	15081
916.708	15043
916.82	15017
916.932	15051
917.044	14941
917.156	14921
917.268	14857
917.38	14914
917.491	14804
917.603	14819
917.715	14925
917.826	14883
917.938	14830
918.049	14644
918.161	14762
918.272	14853
918.384	14864
918.495	14838
918.606	14610
918.717	14503
918.828	14587
918.939	14629
919.05	14438
919.161	14594
919.272	14286
919.383	14613
919.494	14617
919.604	14819
919.715	14575
919.826	14556
919.936	14495
920.047	14629
920.157	14533
920.267	14720
920.378	14610
920.488	14488
920.598	14720
920.708	14929
920.818	14705
920.928	14632
921.038	14838
921.148	14754
921.258	14511
921.368	14511
921.477	14351
921.587	14244
921.697	14214
921.806	14396
921.916	14161
922.025	14039
922.134	13917
922.244	13814
922.353	13963
922.462	13784
922.571	13693
922.68	13552
922.789	13616
922.898	13632
923.007	13590
923.116	13590
923.224	13567
923.333	13491
923.442	13464
923.55	13373
923.659	13369
923.767	13529
923.876	13369
923.984	13457
924.092	13282
924.201	13377
924.309	13362
924.417	13320
924.525	13244
924.633	13228
924.741	14107
924.849	13103
924.956	13179
925.064	13126
925.172	12935
925.279	12928
925.387	13095
925.494	13046
925.602	13133
925.709	13004
925.816	12943
925.924	12913
926.031	13000
926.138	12981
926.245	12924
926.352	12772
926.459	12985
926.566	12958
926.673	12867
926.779	12776
926.886	12772
926.993	12612
927.099	12623
927.206	12559
927.312	12479
927.419	12544
927.525	12570
927.631	12585
927.737	12464
927.843	12350
927.95	12258
928.056	12403
928.162	12395
928.267	12467
928.373	12970
928.479	12513
928.585	12258
928.69	12258
928.796	12346
928.901	12239
929.007	12064
929.112	12190
929.218	12095
929.323	12136
929.428	12121
929.533	12285
929.638	11999
929.743	12003
929.848	12022
929.953	12034
930.058	11923
930.163	11882
930.267	11824
930.372	11942
930.477	11737
930.581	11999
930.685	11851
930.79	11695
930.894	11714
930.998	11566
931.103	11828
931.207	11391
931.311	11425
931.415	11277
931.519	11071
931.623	11086
