Data from test_V78500241_3151.txt Node
Date: Fri Mar 25 15:31:48 CST 2022
User: usil
Spectrometer: V785-0024
Trigger mode: 0
Integration Time (sec): 4.000000E-1
Scans to average: 1
Nonlinearity correction enabled: false
Boxcar width: 0
Storing dark spectrum: false
XAxis mode: Wavelengths
Number of Pixels in Spectrum: 1024
>>>>>Begin Spectral Data<<<<<
801.071	27279
801.214	27268
801.356	26971
801.499	26876
801.641	26834
801.783	26773
801.926	26819
802.068	26785
802.211	26705
802.353	26682
802.496	26541
802.638	26495
802.78	26358
802.923	26328
803.065	26309
803.208	26351
803.35	26431
803.492	26499
803.635	26743
803.777	26564
803.919	26602
804.061	26952
804.204	26606
804.346	26545
804.488	26465
804.63	26552
804.773	26446
804.915	26556
805.057	26609
805.199	26606
805.341	26640
805.483	26655
805.626	26693
805.768	26663
805.91	26598
806.052	26629
806.194	26727
806.336	26815
806.478	26746
806.62	26781
806.762	26777
806.904	27009
807.046	27180
807.188	27169
807.33	27085
807.472	27154
807.614	26918
807.756	27062
807.898	26906
808.04	26758
808.182	26895
808.324	26845
808.465	26902
808.607	27173
808.749	27184
808.891	27359
809.033	27534
809.174	27412
809.316	27302
809.458	27268
809.6	27195
809.741	27275
809.883	27382
810.025	27435
810.166	27519
810.308	27523
810.45	27641
810.591	27458
810.733	27321
810.875	27249
811.016	27131
811.158	27180
811.299	27317
811.441	27538
811.582	27545
811.724	27272
811.865	27237
812.007	27154
812.148	27173
812.29	27256
812.431	27393
812.573	27557
812.714	27583
812.855	27694
812.997	27808
813.138	27934
813.279	27781
813.421	27789
813.562	27705
813.703	27473
813.845	27458
813.986	27127
814.127	27192
814.268	27009
814.41	26952
814.551	26982
814.692	26925
814.833	26944
814.974	26769
815.115	26990
815.256	26762
815.397	26788
815.539	26838
815.68	26629
815.821	26655
815.962	26697
816.103	26609
816.244	26514
816.385	26404
816.526	26431
816.666	26366
816.807	26050
816.948	26233
817.089	26305
817.23	26103
817.371	26008
817.512	26195
817.653	26122
817.793	26077
817.934	26119
818.075	26130
818.216	26229
818.356	26240
818.497	25955
818.638	25978
818.778	26035
818.919	26050
819.06	26092
819.2	25997
819.341	26172
819.481	26210
819.622	26176
819.762	26434
819.903	26275
820.043	26282
820.184	26301
820.324	26058
820.465	26259
820.605	26199
820.746	26142
820.886	26199
821.026	26199
821.167	26240
821.307	26214
821.447	26126
821.588	26084
821.728	25921
821.868	25784
822.008	25643
822.149	25601
822.289	25620
822.429	25324
822.569	25430
822.709	25354
822.849	25236
822.99	25168
823.13	25061
823.27	24920
823.41	24966
823.55	24886
823.69	25015
823.83	24951
823.97	24848
824.11	24703
824.25	24863
824.389	24776
824.529	24913
824.669	24642
824.809	24821
824.949	24943
825.089	24795
825.228	24817
825.368	24574
825.508	24673
825.648	24642
825.787	24722
825.927	24684
826.067	24486
826.206	24604
826.346	24844
826.485	24677
826.625	24700
826.765	24776
826.904	24566
827.044	24597
827.183	24292
827.323	24353
827.462	24361
827.601	24445
827.741	24235
827.88	24228
828.02	24163
828.159	24414
828.298	24201
828.437	24410
828.577	24266
828.716	24410
828.855	24228
828.994	24041
829.134	24110
829.273	24087
829.412	24034
829.551	24003
829.69	24171
829.829	24125
829.968	24174
830.107	24041
830.246	24114
830.385	24038
830.524	23958
830.663	23824
830.802	23623
830.941	23642
831.08	23649
831.219	23581
831.357	23722
831.496	23893
831.635	23668
831.774	23535
831.913	23543
832.051	23505
832.19	23425
832.329	23376
832.467	23383
832.606	23353
832.744	23360
832.883	23425
833.022	23337
833.16	23395
833.299	23425
833.437	23341
833.576	23497
833.714	23436
833.852	23581
833.991	23482
834.129	23585
834.267	23570
834.406	23395
834.544	23410
834.682	23421
834.821	23406
834.959	23535
835.097	23330
835.235	23558
835.373	23360
835.511	23417
835.65	23261
835.788	23372
835.926	23223
836.064	22991
836.202	23227
836.34	23250
836.478	23227
836.615	23098
836.753	23239
836.891	23349
837.029	23269
837.167	23166
837.305	23140
837.443	23098
837.58	23071
837.718	23098
837.856	23079
837.993	23033
838.131	23166
838.269	23159
838.406	23071
838.544	23056
838.681	22755
838.819	22679
838.956	22478
839.094	22569
839.231	22626
839.369	22858
839.506	22927
839.643	22889
839.781	22363
839.918	22561
840.055	22508
840.193	22466
840.33	22538
840.467	22531
840.604	22626
840.742	22911
840.879	22485
841.016	22409
841.153	22485
841.29	22596
841.427	22603
841.564	22592
841.701	22489
841.838	22421
841.975	22352
842.112	22428
842.249	22409
842.385	22291
842.522	22455
842.659	22318
842.796	22249
842.933	22287
843.069	22116
843.206	22211
843.343	22276
843.479	22261
843.616	22398
843.752	22044
843.889	22109
844.025	22078
844.162	22021
844.298	22185
844.435	21937
844.571	22082
844.708	22101
844.844	22204
844.98	22181
845.117	22158
845.253	21926
845.389	21926
845.525	21953
845.661	21888
845.798	21675
845.934	21781
846.07	21778
846.206	21903
846.342	21934
846.478	21766
846.614	21473
846.75	21454
846.886	21420
847.022	21595
847.158	21507
847.294	21557
847.429	21572
847.565	21462
847.701	21690
847.837	21367
847.972	21165
848.108	21332
848.244	21272
848.379	21218
848.515	21123
848.65	21131
848.786	21100
848.921	21233
849.057	21089
849.192	21195
849.328	21142
849.463	21055
849.598	21081
849.734	20944
849.869	21020
850.004	20895
850.14	20857
850.275	20868
850.41	20807
850.545	20765
850.68	20910
850.815	20872
850.95	20929
851.085	21108
851.22	21074
851.355	20887
851.49	20765
851.625	20872
851.76	20883
851.895	20834
852.03	20857
852.165	20948
852.299	20830
852.434	20960
852.569	20944
852.703	20918
852.838	20948
852.973	21081
853.107	20941
853.242	20921
853.376	20743
853.511	20503
853.645	20590
853.78	20823
853.914	20674
854.048	20712
854.183	20720
854.317	20663
854.451	20857
854.585	20735
854.72	20644
854.854	20861
854.988	20682
855.122	20727
855.256	20644
855.39	20655
855.524	20956
855.658	20864
855.792	20811
855.926	20727
856.06	20788
856.194	20842
856.327	20765
856.461	20621
856.595	20659
856.729	20606
856.862	20796
856.996	20720
857.13	20746
857.263	20815
857.397	20845
857.53	20613
857.664	20724
857.797	20819
857.931	20686
858.064	20632
858.197	20914
858.331	20697
858.464	20678
858.597	20693
858.731	20526
858.864	20674
858.997	20705
859.13	20781
859.263	20754
859.396	20792
859.529	20670
859.662	20785
859.795	20655
859.928	20674
860.061	20830
860.194	20880
860.327	20861
860.46	20777
860.592	20853
860.725	20872
860.858	20804
860.99	20800
861.123	20594
861.256	20640
861.388	20648
861.521	21173
861.653	20708
861.786	20454
861.918	20571
862.05	20629
862.183	20617
862.315	20712
862.447	20708
862.58	20686
862.712	20446
862.844	20336
862.976	20648
863.108	20415
863.24	20876
863.372	20450
863.504	20404
863.636	20522
863.768	20492
863.9	20404
864.032	20465
864.164	20419
864.296	20492
864.428	20492
864.559	20625
864.691	20469
864.823	20393
864.954	20415
865.086	20313
865.217	20282
865.349	20248
865.48	20442
865.612	20343
865.743	20465
865.875	20404
866.006	20412
866.137	20332
866.269	20267
866.4	20317
866.531	20256
866.662	20294
866.793	20172
866.924	20271
867.055	20294
867.186	20339
867.317	20332
867.448	20244
867.579	20191
867.71	20176
867.841	20244
867.972	20244
868.103	20271
868.233	20381
868.364	20320
868.495	20374
868.625	20522
868.756	20609
868.886	20442
869.017	20568
869.147	20670
869.278	20625
869.408	20598
869.539	20556
869.669	20564
869.799	20659
869.929	20571
870.06	20587
870.19	20872
870.32	20895
870.45	20876
870.58	20887
870.71	20948
870.84	21135
870.97	21055
871.1	20918
871.23	21169
871.36	21112
871.489	21043
871.619	21165
871.749	21131
871.879	21100
872.008	21211
872.138	21127
872.267	21131
872.397	20937
872.526	21039
872.656	20910
872.785	20998
872.915	21150
873.044	21279
873.173	21211
873.303	21252
873.432	21264
873.561	21252
873.69	21176
873.819	21180
873.948	21256
874.077	21222
874.206	21161
874.335	21161
874.464	21359
874.593	21477
874.722	21294
874.851	21485
874.979	21469
875.108	21545
875.237	21332
875.365	21260
875.494	21553
875.623	21618
875.751	21386
875.88	21454
876.008	21511
876.136	21538
876.265	22010
876.393	21987
876.521	21907
876.65	21975
876.778	21759
876.906	21785
877.034	21713
877.162	21770
877.29	21778
877.418	21911
877.546	21816
877.674	21736
877.802	21869
877.93	21736
878.058	21854
878.185	21591
878.313	21686
878.441	21861
878.568	21511
878.696	21663
878.824	21770
878.951	21880
879.079	21956
879.206	22078
879.333	21865
879.461	21892
879.588	21838
879.715	21930
879.842	22044
879.97	21888
880.097	21542
880.224	21606
880.351	21759
880.478	21675
880.605	21500
880.732	21603
880.859	21842
880.986	21648
881.112	21625
881.239	21504
881.366	21291
881.493	21245
881.619	21055
881.746	21214
881.872	21180
881.999	21100
882.125	21150
882.252	21165
882.378	21112
882.505	21245
882.631	21142
882.757	20891
882.883	20971
883.01	20918
883.136	20861
883.262	20617
883.388	20708
883.514	20933
883.64	20838
883.766	20807
883.892	20564
884.018	20594
884.143	20762
884.269	20906
884.395	20640
884.52	20568
884.646	20667
884.772	20396
884.897	20377
885.023	20571
885.148	20564
885.274	20609
885.399	20613
885.524	20644
885.65	20617
885.775	20446
885.9	20461
886.025	20750
886.15	20526
886.275	20393
886.4	20511
886.525	20408
886.65	20415
886.775	20442
886.9	20636
887.025	20651
887.149	20613
887.274	20415
887.399	20263
887.523	20339
887.648	20351
887.773	20180
887.897	20320
888.021	20419
888.146	20229
888.27	20438
888.395	20389
888.519	20362
888.643	20313
888.767	20385
888.891	20248
889.015	20138
889.139	20145
889.263	20077
889.387	20218
889.511	20263
889.635	20195
889.759	20115
889.883	20016
890.006	20058
890.13	20218
890.254	19997
890.377	20081
890.501	19776
890.624	19776
890.748	19959
890.871	19814
890.995	19544
891.118	19609
891.241	19769
891.364	19670
891.488	19833
891.611	19761
891.734	19700
891.857	19742
891.98	19655
892.103	19746
892.226	19746
892.349	19628
892.471	19563
892.594	19575
892.717	19666
892.839	19685
892.962	19613
893.085	19563
893.207	19537
893.33	19499
893.452	19487
893.575	19601
893.697	19578
893.819	19719
893.941	19772
894.064	19814
894.186	19620
894.308	19521
894.43	19769
894.552	19803
894.674	19670
894.796	19533
894.918	19582
895.04	19567
895.161	19647
895.283	19639
895.405	19518
895.526	19540
895.648	19594
895.769	19765
895.891	19693
896.012	19723
896.134	19715
896.255	19658
896.376	19556
896.498	19540
896.619	19552
896.74	19525
896.861	19647
896.982	19928
897.103	20024
897.224	19947
897.345	19833
897.466	19757
897.587	19818
897.708	19955
897.828	19837
897.949	19757
898.07	19620
898.19	19731
898.311	19902
898.431	19818
898.552	19909
898.672	19845
898.792	19890
898.913	19803
899.033	19852
899.153	19727
899.273	19670
899.393	19594
899.513	19624
899.633	19643
899.753	19575
899.873	19460
899.993	19704
900.113	19563
900.232	19521
900.352	19525
900.472	19499
900.591	19449
900.711	19350
900.83	19384
900.95	19483
901.069	19552
901.189	19297
901.308	19057
901.427	19015
901.546	19034
901.665	19027
901.784	19065
901.904	18856
902.023	18776
902.141	18608
902.26	18544
902.379	18563
902.498	18448
902.617	18448
902.735	18445
902.854	18422
902.973	18361
903.091	18186
903.21	18194
903.328	18197
903.446	18125
903.565	17992
903.683	17980
903.801	17878
903.919	17916
904.038	17901
904.156	17714
904.274	17908
904.392	17794
904.51	17714
904.627	17672
904.745	17786
904.863	17771
904.981	17516
905.098	17425
905.216	17452
905.334	17398
905.451	17360
905.569	17284
905.686	17349
905.803	17356
905.921	17216
906.038	17258
906.155	17296
906.272	17117
906.389	17147
906.506	17003
906.623	16949
906.74	16927
906.857	16854
906.974	16839
907.091	16927
907.208	17003
907.324	16987
907.441	16843
907.557	16820
907.674	16637
907.79	16592
907.907	16630
908.023	16702
908.139	16710
908.256	16668
908.372	16668
908.488	16535
908.604	16466
908.72	16371
908.836	16360
908.952	16333
909.068	16360
909.184	16421
909.3	16310
909.415	16367
909.531	16379
909.647	16287
909.762	16173
909.878	16048
909.993	16071
910.108	16071
910.224	16032
910.339	16112
910.454	16090
910.57	15876
910.685	15903
910.8	16109
910.915	15964
911.03	15876
911.145	15705
911.259	15679
911.374	15785
911.489	15656
911.604	15663
911.718	15397
911.833	15549
911.947	15348
912.062	15272
912.176	15477
912.291	15458
912.405	15424
912.519	15603
912.633	15671
912.748	15507
912.862	15370
912.976	15226
913.09	15199
913.204	15245
913.318	15275
913.431	15279
913.545	15348
913.659	15412
913.772	15325
913.886	15249
914	15104
914.113	15123
914.226	15203
914.34	15188
914.453	14952
914.566	15161
914.68	14952
914.793	14971
914.906	14750
915.019	14621
915.132	14610
915.245	14739
915.358	14773
915.47	14720
915.583	14629
915.696	14724
915.809	14765
915.921	14826
916.034	14594
916.146	14613
916.259	14625
916.371	14629
916.483	14762
916.595	14579
916.708	14522
916.82	14492
916.932	14495
917.044	14473
917.156	14492
917.268	14336
917.38	14438
917.491	14377
917.603	14377
917.715	14476
917.826	14423
917.938	14377
918.049	14275
918.161	14202
918.272	14484
918.384	14454
918.495	14358
918.606	14237
918.717	14081
918.828	14176
918.939	14218
919.05	14039
919.161	14168
919.272	13974
919.383	13944
919.494	14130
919.604	14267
919.715	14084
919.826	14035
919.936	14176
920.047	14111
920.157	14180
920.267	14244
920.378	14180
920.488	14100
920.598	14347
920.708	14366
920.818	14214
920.928	14214
921.038	14461
921.148	14324
921.258	14081
921.368	13936
921.477	13940
921.587	13795
921.697	13681
921.806	13921
921.916	13666
922.025	13628
922.134	13521
922.244	13407
922.353	13563
922.462	13449
922.571	13327
922.68	13213
922.789	13114
922.898	13137
923.007	13149
923.116	13190
923.224	13164
923.333	13095
923.442	13012
923.55	12973
923.659	13053
923.767	13019
923.876	12970
923.984	13069
924.092	12913
924.201	12928
924.309	12935
924.417	12939
924.525	12920
924.633	12817
924.741	13814
924.849	12745
924.956	12726
925.064	12646
925.172	12593
925.279	12559
925.387	12612
925.494	12578
925.602	12715
925.709	12635
925.816	12551
925.924	12498
926.031	12715
926.138	12513
926.245	12540
926.352	12399
926.459	12566
926.566	12570
926.673	12509
926.779	12304
926.886	12350
926.993	12209
927.099	12277
927.206	12152
927.312	12049
927.419	12220
927.525	12152
927.631	12243
927.737	12053
927.843	12076
927.95	11885
928.056	11996
928.162	11920
928.267	11961
928.373	12574
928.479	12026
928.585	11843
928.69	11935
928.796	11973
928.901	11832
929.007	11714
929.112	11863
929.218	11805
929.323	11771
929.428	11653
929.533	11939
929.638	11627
929.743	11668
929.848	11703
929.953	11676
930.058	11551
930.163	11486
930.267	11395
930.372	11516
930.477	11395
930.581	11619
930.685	11452
930.79	11265
930.894	11315
930.998	11326
931.103	11482
931.207	11094
931.311	10999
931.415	10946
931.519	10755
931.623	10752
