Data from test_V78500241_791.txt Node
Date: Fri Mar 25 15:15:21 CST 2022
User: usil
Spectrometer: V785-0024
Trigger mode: 0
Integration Time (sec): 4.000000E-1
Scans to average: 1
Nonlinearity correction enabled: false
Boxcar width: 0
Storing dark spectrum: false
XAxis mode: Wavelengths
Number of Pixels in Spectrum: 1024
>>>>>Begin Spectral Data<<<<<
801.071	28386
801.214	28363
801.356	28063
801.499	27911
801.641	27865
801.783	27770
801.926	27804
802.068	27819
802.211	27804
802.353	27682
802.496	27534
802.638	27595
802.78	27458
802.923	27561
803.065	27443
803.208	27424
803.35	27610
803.492	27629
803.635	27698
803.777	27667
803.919	27743
804.061	27941
804.204	27766
804.346	27682
804.488	27656
804.63	27705
804.773	27762
804.915	27781
805.057	27873
805.199	27690
805.341	27694
805.483	27937
805.626	27797
805.768	27724
805.91	27907
806.052	27899
806.194	27861
806.336	28082
806.478	27838
806.62	27861
806.762	28021
806.904	27914
807.046	28238
807.188	28226
807.33	28226
807.472	28261
807.614	28249
807.756	28246
807.898	28242
808.04	28219
808.182	28074
808.324	28280
808.465	28109
808.607	28299
808.749	28611
808.891	28596
809.033	28820
809.174	28660
809.316	28531
809.458	28508
809.6	28531
809.741	28755
809.883	28687
810.025	28900
810.166	28866
810.308	28930
810.45	28816
810.591	28778
810.733	28417
810.875	28523
811.016	28470
811.158	28413
811.299	28687
811.441	28816
811.582	28698
811.724	28546
811.865	28459
812.007	28478
812.148	28622
812.29	28641
812.431	28835
812.573	28896
812.714	28831
812.855	29242
812.997	29280
813.138	29330
813.279	29334
813.421	29048
813.562	28949
813.703	28987
813.845	28797
813.986	28485
814.127	28375
814.268	28356
814.41	28230
814.551	28226
814.692	28401
814.833	28432
814.974	28128
815.115	28272
815.256	28230
815.397	28211
815.539	28105
815.68	28093
815.821	27937
815.962	27964
816.103	28109
816.244	28002
816.385	27926
816.526	27876
816.666	27774
816.807	27633
816.948	27622
817.089	27797
817.23	27671
817.371	27686
817.512	27660
817.653	27633
817.793	27603
817.934	27686
818.075	27732
818.216	27637
818.356	27557
818.497	27488
818.638	27302
818.778	27408
818.919	27226
819.06	27389
819.2	27363
819.341	27553
819.481	27652
819.622	27728
819.762	27934
819.903	27759
820.043	27831
820.184	27751
820.324	27797
820.465	27603
820.605	27656
820.746	27694
820.886	27728
821.026	27717
821.167	27671
821.307	27663
821.447	27504
821.588	27405
821.728	27485
821.868	27203
822.008	27135
822.149	27085
822.289	27058
822.429	26743
822.569	26899
822.709	26819
822.849	26484
822.99	26644
823.13	26617
823.27	26579
823.41	26408
823.55	26278
823.69	26427
823.83	26480
823.97	26298
824.11	26149
824.25	26149
824.389	26138
824.529	26438
824.669	26328
824.809	26347
824.949	26252
825.089	26389
825.228	26343
825.368	25993
825.508	26199
825.648	26008
825.787	26164
825.927	26077
826.067	26069
826.206	26130
826.346	26145
826.485	26016
826.625	26035
826.765	26271
826.904	26142
827.044	25959
827.183	25921
827.323	25913
827.462	25955
827.601	25902
827.741	25841
827.88	25765
828.02	25719
828.159	25742
828.298	25890
828.437	25894
828.577	25841
828.716	25871
828.855	25715
828.994	25506
829.134	25605
829.273	25605
829.412	25419
829.551	25449
829.69	25468
829.829	25400
829.968	25540
830.107	25571
830.246	25609
830.385	25346
830.524	25324
830.663	25415
830.802	25164
830.941	25053
831.08	25091
831.219	25247
831.357	25160
831.496	25392
831.635	25141
831.774	25031
831.913	25034
832.051	24928
832.19	24871
832.329	24894
832.467	24829
832.606	24745
832.744	24677
832.883	24783
833.022	24745
833.16	24878
833.299	24745
833.437	24795
833.576	24954
833.714	24947
833.852	24848
833.991	24852
834.129	24871
834.267	24943
834.406	24798
834.544	25004
834.682	24859
834.821	24856
834.959	25012
835.097	24745
835.235	24909
835.373	24852
835.511	24905
835.65	24711
835.788	24715
835.926	24673
836.064	24528
836.202	24475
836.34	24658
836.478	24764
836.615	24681
836.753	24696
836.891	24658
837.029	24654
837.167	24639
837.305	24608
837.443	24441
837.58	24479
837.718	24585
837.856	24445
837.993	24308
838.131	24540
838.269	24327
838.406	24353
838.544	24308
838.681	24194
838.819	24159
838.956	23961
839.094	23996
839.231	23973
839.369	24167
839.506	24251
839.643	24129
839.781	23973
839.918	23958
840.055	24022
840.193	24091
840.33	23859
840.467	23935
840.604	23851
840.742	24174
840.879	23847
841.016	23817
841.153	23729
841.29	23988
841.427	23790
841.564	23901
841.701	23863
841.838	23855
841.975	23707
842.112	23615
842.249	23714
842.385	23646
842.522	23866
842.659	23680
842.796	23608
842.933	23722
843.069	23543
843.206	23573
843.343	23581
843.479	23672
843.616	23566
843.752	23372
843.889	23486
844.025	23611
844.162	23379
844.298	23440
844.435	23406
844.571	23353
844.708	23414
844.844	23570
844.98	23501
845.117	23581
845.253	23334
845.389	23330
845.525	23334
845.661	23189
845.798	23143
845.934	23075
846.07	23121
846.206	23200
846.342	23269
846.478	23048
846.614	22938
846.75	22816
846.886	22797
847.022	22972
847.158	22896
847.294	22915
847.429	22892
847.565	22858
847.701	23041
847.837	22554
847.972	22588
848.108	22702
848.244	22679
848.379	22584
848.515	22402
848.65	22379
848.786	22402
848.921	22607
849.057	22557
849.192	22573
849.328	22504
849.463	22531
849.598	22390
849.734	22356
849.869	22322
850.004	22188
850.14	22291
850.275	22284
850.41	22093
850.545	22150
850.68	22139
850.815	22090
850.95	22200
851.085	22382
851.22	22322
851.355	22226
851.49	22219
851.625	22093
851.76	22013
851.895	22219
852.03	22154
852.165	22158
852.299	22139
852.434	22086
852.569	22181
852.703	22181
852.838	22375
852.973	22318
853.107	22295
853.242	22268
853.376	22086
853.511	21953
853.645	22147
853.78	22173
853.914	22002
854.048	22185
854.183	22105
854.317	22109
854.451	22207
854.585	21968
854.72	22002
854.854	22059
854.988	22040
855.122	22029
855.256	21884
855.39	21987
855.524	22063
855.658	22090
855.792	22013
855.926	22074
856.06	22124
856.194	22116
856.327	22010
856.461	22051
856.595	21968
856.729	21975
856.862	22120
856.996	22074
857.13	22097
857.263	22067
857.397	22116
857.53	22093
857.664	22051
857.797	22207
857.931	22074
858.064	22029
858.197	22154
858.331	22059
858.464	22006
858.597	21964
858.731	21911
858.864	22002
858.997	22036
859.13	22070
859.263	22055
859.396	22154
859.529	21994
859.662	22055
859.795	21884
859.928	21945
860.061	22211
860.194	22253
860.327	22032
860.46	22025
860.592	22063
860.725	22128
860.858	22238
860.99	22036
861.123	22044
861.256	22082
861.388	22010
861.521	22717
861.653	21888
861.786	21876
861.918	21907
862.05	21903
862.183	21831
862.315	21953
862.447	21960
862.58	21964
862.712	21770
862.844	21595
862.976	21797
863.108	21850
863.24	22192
863.372	21610
863.504	21846
863.636	21682
863.768	21755
863.9	21766
864.032	21648
864.164	21667
864.296	21747
864.428	21838
864.559	21816
864.691	21755
864.823	21625
864.954	21781
865.086	21694
865.217	21618
865.349	21656
865.48	21568
865.612	21656
865.743	21751
865.875	21606
866.006	21515
866.137	21549
866.269	21523
866.4	21504
866.531	21576
866.662	21519
866.793	21538
866.924	21526
867.055	21622
867.186	21469
867.317	21576
867.448	21416
867.579	21386
867.71	21447
867.841	21393
867.972	21591
868.103	21583
868.233	21595
868.364	21447
868.495	21618
868.625	21797
868.756	21895
868.886	21770
869.017	21831
869.147	21774
869.278	21922
869.408	21827
869.539	21736
869.669	21869
869.799	21785
869.929	21850
870.06	21895
870.19	22048
870.32	22200
870.45	22086
870.58	22185
870.71	22177
870.84	22204
870.97	22158
871.1	22166
871.23	22261
871.36	22398
871.489	22291
871.619	22322
871.749	22390
871.879	22382
872.008	22489
872.138	22466
872.267	22363
872.397	22181
872.526	22185
872.656	22268
872.785	22158
872.915	22352
873.044	22367
873.173	22451
873.303	22440
873.432	22478
873.561	22485
873.69	22455
873.819	22421
873.948	22428
874.077	22440
874.206	22546
874.335	22379
874.464	22428
874.593	22634
874.722	22599
874.851	22580
874.979	22763
875.108	22656
875.237	22584
875.365	22516
875.494	22489
875.623	22565
875.751	22508
875.88	22470
876.008	22694
876.136	22713
876.265	23197
876.393	23121
876.521	22908
876.65	22976
876.778	22908
876.906	22949
877.034	22904
877.162	22889
877.29	22889
877.418	22930
877.546	22919
877.674	23060
877.802	23029
877.93	22896
878.058	22858
878.185	22847
878.313	22843
878.441	22854
878.568	22790
878.696	22877
878.824	22927
878.951	22866
879.079	23124
879.206	23117
879.333	23010
879.461	22938
879.588	23090
879.715	23113
879.842	23261
879.97	22946
880.097	22744
880.224	22683
880.351	22911
880.478	22771
880.605	22679
880.732	22672
880.859	23010
880.986	22702
881.112	22744
881.239	22649
881.366	22493
881.493	22352
881.619	22436
881.746	22284
881.872	22280
881.999	22234
882.125	22325
882.252	22402
882.378	22204
882.505	22318
882.631	22131
882.757	22177
882.883	22029
883.01	21994
883.136	22010
883.262	21941
883.388	21918
883.514	22070
883.64	22036
883.766	22029
883.892	21759
884.018	21724
884.143	22055
884.269	22059
884.395	21705
884.52	21622
884.646	21690
884.772	21663
884.897	21538
885.023	21637
885.148	21663
885.274	21747
885.399	21793
885.524	21641
885.65	21701
885.775	21701
885.9	21717
886.025	21720
886.15	21808
886.275	21709
886.4	21595
886.525	21564
886.65	21466
886.775	21641
886.9	21709
887.025	21835
887.149	21652
887.274	21378
887.399	21401
887.523	21450
887.648	21389
887.773	21389
887.897	21481
888.021	21443
888.146	21332
888.27	21462
888.395	21580
888.519	21367
888.643	21439
888.767	21466
888.891	21443
889.015	21184
889.139	21252
889.263	21138
889.387	21363
889.511	21378
889.635	21287
889.759	21127
889.883	21184
890.006	21264
890.13	21272
890.254	21089
890.377	21032
890.501	20899
890.624	20925
890.748	21039
890.871	20967
890.995	20800
891.118	20724
891.241	20929
891.364	20769
891.488	20925
891.611	20804
891.734	20785
891.857	20788
891.98	20765
892.103	20773
892.226	20842
892.349	20602
892.471	20469
892.594	20617
892.717	20727
892.839	20762
892.962	20686
893.085	20689
893.207	20651
893.33	20655
893.452	20473
893.575	20735
893.697	20568
893.819	20796
893.941	20743
894.064	20826
894.186	20621
894.308	20613
894.43	20651
894.552	20758
894.674	20697
894.796	20613
894.918	20651
895.04	20507
895.161	20644
895.283	20708
895.405	20461
895.526	20549
895.648	20590
895.769	20697
895.891	20659
896.012	20765
896.134	20727
896.255	20663
896.376	20541
896.498	20735
896.619	20689
896.74	20564
896.861	20659
896.982	20933
897.103	21017
897.224	20921
897.345	20872
897.466	20769
897.587	20830
897.708	21024
897.828	20796
897.949	20781
898.07	20682
898.19	20880
898.311	20941
898.431	20819
898.552	20864
898.672	20857
898.792	21001
898.913	20781
899.033	20571
899.153	20651
899.273	20530
899.393	20629
899.513	20708
899.633	20712
899.753	20746
899.873	20678
899.993	20674
900.113	20598
900.232	20507
900.352	20533
900.472	20332
900.591	20415
900.711	20415
900.83	20362
900.95	20404
901.069	20400
901.189	20214
901.308	20065
901.427	19951
901.546	19902
901.665	19917
901.784	19959
901.904	19841
902.023	19670
902.141	19483
902.26	19483
902.379	19514
902.498	19403
902.617	19502
902.735	19460
902.854	19403
902.973	19297
903.091	19095
903.21	19156
903.328	19065
903.446	19080
903.565	18981
903.683	18951
903.801	18882
903.919	18909
904.038	18852
904.156	18711
904.274	18692
904.392	18608
904.51	18650
904.627	18635
904.745	18814
904.863	18661
904.981	18365
905.098	18426
905.216	18277
905.334	18308
905.451	18418
905.569	18338
905.686	18426
905.803	18380
905.921	18136
906.038	18171
906.155	18057
906.272	18064
906.389	18106
906.506	17866
906.623	17840
906.74	17923
906.857	17726
906.974	17874
907.091	17942
907.208	17980
907.324	17923
907.441	17718
907.557	17608
907.674	17520
907.79	17558
907.907	17600
908.023	17668
908.139	17630
908.256	17501
908.372	17524
908.488	17315
908.604	17307
908.72	17155
908.836	17360
908.952	17212
909.068	17318
909.184	17406
909.3	17269
909.415	17299
909.531	17296
909.647	17025
909.762	17029
909.878	16976
909.993	16877
910.108	17003
910.224	16965
910.339	16923
910.454	16847
910.57	16778
910.685	16771
910.8	16984
910.915	16911
911.03	16816
911.145	16577
911.259	16664
911.374	16626
911.489	16478
911.604	16470
911.718	16280
911.833	16382
911.947	16253
912.062	16120
912.176	16238
912.291	16310
912.405	16337
912.519	16618
912.633	16519
912.748	16352
912.862	16306
912.976	16116
913.09	16017
913.204	16124
913.318	16166
913.431	16204
913.545	16306
913.659	16261
913.772	16143
913.886	15926
914	15842
914.113	16067
914.226	16051
914.34	15972
914.453	15778
914.566	15960
914.68	15846
914.793	15770
914.906	15584
915.019	15648
915.132	15473
915.245	15568
915.358	15511
915.47	15576
915.583	15545
915.696	15504
915.809	15595
915.921	15618
916.034	15580
916.146	15412
916.259	15439
916.371	15420
916.483	15439
916.595	15306
916.708	15462
916.82	15458
916.932	15237
917.044	15283
917.156	15310
917.268	15142
917.38	15154
917.491	15218
917.603	15256
917.715	15264
917.826	15260
917.938	15093
918.049	14975
918.161	15180
918.272	15199
918.384	15283
918.495	15112
918.606	14941
918.717	14906
918.828	14937
918.939	14925
919.05	14758
919.161	14872
919.272	14655
919.383	14739
919.494	14952
919.604	15173
919.715	14948
919.826	14811
919.936	14883
920.047	14891
920.157	14967
920.267	15047
920.378	14838
920.488	14724
920.598	15074
920.708	15146
920.818	15036
920.928	14998
921.038	15142
921.148	15165
921.258	14785
921.368	14724
921.477	14602
921.587	14625
921.697	14412
921.806	14640
921.916	14377
922.025	14298
922.134	14214
922.244	14157
922.353	14233
922.462	14046
922.571	14073
922.68	13856
922.789	13803
922.898	13803
923.007	13731
923.116	13928
923.224	13875
923.333	13822
923.442	13696
923.55	13613
923.659	13704
923.767	13811
923.876	13643
923.984	13757
924.092	13548
924.201	13658
924.309	13578
924.417	13605
924.525	13502
924.633	13578
924.741	14240
924.849	13373
924.956	13487
925.064	13350
925.172	13236
925.279	13171
925.387	13293
925.494	13289
925.602	13362
925.709	13320
925.816	13171
925.924	13270
926.031	13308
926.138	13179
926.245	13217
926.352	13050
926.459	13350
926.566	13270
926.673	13122
926.779	13053
926.886	12981
926.993	12882
927.099	12859
927.206	12867
927.312	12738
927.419	12932
927.525	12886
927.631	12848
927.737	12688
927.843	12570
927.95	12559
928.056	12658
928.162	12627
928.267	12658
928.373	13346
928.479	12692
928.585	12429
928.69	12601
928.796	12608
928.901	12494
929.007	12365
929.112	12456
929.218	12502
929.323	12361
929.428	12410
929.533	12509
929.638	12281
929.743	12311
929.848	12319
929.953	12254
930.058	12209
930.163	12007
930.267	11973
930.372	12136
930.477	11984
930.581	12232
930.685	12064
930.79	11882
930.894	11961
930.998	11927
931.103	11961
931.207	11585
931.311	11608
931.415	11512
931.519	11288
931.623	11292
