Data from test_V78500241_565.txt Node
Date: Fri Mar 25 15:13:47 CST 2022
User: usil
Spectrometer: V785-0024
Trigger mode: 0
Integration Time (sec): 4.000000E-1
Scans to average: 1
Nonlinearity correction enabled: false
Boxcar width: 0
Storing dark spectrum: false
XAxis mode: Wavelengths
Number of Pixels in Spectrum: 1024
>>>>>Begin Spectral Data<<<<<
801.071	26842
801.214	26686
801.356	26602
801.499	26507
801.641	26385
801.783	26320
801.926	26549
802.068	26438
802.211	26161
802.353	26142
802.496	26149
802.638	26039
802.78	26039
802.923	25955
803.065	25963
803.208	25936
803.35	26069
803.492	26065
803.635	26172
803.777	25951
803.919	26027
804.061	26377
804.204	26103
804.346	26012
804.488	25989
804.63	25982
804.773	25944
804.915	26092
805.057	26122
805.199	26096
805.341	26195
805.483	26172
805.626	26202
805.768	25993
805.91	26157
806.052	26195
806.194	26134
806.336	26377
806.478	26168
806.62	26317
806.762	26214
806.904	26469
807.046	26811
807.188	26705
807.33	26583
807.472	26689
807.614	26590
807.756	26617
807.898	26332
808.04	26419
808.182	26408
808.324	26404
808.465	26412
808.607	26739
808.749	26716
808.891	26819
809.033	26940
809.174	26842
809.316	26853
809.458	26861
809.6	26864
809.741	26887
809.883	26853
810.025	27138
810.166	27070
810.308	27241
810.45	27032
810.591	26963
810.733	26914
810.875	26739
811.016	26743
811.158	26724
811.299	26849
811.441	27013
811.582	26815
811.724	26773
811.865	26693
812.007	26754
812.148	26769
812.29	26842
812.431	26800
812.573	27039
812.714	27157
812.855	27317
812.997	27412
813.138	27717
813.279	27351
813.421	27485
813.562	27180
813.703	27157
813.845	27047
813.986	26648
814.127	26473
814.268	26450
814.41	26526
814.551	26530
814.692	26499
814.833	26381
814.974	26442
815.115	26400
815.256	26221
815.397	26263
815.539	26320
815.68	26339
815.821	26065
815.962	26271
816.103	26130
816.244	26153
816.385	26084
816.526	25955
816.666	25837
816.807	25434
816.948	25632
817.089	25860
817.23	25830
817.371	25696
817.512	25708
817.653	25670
817.793	25696
817.934	25742
818.075	25655
818.216	25723
818.356	25738
818.497	25616
818.638	25483
818.778	25400
818.919	25506
819.06	25559
819.2	25495
819.341	25647
819.481	25662
819.622	25826
819.762	25974
819.903	25913
820.043	25871
820.184	25769
820.324	25761
820.465	25883
820.605	25788
820.746	25814
820.886	25643
821.026	25906
821.167	25715
821.307	25841
821.447	25734
821.588	25533
821.728	25567
821.868	25373
822.008	25080
822.149	25095
822.289	25091
822.429	24875
822.569	24795
822.709	24863
822.849	24646
822.99	24677
823.13	24582
823.27	24536
823.41	24319
823.55	24391
823.69	24437
823.83	24498
823.97	24311
824.11	24311
824.25	24353
824.389	24330
824.529	24350
824.669	24232
824.809	24422
824.949	24388
825.089	24357
825.228	24403
825.368	24125
825.508	24205
825.648	24239
825.787	24300
825.927	24426
826.067	24038
826.206	23984
826.346	24194
826.485	24152
826.625	24224
826.765	24281
826.904	24133
827.044	23901
827.183	24003
827.323	23798
827.462	23821
827.601	23836
827.741	23790
827.88	23878
828.02	23798
828.159	23760
828.298	23847
828.437	23908
828.577	23824
828.716	24003
828.855	23786
828.994	23680
829.134	23611
829.273	23585
829.412	23570
829.551	23497
829.69	23535
829.829	23539
829.968	23665
830.107	23646
830.246	23600
830.385	23531
830.524	23520
830.663	23440
830.802	23398
830.941	23147
831.08	23265
831.219	23303
831.357	23246
831.496	23345
831.635	23174
831.774	23178
831.913	23083
832.051	23124
832.19	22961
832.329	23006
832.467	22946
832.606	22904
832.744	22877
832.883	22915
833.022	22824
833.16	22877
833.299	22965
833.437	22976
833.576	22980
833.714	23124
833.852	23090
833.991	22972
834.129	22976
834.267	22961
834.406	22927
834.544	23044
834.682	23010
834.821	22862
834.959	23102
835.097	22824
835.235	22980
835.373	22733
835.511	22869
835.65	22908
835.788	22805
835.926	22721
836.064	22546
836.202	22763
836.34	22820
836.478	22927
836.615	22740
836.753	22782
836.891	22908
837.029	22755
837.167	22801
837.305	22755
837.443	22694
837.58	22649
837.718	22778
837.856	22786
837.993	22668
838.131	22710
838.269	22493
838.406	22618
838.544	22306
838.681	22402
838.819	22238
838.956	22131
839.094	22207
839.231	22185
839.369	22341
839.506	22459
839.643	22356
839.781	22139
839.918	22131
840.055	22139
840.193	22139
840.33	22162
840.467	22070
840.604	22105
840.742	22337
840.879	21895
841.016	22002
841.153	21968
841.29	22120
841.427	22025
841.564	22105
841.701	22044
841.838	22101
841.975	22051
842.112	22032
842.249	21941
842.385	21838
842.522	22044
842.659	21800
842.796	21876
842.933	21876
843.069	21720
843.206	21808
843.343	21945
843.479	21987
843.616	21793
843.752	21656
843.889	21553
844.025	21762
844.162	21614
844.298	21637
844.435	21473
844.571	21523
844.708	21671
844.844	21717
844.98	21739
845.117	21572
845.253	21443
845.389	21553
845.525	21477
845.661	21420
845.798	21355
845.934	21310
846.07	21302
846.206	21313
846.342	21485
846.478	21416
846.614	21070
846.75	21093
846.886	21009
847.022	21241
847.158	21085
847.294	21001
847.429	21192
847.565	20967
847.701	21256
847.837	20785
847.972	20830
848.108	20952
848.244	20925
848.379	20785
848.515	20697
848.65	20769
848.786	20758
848.921	20625
849.057	20743
849.192	20849
849.328	20777
849.463	20636
849.598	20682
849.734	20644
849.869	20571
850.004	20530
850.14	20552
850.275	20461
850.41	20374
850.545	20419
850.68	20480
850.815	20358
850.95	20408
851.085	20564
851.22	20606
851.355	20495
851.49	20431
851.625	20415
851.76	20499
851.895	20358
852.03	20191
852.165	20362
852.299	20431
852.434	20476
852.569	20412
852.703	20355
852.838	20549
852.973	20560
853.107	20454
853.242	20476
853.376	20267
853.511	20164
853.645	20294
853.78	20446
853.914	20290
854.048	20294
854.183	20210
854.317	20248
854.451	20427
854.585	20358
854.72	20320
854.854	20377
854.988	20191
855.122	20320
855.256	20149
855.39	20199
855.524	20320
855.658	20374
855.792	20225
855.926	20339
856.06	20332
856.194	20415
856.327	20275
856.461	20187
856.595	20218
856.729	20351
856.862	20419
856.996	20164
857.13	20347
857.263	20351
857.397	20347
857.53	20252
857.664	20259
857.797	20438
857.931	20355
858.064	20370
858.197	20396
858.331	20377
858.464	20240
858.597	20176
858.731	20275
858.864	20176
858.997	20248
859.13	20298
859.263	20336
859.396	20286
859.529	20294
859.662	20210
859.795	20145
859.928	20271
860.061	20476
860.194	20427
860.327	20328
860.46	20271
860.592	20153
860.725	20434
860.858	20431
860.99	20358
861.123	20168
861.256	20161
861.388	20309
861.521	21123
861.653	20065
861.786	20012
861.918	20092
862.05	20164
862.183	20172
862.315	20237
862.447	20130
862.58	20107
862.712	19925
862.844	20035
862.976	20084
863.108	20039
863.24	20412
863.372	19845
863.504	20008
863.636	19902
863.768	19997
863.9	19913
864.032	19951
864.164	19917
864.296	19875
864.428	20058
864.559	19963
864.691	20202
864.823	19989
864.954	20016
865.086	19925
865.217	19940
865.349	19864
865.48	19906
865.612	19963
865.743	20016
865.875	19807
866.006	19818
866.137	19841
866.269	19849
866.4	19814
866.531	19940
866.662	19727
866.793	19685
866.924	19906
867.055	19868
867.186	19879
867.317	19864
867.448	19799
867.579	19757
867.71	19784
867.841	19852
867.972	19727
868.103	19852
868.233	19913
868.364	19951
868.495	19925
868.625	20142
868.756	20263
868.886	19986
869.017	20153
869.147	20168
869.278	20138
869.408	20115
869.539	20168
869.669	20122
869.799	20058
869.929	20176
870.06	20298
870.19	20465
870.32	20355
870.45	20446
870.58	20377
870.71	20594
870.84	20594
870.97	20366
871.1	20537
871.23	20609
871.36	20644
871.489	20621
871.619	20708
871.749	20708
871.879	20720
872.008	20746
872.138	20815
872.267	20625
872.397	20526
872.526	20507
872.656	20480
872.785	20655
872.915	20549
873.044	20804
873.173	20712
873.303	20754
873.432	20678
873.561	20853
873.69	20716
873.819	20743
873.948	20788
874.077	20750
874.206	20526
874.335	20674
874.464	20781
874.593	21001
874.722	20906
874.851	20975
874.979	20895
875.108	20982
875.237	20864
875.365	20853
875.494	20952
875.623	20971
875.751	20933
875.88	20918
876.008	21077
876.136	21116
876.265	21291
876.393	21622
876.521	21321
876.65	21428
876.778	21340
876.906	21222
877.034	21249
877.162	21241
877.29	21142
877.418	21450
877.546	21405
877.674	21325
877.802	21275
877.93	21329
878.058	21283
878.185	21192
878.313	21226
878.441	21237
878.568	21154
878.696	21142
878.824	21351
878.951	21348
879.079	21549
879.206	21610
879.333	21530
879.461	21367
879.588	21397
879.715	21515
879.842	21572
879.97	21275
880.097	21089
880.224	21077
880.351	21131
880.478	21074
880.605	21036
880.732	21127
880.859	21321
880.986	21188
881.112	21077
881.239	20944
881.366	20838
881.493	20773
881.619	20697
881.746	20762
881.872	20705
881.999	20739
882.125	20712
882.252	20693
882.378	20830
882.505	20667
882.631	20629
882.757	20427
882.883	20537
883.01	20518
883.136	20484
883.262	20309
883.388	20240
883.514	20473
883.64	20374
883.766	20446
883.892	20259
884.018	20320
884.143	20374
884.269	20358
884.395	20244
884.52	20088
884.646	20149
884.772	19974
884.897	19959
885.023	20176
885.148	20271
885.274	20252
885.399	20119
885.524	19967
885.65	20084
885.775	20077
885.9	20214
886.025	20145
886.15	20138
886.275	20039
886.4	19875
886.525	20088
886.65	19947
886.775	20020
886.9	20199
887.025	20267
887.149	20001
887.274	19993
887.399	19898
887.523	19944
887.648	19814
887.773	19731
887.897	19936
888.021	19951
888.146	19693
888.27	19986
888.395	19871
888.519	19906
888.643	19947
888.767	19898
888.891	19795
889.015	19674
889.139	19769
889.263	19674
889.387	19742
889.511	19967
889.635	19791
889.759	19594
889.883	19700
890.006	19639
890.13	19780
890.254	19548
890.377	19556
890.501	19362
890.624	19316
890.748	19438
890.871	19392
890.995	19213
891.118	19190
891.241	19388
891.364	19282
891.488	19362
891.611	19202
891.734	19270
891.857	19244
891.98	19346
892.103	19251
892.226	19232
892.349	19164
892.471	19118
892.594	19202
892.717	19198
892.839	19251
892.962	19240
893.085	19274
893.207	19152
893.33	18996
893.452	19107
893.575	19228
893.697	19171
893.819	19263
893.941	19377
894.064	19217
894.186	19137
894.308	19118
894.43	19320
894.552	19381
894.674	19293
894.796	19160
894.918	19065
895.04	19148
895.161	19320
895.283	19175
895.405	19175
895.526	19171
895.648	19225
895.769	19175
895.891	19183
896.012	19381
896.134	19293
896.255	19126
896.376	19240
896.498	19217
896.619	19225
896.74	19179
896.861	19213
896.982	19457
897.103	19571
897.224	19495
897.345	19487
897.466	19236
897.587	19438
897.708	19533
897.828	19525
897.949	19343
898.07	19301
898.19	19304
898.311	19445
898.431	19145
898.552	19472
898.672	19464
898.792	19438
898.913	19407
899.033	19327
899.153	19217
899.273	19118
899.393	19183
899.513	19194
899.633	19179
899.753	19168
899.873	19168
899.993	19297
900.113	19110
900.232	19084
900.352	19190
900.472	18939
900.591	18886
900.711	18958
900.83	18954
900.95	19076
901.069	19023
901.189	18863
901.308	18604
901.427	18521
901.546	18650
901.665	18528
901.784	18650
901.904	18410
902.023	18418
902.141	18091
902.26	18121
902.379	18079
902.498	18049
902.617	18083
902.735	18178
902.854	18110
902.973	18068
903.091	17866
903.21	17802
903.328	17729
903.446	17585
903.565	17547
903.683	17619
903.801	17471
903.919	17577
904.038	17482
904.156	17368
904.274	17345
904.392	17353
904.51	17383
904.627	17322
904.745	17539
904.863	17486
904.981	17136
905.098	17018
905.216	16999
905.334	17094
905.451	16976
905.569	16965
905.686	16965
905.803	17064
905.921	16797
906.038	16923
906.155	16782
906.272	16713
906.389	16771
906.506	16706
906.623	16649
906.74	16618
906.857	16508
906.974	16550
907.091	16740
907.208	16755
907.324	16607
907.441	16493
907.557	16341
907.674	16306
907.79	16188
907.907	16234
908.023	16322
908.139	16314
908.256	16421
908.372	16215
908.488	16200
908.604	16124
908.72	16055
908.836	16082
908.952	15888
909.068	16044
909.184	16139
909.3	16078
909.415	16097
909.531	16051
909.647	15720
909.762	15781
909.878	15751
909.993	15838
910.108	15736
910.224	15644
910.339	15705
910.454	15599
910.57	15679
910.685	15553
910.8	15785
910.915	15743
911.03	15557
911.145	15473
911.259	15435
911.374	15408
911.489	15325
911.604	15332
911.718	15142
911.833	15184
911.947	15077
912.062	14887
912.176	15089
912.291	14952
912.405	15032
912.519	15302
912.633	15211
912.748	15188
912.862	15024
912.976	14921
913.09	14876
913.204	14925
913.318	14948
913.431	15077
913.545	14998
913.659	15043
913.772	14914
913.886	14750
914	14693
914.113	14804
914.226	14823
914.34	14868
914.453	14636
914.566	14739
914.68	14712
914.793	14701
914.906	14476
915.019	14400
915.132	14324
915.245	14339
915.358	14473
915.47	14362
915.583	14336
915.696	14423
915.809	14549
915.921	14575
916.034	14347
916.146	14195
916.259	14237
916.371	14320
916.483	14263
916.595	14248
916.708	14317
916.82	14164
916.932	14229
917.044	14149
917.156	14271
917.268	13982
917.38	14062
917.491	14073
917.603	14062
917.715	14153
917.826	14164
917.938	14065
918.049	14016
918.161	14088
918.272	14088
918.384	14077
918.495	14050
918.606	13936
918.717	13738
918.828	13883
918.939	13852
919.05	13734
919.161	13856
919.272	13616
919.383	13628
919.494	13822
919.604	14012
919.715	13776
919.826	13704
919.936	13719
920.047	13864
920.157	13833
920.267	13947
920.378	13772
920.488	13761
920.598	14031
920.708	14081
920.818	13970
920.928	13921
921.038	14096
921.148	14035
921.258	13761
921.368	13693
921.477	13582
921.587	13556
921.697	13350
921.806	13666
921.916	13468
922.025	13282
922.134	13247
922.244	13183
922.353	13270
922.462	13046
922.571	12989
922.68	12928
922.789	12837
922.898	12867
923.007	12734
923.116	12810
923.224	12890
923.333	12878
923.442	12684
923.55	12741
923.659	12658
923.767	12795
923.876	12703
923.984	12814
924.092	12620
924.201	12719
924.309	12620
924.417	12646
924.525	12555
924.633	12639
924.741	13331
924.849	12338
924.956	12547
925.064	12292
925.172	12296
925.279	12308
925.387	12350
925.494	12357
925.602	12467
925.709	12361
925.816	12319
925.924	12323
926.031	12418
926.138	12342
926.245	12300
926.352	12201
926.459	12437
926.566	12384
926.673	12201
926.779	12144
926.886	12133
926.993	11996
927.099	11992
927.206	11866
927.312	11927
927.419	11961
927.525	11908
927.631	11927
927.737	11790
927.843	11767
927.95	11661
928.056	11707
928.162	11745
928.267	11756
928.373	12441
928.479	11889
928.585	11524
928.69	11680
928.796	11809
928.901	11657
929.007	11433
929.112	11703
929.218	11570
929.323	11486
929.428	11505
929.533	11554
929.638	11444
929.743	11467
929.848	11452
929.953	11528
930.058	11425
930.163	11071
930.267	11220
930.372	11318
930.477	11242
930.581	11341
930.685	11277
930.79	11117
930.894	11117
930.998	11098
931.103	11220
931.207	10877
931.311	10740
931.415	10554
931.519	10508
931.623	10489
