Data from test_V78500241_725.txt Node
Date: Fri Mar 25 15:14:54 CST 2022
User: usil
Spectrometer: V785-0024
Trigger mode: 0
Integration Time (sec): 4.000000E-1
Scans to average: 1
Nonlinearity correction enabled: false
Boxcar width: 0
Storing dark spectrum: false
XAxis mode: Wavelengths
Number of Pixels in Spectrum: 1024
>>>>>Begin Spectral Data<<<<<
801.071	28116
801.214	27983
801.356	27911
801.499	27755
801.641	27785
801.783	27603
801.926	27831
802.068	27629
802.211	27485
802.353	27526
802.496	27249
802.638	27260
802.78	27351
802.923	27302
803.065	27351
803.208	27294
803.35	27279
803.492	27382
803.635	27466
803.777	27462
803.919	27519
804.061	27717
804.204	27401
804.346	27386
804.488	27424
804.63	27416
804.773	27416
804.915	27583
805.057	27515
805.199	27427
805.341	27660
805.483	27679
805.626	27496
805.768	27397
805.91	27595
806.052	27652
806.194	27500
806.336	27941
806.478	27526
806.62	27606
806.762	27857
806.904	27884
807.046	28173
807.188	28177
807.33	27994
807.472	28207
807.614	27956
807.756	28051
807.898	27903
808.04	27911
808.182	27808
808.324	27949
808.465	27994
808.607	28211
808.749	28306
808.891	28379
809.033	28466
809.174	28230
809.316	28318
809.458	28276
809.6	28238
809.741	28421
809.883	28428
810.025	28668
810.166	28649
810.308	28550
810.45	28523
810.591	28466
810.733	28485
810.875	28173
811.016	28242
811.158	28162
811.299	28310
811.441	28504
811.582	28394
811.724	28268
811.865	28246
812.007	28215
812.148	28265
812.29	28398
812.431	28459
812.573	28736
812.714	28828
812.855	28858
812.997	28949
813.138	29018
813.279	29124
813.421	28820
813.562	28873
813.703	28771
813.845	28573
813.986	28276
814.127	28230
814.268	28006
814.41	27991
814.551	27960
814.692	28070
814.833	27953
814.974	27930
815.115	28059
815.256	27911
815.397	27918
815.539	27991
815.68	27903
815.821	27785
815.962	27835
816.103	27694
816.244	27720
816.385	27701
816.526	27538
816.666	27359
816.807	27408
816.948	27462
817.089	27469
817.23	27291
817.371	27397
817.512	27321
817.653	27355
817.793	27336
817.934	27310
818.075	27298
818.216	27359
818.356	27302
818.497	27188
818.638	27100
818.778	27176
818.919	27074
819.06	27108
819.2	27138
819.341	27424
819.481	27268
819.622	27382
819.762	27606
819.903	27538
820.043	27439
820.184	27469
820.324	27256
820.465	27458
820.605	27515
820.746	27389
820.886	27214
821.026	27458
821.167	27268
821.307	27325
821.447	27272
821.588	27100
821.728	27055
821.868	26902
822.008	26830
822.149	26811
822.289	26735
822.429	26648
822.569	26408
822.709	26457
822.849	26298
822.99	26271
823.13	26176
823.27	26248
823.41	26069
823.55	26054
823.69	26176
823.83	26180
823.97	26149
824.11	25868
824.25	25883
824.389	25890
824.529	25864
824.669	25917
824.809	26107
824.949	26012
825.089	26001
825.228	26027
825.368	25936
825.508	25822
825.648	25803
825.787	25921
825.927	25723
826.067	25959
826.206	25784
826.346	25814
826.485	25849
826.625	25753
826.765	25879
826.904	25841
827.044	25719
827.183	25651
827.323	25506
827.462	25594
827.601	25601
827.741	25544
827.88	25441
828.02	25365
828.159	25510
828.298	25453
828.437	25601
828.577	25426
828.716	25696
828.855	25373
828.994	25346
829.134	25164
829.273	25168
829.412	25259
829.551	25076
829.69	25202
829.829	25190
829.968	25365
830.107	25346
830.246	25141
830.385	25129
830.524	25160
830.663	25137
830.802	24951
830.941	24837
831.08	24719
831.219	24939
831.357	24909
831.496	25046
831.635	24829
831.774	24878
831.913	24673
832.051	24677
832.19	24623
832.329	24616
832.467	24505
832.606	24509
832.744	24498
832.883	24509
833.022	24448
833.16	24498
833.299	24486
833.437	24559
833.576	24509
833.714	24502
833.852	24658
833.991	24604
834.129	24658
834.267	24616
834.406	24456
834.544	24715
834.682	24456
834.821	24555
834.959	24673
835.097	24505
835.235	24563
835.373	24521
835.511	24703
835.65	24365
835.788	24426
835.926	24399
836.064	24178
836.202	24205
836.34	24433
836.478	24384
836.615	24395
836.753	24357
836.891	24471
837.029	24350
837.167	24289
837.305	24254
837.443	24289
837.58	24247
837.718	24281
837.856	24247
837.993	24144
838.131	24201
838.269	23961
838.406	24076
838.544	24106
838.681	23790
838.819	23775
838.956	23687
839.094	23653
839.231	23691
839.369	23946
839.506	24038
839.643	24041
839.781	23710
839.918	23714
840.055	23760
840.193	23722
840.33	23653
840.467	23623
840.604	23573
840.742	23946
840.879	23402
841.016	23638
841.153	23406
841.29	23615
841.427	23596
841.564	23695
841.701	23642
841.838	23657
841.975	23395
842.112	23497
842.249	23455
842.385	23334
842.522	23467
842.659	23315
842.796	23269
842.933	23414
843.069	23349
843.206	23337
843.343	23497
843.479	23242
843.616	23261
843.752	23109
843.889	23246
844.025	23299
844.162	23102
844.298	23330
844.435	23105
844.571	23033
844.708	23220
844.844	23261
844.98	23292
845.117	23204
845.253	23155
845.389	23064
845.525	23086
845.661	22965
845.798	22877
845.934	22911
846.07	22835
846.206	22866
846.342	22972
846.478	22968
846.614	22774
846.75	22493
846.886	22554
847.022	22672
847.158	22664
847.294	22645
847.429	22698
847.565	22557
847.701	22824
847.837	22333
847.972	22379
848.108	22478
848.244	22481
848.379	22287
848.515	22242
848.65	22120
848.786	22253
848.921	22356
849.057	22344
849.192	22367
849.328	22344
849.463	22306
849.598	22226
849.734	22154
849.869	22131
850.004	22093
850.14	22032
850.275	22067
850.41	21884
850.545	21960
850.68	21975
850.815	21964
850.95	21964
851.085	22135
851.22	22036
851.355	22059
851.49	21979
851.625	21911
851.76	21983
851.895	21873
852.03	21876
852.165	21949
852.299	21937
852.434	22090
852.569	22135
852.703	22010
852.838	22112
852.973	22070
853.107	22109
853.242	21918
853.376	21759
853.511	21705
853.645	21759
853.78	21934
853.914	21865
854.048	21747
854.183	21603
854.317	21930
854.451	21953
854.585	21781
854.72	21793
854.854	21686
854.988	21770
855.122	21835
855.256	21812
855.39	21797
855.524	21827
855.658	21854
855.792	21846
855.926	21728
856.06	21861
856.194	21922
856.327	21899
856.461	21599
856.595	21751
856.729	21762
856.862	22010
856.996	21827
857.13	21968
857.263	21854
857.397	21895
857.53	21823
857.664	21865
857.797	21888
857.931	22048
858.064	21762
858.197	21888
858.331	21838
858.464	21789
858.597	21610
858.731	21682
858.864	21728
858.997	21808
859.13	21827
859.263	21854
859.396	21720
859.529	21846
859.662	21838
859.795	21705
859.928	21747
860.061	22040
860.194	22059
860.327	21865
860.46	21644
860.592	21812
860.725	21949
860.858	21926
860.99	21797
861.123	21800
861.256	21728
861.388	21759
861.521	22535
861.653	21671
861.786	21690
861.918	21648
862.05	21622
862.183	21633
862.315	21819
862.447	21705
862.58	21675
862.712	21507
862.844	21420
862.976	21618
863.108	21454
863.24	21922
863.372	21378
863.504	21583
863.636	21507
863.768	21595
863.9	21519
864.032	21435
864.164	21447
864.296	21629
864.428	21641
864.559	21553
864.691	21572
864.823	21511
864.954	21473
865.086	21443
865.217	21477
865.349	21329
865.48	21374
865.612	21386
865.743	21416
865.875	21420
866.006	21412
866.137	21435
866.269	21310
866.4	21412
866.531	21230
866.662	21195
866.793	21283
866.924	21283
867.055	21386
867.186	21348
867.317	21249
867.448	21218
867.579	21233
867.71	21275
867.841	21199
867.972	21260
868.103	21386
868.233	21237
868.364	21287
868.495	21359
868.625	21572
868.756	21648
868.886	21420
869.017	21568
869.147	21743
869.278	21679
869.408	21652
869.539	21583
869.669	21534
869.799	21545
869.929	21591
870.06	21705
870.19	21911
870.32	21915
870.45	21785
870.58	21945
870.71	21979
870.84	22017
870.97	21903
871.1	21953
871.23	21994
871.36	22044
871.489	22105
871.619	22101
871.749	22181
871.879	22154
872.008	22303
872.138	22150
872.267	21998
872.397	21998
872.526	21892
872.656	22017
872.785	21945
872.915	22131
873.044	22162
873.173	22124
873.303	22196
873.432	22238
873.561	22325
873.69	22109
873.819	22192
873.948	22257
874.077	22268
874.206	22128
874.335	22131
874.464	22139
874.593	22394
874.722	22390
874.851	22455
874.979	22405
875.108	22386
875.237	22314
875.365	22322
875.494	22207
875.623	22557
875.751	22394
875.88	22276
876.008	22470
876.136	22516
876.265	22691
876.393	22908
876.521	22790
876.65	22820
876.778	22824
876.906	22710
877.034	22599
877.162	22733
877.29	22626
877.418	22790
877.546	22759
877.674	22759
877.802	22668
877.93	22668
878.058	22611
878.185	22542
878.313	22778
878.441	22675
878.568	22622
878.696	22679
878.824	22641
878.951	22702
879.079	22968
879.206	22919
879.333	22850
879.461	22831
879.588	22733
879.715	22866
879.842	22927
879.97	22733
880.097	22493
880.224	22474
880.351	22729
880.478	22626
880.605	22569
880.732	22447
880.859	22752
880.986	22470
881.112	22474
881.239	22424
881.366	22246
881.493	22166
881.619	22124
881.746	22124
881.872	22059
881.999	22048
882.125	22029
882.252	22093
882.378	22032
882.505	22147
882.631	21865
882.757	21816
882.883	22006
883.01	21918
883.136	21705
883.262	21663
883.388	21618
883.514	21926
883.64	21930
883.766	21648
883.892	21557
884.018	21549
884.143	21804
884.269	21854
884.395	21492
884.52	21351
884.646	21485
884.772	21355
884.897	21458
885.023	21382
885.148	21401
885.274	21462
885.399	21545
885.524	21382
885.65	21435
885.775	21386
885.9	21359
886.025	21553
886.15	21424
886.275	21291
886.4	21310
886.525	21443
886.65	21416
886.775	21344
886.9	21424
887.025	21561
887.149	21355
887.274	21275
887.399	21157
887.523	21233
887.648	21173
887.773	21192
887.897	21317
888.021	21256
888.146	21192
888.27	21264
888.395	21252
888.519	21165
888.643	21241
888.767	21256
888.891	21051
889.015	20902
889.139	21036
889.263	21005
889.387	21157
889.511	21291
889.635	21116
889.759	20883
889.883	21013
890.006	20933
890.13	21150
890.254	21020
890.377	20868
890.501	20689
890.624	20773
890.748	20765
890.871	20571
890.995	20541
891.118	20514
891.241	20412
891.364	20412
891.488	20640
891.611	20674
891.734	20518
891.857	20636
891.98	20526
892.103	20636
892.226	20564
892.349	20499
892.471	20347
892.594	20492
892.717	20507
892.839	20552
892.962	20522
893.085	20514
893.207	20324
893.33	20423
893.452	20275
893.575	20465
893.697	20507
893.819	20545
893.941	20667
894.064	20621
894.186	20374
894.308	20385
894.43	20484
894.552	20598
894.674	20446
894.796	20313
894.918	20317
895.04	20305
895.161	20518
895.283	20431
895.405	20252
895.526	20408
895.648	20393
895.769	20450
895.891	20469
896.012	20552
896.134	20412
896.255	20537
896.376	20358
896.498	20313
896.619	20541
896.74	20351
896.861	20526
896.982	20735
897.103	20925
897.224	20773
897.345	20663
897.466	20602
897.587	20602
897.708	20686
897.828	20697
897.949	20609
898.07	20499
898.19	20518
898.311	20724
898.431	20545
898.552	20621
898.672	20750
898.792	20693
898.913	20689
899.033	20503
899.153	20431
899.273	20366
899.393	20412
899.513	20431
899.633	20461
899.753	20396
899.873	20362
899.993	20454
900.113	20465
900.232	20427
900.352	20351
900.472	20214
900.591	20252
900.711	20176
900.83	20111
900.95	20294
901.069	20229
901.189	20100
901.308	19852
901.427	19811
901.546	19757
901.665	19795
901.784	19712
901.904	19662
902.023	19480
902.141	19369
902.26	19312
902.379	19327
902.498	19324
902.617	19225
902.735	19293
902.854	19168
902.973	19118
903.091	19031
903.21	18890
903.328	18951
903.446	18787
903.565	18692
903.683	18753
903.801	18616
903.919	18692
904.038	18688
904.156	18502
904.274	18551
904.392	18513
904.51	18513
904.627	18475
904.745	18528
904.863	18544
904.981	18384
905.098	18213
905.216	18163
905.334	18243
905.451	18174
905.569	18133
905.686	18270
905.803	18178
905.921	17973
906.038	18038
906.155	18022
906.272	17874
906.389	17828
906.506	17684
906.623	17718
906.74	17661
906.857	17566
906.974	17547
907.091	17680
907.208	17714
907.324	17840
907.441	17611
907.557	17376
907.674	17505
907.79	17315
907.907	17311
908.023	17452
908.139	17410
908.256	17379
908.372	17414
908.488	17216
908.604	17155
908.72	16953
908.836	17071
908.952	17029
909.068	17174
909.184	17216
909.3	17124
909.415	17128
909.531	17029
909.647	16797
909.762	16847
909.878	16717
909.993	16847
910.108	16729
910.224	16782
910.339	16847
910.454	16733
910.57	16706
910.685	16569
910.8	16858
910.915	16767
911.03	16599
911.145	16512
911.259	16432
911.374	16481
911.489	16451
911.604	16314
911.718	16055
911.833	16154
911.947	16040
912.062	15907
912.176	16188
912.291	16135
912.405	16112
912.519	16287
912.633	16318
912.748	16207
912.862	16090
912.976	15960
913.09	15892
913.204	15960
913.318	16029
913.431	16071
913.545	15915
913.659	16116
913.772	15915
913.886	15819
914	15755
914.113	15842
914.226	15869
914.34	15808
914.453	15675
914.566	15785
914.68	15641
914.793	15641
914.906	15416
915.019	15477
915.132	15241
915.245	15378
915.358	15367
915.47	15367
915.583	15378
915.696	15488
915.809	15515
915.921	15473
916.034	15351
916.146	15268
916.259	15291
916.371	15344
916.483	15363
916.595	15226
916.708	15203
916.82	15218
916.932	15241
917.044	15150
917.156	15131
917.268	15017
917.38	15043
917.491	15051
917.603	15039
917.715	15024
917.826	15112
917.938	15017
918.049	14921
918.161	15074
918.272	15142
918.384	15081
918.495	14921
918.606	14819
918.717	14765
918.828	14777
918.939	14804
919.05	14708
919.161	14785
919.272	14530
919.383	14632
919.494	14796
919.604	15062
919.715	14868
919.826	14625
919.936	14773
920.047	14746
920.157	14826
920.267	14944
920.378	14796
920.488	14735
920.598	14918
920.708	15104
920.818	14796
920.928	14864
921.038	15097
921.148	14971
921.258	14670
921.368	14708
921.477	14526
921.587	14434
921.697	14408
921.806	14465
921.916	14434
922.025	14199
922.134	14187
922.244	14115
922.353	14191
922.462	14012
922.571	13932
922.68	13822
922.789	13807
922.898	13723
923.007	13662
923.116	13830
923.224	13734
923.333	13677
923.442	13567
923.55	13563
923.659	13601
923.767	13727
923.876	13502
923.984	13613
924.092	13480
924.201	13537
924.309	13495
924.417	13449
924.525	13449
924.633	13445
924.741	14218
924.849	13259
924.956	13278
925.064	13202
925.172	13137
925.279	13149
925.387	13126
925.494	13141
925.602	13308
925.709	13171
925.816	13091
925.924	13110
926.031	13221
926.138	13050
926.245	13179
926.352	13027
926.459	13156
926.566	13209
926.673	13103
926.779	12882
926.886	12916
926.993	12806
927.099	12871
927.206	12696
927.312	12681
927.419	12821
927.525	12627
927.631	12745
927.737	12646
927.843	12498
927.95	12418
928.056	12551
928.162	12555
928.267	12627
928.373	13156
928.479	12696
928.585	12399
928.69	12525
928.796	12540
928.901	12403
929.007	12311
929.112	12456
929.218	12369
929.323	12296
929.428	12289
929.533	12346
929.638	12178
929.743	12247
929.848	12175
929.953	12232
930.058	12121
930.163	11901
930.267	11889
930.372	12106
930.477	11920
930.581	12205
930.685	11999
930.79	11809
930.894	11912
930.998	11741
931.103	11908
931.207	11558
931.311	11539
931.415	11379
931.519	11250
931.623	11239
