Data from test_V78500241_1078.txt Node
Date: Fri Mar 25 15:17:21 CST 2022
User: usil
Spectrometer: V785-0024
Trigger mode: 0
Integration Time (sec): 4.000000E-1
Scans to average: 1
Nonlinearity correction enabled: false
Boxcar width: 0
Storing dark spectrum: false
XAxis mode: Wavelengths
Number of Pixels in Spectrum: 1024
>>>>>Begin Spectral Data<<<<<
801.071	28166
801.214	28128
801.356	27812
801.499	27774
801.641	27622
801.783	27606
801.926	27717
802.068	27743
802.211	27576
802.353	27538
802.496	27420
802.638	27408
802.78	27340
802.923	27272
803.065	27237
803.208	27230
803.35	27272
803.492	27393
803.635	27671
803.777	27382
803.919	27545
804.061	27850
804.204	27629
804.346	27515
804.488	27568
804.63	27473
804.773	27641
804.915	27701
805.057	27717
805.199	27694
805.341	27622
805.483	27781
805.626	27641
805.768	27622
805.91	27625
806.052	27747
806.194	27644
806.336	27873
806.478	27709
806.62	27713
806.762	27892
806.904	27968
807.046	28200
807.188	28169
807.33	28207
807.472	28128
807.614	28082
807.756	28265
807.898	27987
808.04	27880
808.182	28105
808.324	27918
808.465	27991
808.607	28265
808.749	28367
808.891	28432
809.033	28500
809.174	28443
809.316	28230
809.458	28398
809.6	28253
809.741	28436
809.883	28451
810.025	28538
810.166	28725
810.308	28710
810.45	28440
810.591	28519
810.733	28390
810.875	28394
811.016	28261
811.158	28249
811.299	28462
811.441	28577
811.582	28375
811.724	28367
811.865	28352
812.007	28226
812.148	28329
812.29	28451
812.431	28645
812.573	28733
812.714	28805
812.855	28915
812.997	28915
813.138	29037
813.279	29006
813.421	29048
813.562	28885
813.703	28694
813.845	28596
813.986	28268
814.127	28265
814.268	28135
814.41	28067
814.551	28055
814.692	28150
814.833	28097
814.974	27983
815.115	28002
815.256	27778
815.397	28128
815.539	27865
815.68	27854
815.821	27888
815.962	27797
816.103	27800
816.244	27641
816.385	27667
816.526	27587
816.666	27447
816.807	27249
816.948	27488
817.089	27572
817.23	27454
817.371	27416
817.512	27393
817.653	27386
817.793	27268
817.934	27507
818.075	27370
818.216	27435
818.356	27363
818.497	27188
818.638	27131
818.778	27070
818.919	27135
819.06	27081
819.2	27211
819.341	27378
819.481	27336
819.622	27553
819.762	27720
819.903	27686
820.043	27576
820.184	27389
820.324	27515
820.465	27439
820.605	27492
820.746	27408
820.886	27462
821.026	27408
821.167	27408
821.307	27538
821.447	27443
821.588	27488
821.728	27237
821.868	27005
822.008	27001
822.149	26842
822.289	26880
822.429	26670
822.569	26556
822.709	26575
822.849	26522
822.99	26381
823.13	26423
823.27	26438
823.41	26328
823.55	26149
823.69	26199
823.83	26294
823.97	26027
824.11	26050
824.25	25959
824.389	25970
824.529	26172
824.669	26016
824.809	26240
824.949	26180
825.089	26180
825.228	26069
825.368	25970
825.508	25871
825.648	25917
825.787	25913
825.927	25868
826.067	25928
826.206	25852
826.346	25864
826.485	25856
826.625	25951
826.765	26115
826.904	26058
827.044	25772
827.183	25719
827.323	25529
827.462	25616
827.601	25757
827.741	25658
827.88	25681
828.02	25594
828.159	25533
828.298	25689
828.437	25647
828.577	25681
828.716	25772
828.855	25651
828.994	25419
829.134	25324
829.273	25491
829.412	25339
829.551	25350
829.69	25320
829.829	25491
829.968	25407
830.107	25464
830.246	25297
830.385	25274
830.524	25479
830.663	25209
830.802	25133
830.941	24928
831.08	24848
831.219	25046
831.357	25004
831.496	25148
831.635	24943
831.774	24875
831.913	24806
832.051	24817
832.19	24688
832.329	24844
832.467	24585
832.606	24578
832.744	24502
832.883	24669
833.022	24635
833.16	24661
833.299	24612
833.437	24639
833.576	24738
833.714	24700
833.852	24642
833.991	24806
834.129	24760
834.267	24726
834.406	24616
834.544	24734
834.682	24730
834.821	24741
834.959	24913
835.097	24772
835.235	24760
835.373	24623
835.511	24715
835.65	24547
835.788	24544
835.926	24433
836.064	24365
836.202	24380
836.34	24433
836.478	24665
836.615	24448
836.753	24669
836.891	24513
837.029	24513
837.167	24563
837.305	24448
837.443	24433
837.58	24338
837.718	24483
837.856	24350
837.993	24266
838.131	24441
838.269	24296
838.406	24262
838.544	24251
838.681	24087
838.819	23992
838.956	24003
839.094	23836
839.231	23980
839.369	23999
839.506	24216
839.643	24057
839.781	23969
839.918	23752
840.055	23817
840.193	23847
840.33	23771
840.467	23703
840.604	23745
840.742	23946
840.879	23699
841.016	23676
841.153	23592
841.29	23954
841.427	23726
841.564	23783
841.701	23722
841.838	23714
841.975	23687
842.112	23630
842.249	23608
842.385	23535
842.522	23589
842.659	23680
842.796	23562
842.933	23581
843.069	23490
843.206	23463
843.343	23577
843.479	23501
843.616	23520
843.752	23296
843.889	23372
844.025	23425
844.162	23322
844.298	23490
844.435	23284
844.571	23284
844.708	23246
844.844	23531
844.98	23452
845.117	23463
845.253	23151
845.389	23143
845.525	23326
845.661	23124
845.798	23029
845.934	23086
846.07	23029
846.206	23102
846.342	23102
846.478	23124
846.614	22847
846.75	22683
846.886	22767
847.022	22820
847.158	22740
847.294	22797
847.429	22816
847.565	22820
847.701	23113
847.837	22672
847.972	22436
848.108	22687
848.244	22577
848.379	22440
848.515	22512
848.65	22375
848.786	22375
848.921	22417
849.057	22523
849.192	22535
849.328	22497
849.463	22417
849.598	22295
849.734	22333
849.869	22215
850.004	22147
850.14	22166
850.275	22276
850.41	22082
850.545	22078
850.68	22272
850.815	22265
850.95	22036
851.085	22341
851.22	22226
851.355	22265
851.49	22200
851.625	22101
851.76	22032
851.895	22048
852.03	22063
852.165	22128
852.299	22185
852.434	22253
852.569	22116
852.703	22166
852.838	22192
852.973	22284
853.107	22314
853.242	22112
853.376	22093
853.511	21797
853.645	21934
853.78	22006
853.914	22082
854.048	21816
854.183	21903
854.317	22017
854.451	22181
854.585	21892
854.72	21835
854.854	22036
854.988	21774
855.122	21975
855.256	21720
855.39	21941
855.524	22055
855.658	22082
855.792	22002
855.926	21972
856.06	21945
856.194	22051
856.327	21934
856.461	21960
856.595	21781
856.729	21991
856.862	21915
856.996	21895
857.13	22040
857.263	22070
857.397	21949
857.53	21861
857.664	21884
857.797	22040
857.931	22097
858.064	22029
858.197	22013
858.331	21911
858.464	21907
858.597	21789
858.731	21884
858.864	21873
858.997	21972
859.13	22002
859.263	21937
859.396	22006
859.529	21846
859.662	21884
859.795	21888
859.928	21930
860.061	22105
860.194	22078
860.327	21922
860.46	21949
860.592	22013
860.725	22169
860.858	22021
860.99	21964
861.123	21816
861.256	21937
861.388	21808
861.521	22645
861.653	21918
861.786	21656
861.918	21717
862.05	21835
862.183	21804
862.315	21915
862.447	21903
862.58	21918
862.712	21785
862.844	21808
862.976	21759
863.108	21656
863.24	22120
863.372	21557
863.504	21606
863.636	21625
863.768	21739
863.9	21492
864.032	21580
864.164	21568
864.296	21622
864.428	21720
864.559	21599
864.691	21728
864.823	21606
864.954	21500
865.086	21743
865.217	21644
865.349	21564
865.48	21458
865.612	21572
865.743	21679
865.875	21572
866.006	21538
866.137	21587
866.269	21557
866.4	21557
866.531	21447
866.662	21393
866.793	21515
866.924	21515
867.055	21576
867.186	21530
867.317	21462
867.448	21351
867.579	21416
867.71	21294
867.841	21412
867.972	21477
868.103	21378
868.233	21473
868.364	21439
868.495	21545
868.625	21595
868.756	21838
868.886	21580
869.017	21732
869.147	21831
869.278	21903
869.408	21641
869.539	21759
869.669	21873
869.799	21751
869.929	21903
870.06	21850
870.19	21968
870.32	21968
870.45	22128
870.58	22078
870.71	22181
870.84	22265
870.97	22017
871.1	22154
871.23	22200
871.36	22356
871.489	22234
871.619	22249
871.749	22303
871.879	22329
872.008	22363
872.138	22272
872.267	22234
872.397	22090
872.526	22097
872.656	22185
872.785	22093
872.915	22348
873.044	22424
873.173	22432
873.303	22348
873.432	22230
873.561	22428
873.69	22299
873.819	22268
873.948	22299
874.077	22428
874.206	22314
874.335	22284
874.464	22512
874.593	22535
874.722	22344
874.851	22634
874.979	22698
875.108	22615
875.237	22451
875.365	22382
875.494	22649
875.623	22713
875.751	22561
875.88	22573
876.008	22691
876.136	22672
876.265	22820
876.393	23075
876.521	22942
876.65	23003
876.778	22889
876.906	22854
877.034	22839
877.162	22866
877.29	22767
877.418	22911
877.546	22862
877.674	22877
877.802	22889
877.93	22999
878.058	22923
878.185	22656
878.313	22843
878.441	22843
878.568	22653
878.696	22771
878.824	22892
878.951	22923
879.079	23079
879.206	23189
879.333	23071
879.461	22911
879.588	22908
879.715	22934
879.842	23014
879.97	23025
880.097	22683
880.224	22519
880.351	22786
880.478	22641
880.605	22660
880.732	22660
880.859	22946
880.986	22588
881.112	22675
881.239	22542
881.366	22462
881.493	22303
881.619	22272
881.746	22291
881.872	22409
881.999	22147
882.125	22112
882.252	22295
882.378	22295
882.505	22341
882.631	22040
882.757	22120
882.883	22128
883.01	21960
883.136	21926
883.262	21789
883.388	21797
883.514	22029
883.64	21956
883.766	21857
883.892	21812
884.018	21701
884.143	21922
884.269	22032
884.395	21644
884.52	21667
884.646	21549
884.772	21439
884.897	21538
885.023	21458
885.148	21785
885.274	21759
885.399	21762
885.524	21538
885.65	21519
885.775	21580
885.9	21553
886.025	21686
886.15	21618
886.275	21519
886.4	21557
886.525	21439
886.65	21488
886.775	21542
886.9	21781
887.025	21755
887.149	21523
887.274	21466
887.399	21424
887.523	21382
887.648	21211
887.773	21260
887.897	21424
888.021	21393
888.146	21294
888.27	21321
888.395	21313
888.519	21287
888.643	21420
888.767	21363
888.891	21306
889.015	21199
889.139	21226
889.263	21123
889.387	21180
889.511	21332
889.635	21291
889.759	21009
889.883	21192
890.006	21157
890.13	21211
890.254	21127
890.377	21146
890.501	20982
890.624	20811
890.748	20925
890.871	20735
890.995	20849
891.118	20727
891.241	20792
891.364	20609
891.488	20845
891.611	20663
891.734	20804
891.857	20758
891.98	20727
892.103	20739
892.226	20788
892.349	20629
892.471	20556
892.594	20609
892.717	20602
892.839	20625
892.962	20625
893.085	20705
893.207	20571
893.33	20499
893.452	20461
893.575	20594
893.697	20530
893.819	20667
893.941	20678
894.064	20613
894.186	20552
894.308	20389
894.43	20606
894.552	20819
894.674	20807
894.796	20495
894.918	20632
895.04	20571
895.161	20682
895.283	20724
895.405	20492
895.526	20571
895.648	20514
895.769	20621
895.891	20518
896.012	20750
896.134	20568
896.255	20560
896.376	20545
896.498	20583
896.619	20617
896.74	20556
896.861	20682
896.982	20971
897.103	20963
897.224	20910
897.345	20716
897.466	20727
897.587	20785
897.708	20864
897.828	20941
897.949	20712
898.07	20617
898.19	20720
898.311	20792
898.431	20724
898.552	20815
898.672	20914
898.792	20796
898.913	20720
899.033	20651
899.153	20533
899.273	20423
899.393	20507
899.513	20602
899.633	20465
899.753	20469
899.873	20568
899.993	20503
900.113	20579
900.232	20499
900.352	20408
900.472	20317
900.591	20248
900.711	20381
900.83	20164
900.95	20355
901.069	20404
901.189	20195
901.308	19871
901.427	19818
901.546	19849
901.665	19902
901.784	19814
901.904	19776
902.023	19594
902.141	19327
902.26	19354
902.379	19495
902.498	19362
902.617	19358
902.735	19396
902.854	19407
902.973	19304
903.091	18977
903.21	19160
903.328	18989
903.446	18806
903.565	18829
903.683	18749
903.801	18817
903.919	18719
904.038	18757
904.156	18593
904.274	18734
904.392	18563
904.51	18601
904.627	18570
904.745	18642
904.863	18700
904.981	18498
905.098	18330
905.216	18285
905.334	18239
905.451	18197
905.569	18270
905.686	18243
905.803	18205
905.921	18087
906.038	18167
906.155	18125
906.272	17874
906.389	18003
906.506	17874
906.623	17969
906.74	17878
906.857	17630
906.974	17729
907.091	17817
907.208	17961
907.324	17840
907.441	17638
907.557	17661
907.674	17638
907.79	17547
907.907	17592
908.023	17554
908.139	17471
908.256	17528
908.372	17463
908.488	17452
908.604	17265
908.72	17299
908.836	17322
908.952	17284
909.068	17246
909.184	17444
909.3	17227
909.415	17288
909.531	17258
909.647	17010
909.762	17132
909.878	16980
909.993	16995
910.108	16953
910.224	17022
910.339	16965
910.454	16847
910.57	16854
910.685	16733
910.8	17010
910.915	16946
911.03	16824
911.145	16702
911.259	16508
911.374	16516
911.489	16493
911.604	16596
911.718	16322
911.833	16386
911.947	16204
912.062	16166
912.176	16238
912.291	16352
912.405	16219
912.519	16538
912.633	16382
912.748	16398
912.862	16367
912.976	16200
913.09	16055
913.204	16025
913.318	16128
913.431	16226
913.545	16101
913.659	16272
913.772	16090
913.886	15983
914	15876
914.113	16006
914.226	16063
914.34	16029
914.453	15751
914.566	15888
914.68	15827
914.793	15709
914.906	15751
915.019	15568
915.132	15511
915.245	15424
915.358	15519
915.47	15557
915.583	15507
915.696	15526
915.809	15648
915.921	15690
916.034	15496
916.146	15439
916.259	15408
916.371	15515
916.483	15447
916.595	15370
916.708	15321
916.82	15321
916.932	15260
917.044	15382
917.156	15275
917.268	15089
917.38	15241
917.491	15074
917.603	15188
917.715	15275
917.826	15249
917.938	15013
918.049	15036
918.161	15081
918.272	15169
918.384	15169
918.495	15135
918.606	14902
918.717	14838
918.828	14979
918.939	14921
919.05	14758
919.161	14902
919.272	14705
919.383	14769
919.494	14914
919.604	15100
919.715	14933
919.826	14754
919.936	14811
920.047	14960
920.157	14750
920.267	15127
920.378	14895
920.488	14815
920.598	15047
920.708	15081
920.818	15005
920.928	14967
921.038	15062
921.148	15119
921.258	14735
921.368	14762
921.477	14659
921.587	14556
921.697	14404
921.806	14602
921.916	14454
922.025	14305
922.134	14233
922.244	14229
922.353	14286
922.462	14100
922.571	14058
922.68	13913
922.789	13856
922.898	13925
923.007	13772
923.116	13887
923.224	13917
923.333	13868
923.442	13738
923.55	13723
923.659	13746
923.767	13738
923.876	13601
923.984	13795
924.092	13658
924.201	13643
924.309	13563
924.417	13559
924.525	13655
924.633	13468
924.741	14427
924.849	13266
924.956	13343
925.064	13270
925.172	13285
925.279	13255
925.387	13392
925.494	13304
925.602	13396
925.709	13350
925.816	13175
925.924	13137
926.031	13289
926.138	13175
926.245	13217
926.352	13053
926.459	13247
926.566	13247
926.673	13110
926.779	13015
926.886	13004
926.993	12863
927.099	12852
927.206	12749
927.312	12840
927.419	12863
927.525	12768
927.631	12875
927.737	12730
927.843	12703
927.95	12547
928.056	12585
928.162	12578
928.267	12604
928.373	13255
928.479	12692
928.585	12574
928.69	12475
928.796	12517
928.901	12506
929.007	12311
929.112	12483
929.218	12418
929.323	12445
929.428	12289
929.533	12414
929.638	12338
929.743	12247
929.848	12334
929.953	12357
930.058	12239
930.163	11984
930.267	12057
930.372	12186
930.477	11977
930.581	12243
930.685	12034
930.79	11958
930.894	11931
930.998	11866
931.103	12015
931.207	11726
931.311	11657
931.415	11543
931.519	11337
931.623	11292
