Data from test_V78500241_441.txt Node
Date: Fri Mar 25 15:12:55 CST 2022
User: usil
Spectrometer: V785-0024
Trigger mode: 0
Integration Time (sec): 4.000000E-1
Scans to average: 1
Nonlinearity correction enabled: false
Boxcar width: 0
Storing dark spectrum: false
XAxis mode: Wavelengths
Number of Pixels in Spectrum: 1024
>>>>>Begin Spectral Data<<<<<
801.071	27020
801.214	27017
801.356	26899
801.499	26720
801.641	26686
801.783	26629
801.926	26823
802.068	26537
802.211	26412
802.353	26492
802.496	26278
802.638	26309
802.78	26301
802.923	26168
803.065	26195
803.208	26229
803.35	26161
803.492	26336
803.635	26415
803.777	26286
803.919	26469
804.061	26727
804.204	26362
804.346	26313
804.488	26328
804.63	26473
804.773	26214
804.915	26309
805.057	26522
805.199	26389
805.341	26453
805.483	26434
805.626	26423
805.768	26286
805.91	26412
806.052	26514
806.194	26484
806.336	26583
806.478	26434
806.62	26518
806.762	26708
806.904	26720
807.046	27051
807.188	26925
807.33	26990
807.472	27024
807.614	26792
807.756	26853
807.898	26708
808.04	26689
808.182	26682
808.324	26773
808.465	26758
808.607	26731
808.749	27066
808.891	27142
809.033	27195
809.174	27127
809.316	27135
809.458	27085
809.6	27043
809.741	27165
809.883	27142
810.025	27283
810.166	27397
810.308	27389
810.45	27294
810.591	27302
810.733	27112
810.875	27020
811.016	26914
811.158	26910
811.299	27104
811.441	27100
811.582	27188
811.724	27077
811.865	26906
812.007	26937
812.148	27024
812.29	27096
812.431	27146
812.573	27401
812.714	27473
812.855	27622
812.997	27690
813.138	27812
813.279	27675
813.421	27534
813.562	27431
813.703	27458
813.845	27203
813.986	26918
814.127	26910
814.268	26765
814.41	26746
814.551	26613
814.692	26800
814.833	26712
814.974	26739
815.115	26743
815.256	26606
815.397	26716
815.539	26625
815.68	26575
815.821	26495
815.962	26518
816.103	26541
816.244	26393
816.385	26332
816.526	26317
816.666	26153
816.807	26024
816.948	26134
817.089	26024
817.23	26031
817.371	26062
817.512	26024
817.653	25871
817.793	25776
817.934	26046
818.075	25947
818.216	25932
818.356	26046
818.497	25837
818.638	25635
818.778	25628
818.919	25772
819.06	25833
819.2	25830
819.341	25921
819.481	25978
819.622	26111
819.762	26183
819.903	26294
820.043	26259
820.184	26145
820.324	26115
820.465	26145
820.605	26088
820.746	26138
820.886	25978
821.026	25955
821.167	25947
821.307	26313
821.447	26031
821.588	25940
821.728	25738
821.868	25761
822.008	25483
822.149	25472
822.289	25430
822.429	25213
822.569	25206
822.709	25236
822.849	25050
822.99	24996
823.13	25046
823.27	24806
823.41	24833
823.55	24593
823.69	24806
823.83	24730
823.97	24639
824.11	24551
824.25	24407
824.389	24521
824.529	24650
824.669	24612
824.809	24734
824.949	24627
825.089	24616
825.228	24502
825.368	24327
825.508	24426
825.648	24582
825.787	24464
825.927	24525
826.067	24407
826.206	24426
826.346	24620
826.485	24574
826.625	24433
826.765	24460
826.904	24426
827.044	24216
827.183	24197
827.323	24117
827.462	24190
827.601	24133
827.741	24117
827.88	24140
828.02	23977
828.159	24076
828.298	24106
828.437	24213
828.577	24194
828.716	24251
828.855	24007
828.994	23870
829.134	23923
829.273	23897
829.412	23874
829.551	23802
829.69	23893
829.829	23882
829.968	23874
830.107	23984
830.246	23885
830.385	23847
830.524	23756
830.663	23756
830.802	23611
830.941	23551
831.08	23570
831.219	23627
831.357	23653
831.496	23790
831.635	23463
831.774	23315
831.913	23429
832.051	23193
832.19	23197
832.329	23341
832.467	23269
832.606	23159
832.744	23121
832.883	23166
833.022	23292
833.16	23143
833.299	23250
833.437	23318
833.576	23265
833.714	23208
833.852	23360
833.991	23311
834.129	23376
834.267	23341
834.406	23200
834.544	23273
834.682	23254
834.821	23105
834.959	23292
835.097	23208
835.235	23220
835.373	23200
835.511	23246
835.65	23132
835.788	23136
835.926	23162
836.064	22858
836.202	22991
836.34	23189
836.478	23174
836.615	23014
836.753	23140
836.891	23075
837.029	23151
837.167	23010
837.305	23094
837.443	23041
837.58	22942
837.718	23060
837.856	22923
837.993	22949
838.131	22949
838.269	22763
838.406	22892
838.544	22733
838.681	22634
838.819	22531
838.956	22577
839.094	22417
839.231	22443
839.369	22561
839.506	22885
839.643	22672
839.781	22481
839.918	22424
840.055	22356
840.193	22398
840.33	22413
840.467	22367
840.604	22421
840.742	22725
840.879	22150
841.016	22268
841.153	22295
841.29	22455
841.427	22356
841.564	22352
841.701	22409
841.838	22363
841.975	22284
842.112	22242
842.249	22135
842.385	22109
842.522	22325
842.659	22200
842.796	22162
842.933	22109
843.069	22150
843.206	22036
843.343	22090
843.479	22063
843.616	22154
843.752	21812
843.889	21831
844.025	22067
844.162	21915
844.298	22006
844.435	22006
844.571	21854
844.708	21934
844.844	22036
844.98	22013
845.117	22006
845.253	21827
845.389	21831
845.525	21747
845.661	21838
845.798	21781
845.934	21686
846.07	21591
846.206	21618
846.342	21747
846.478	21614
846.614	21557
846.75	21405
846.886	21359
847.022	21458
847.158	21458
847.294	21408
847.429	21355
847.565	21412
847.701	21485
847.837	21100
847.972	21085
848.108	21131
848.244	21173
848.379	20994
848.515	20979
848.65	20990
848.786	21028
848.921	20929
849.057	21104
849.192	20948
849.328	21055
849.463	20967
849.598	20944
849.734	20842
849.869	20902
850.004	20762
850.14	20686
850.275	20571
850.41	20659
850.545	20815
850.68	20640
850.815	20705
850.95	20746
851.085	21013
851.22	20876
851.355	20758
851.49	20727
851.625	20636
851.76	20731
851.895	20587
852.03	20587
852.165	20727
852.299	20735
852.434	20689
852.569	20743
852.703	20621
852.838	20800
852.973	20910
853.107	20823
853.242	20636
853.376	20560
853.511	20541
853.645	20533
853.78	20598
853.914	20545
854.048	20587
854.183	20476
854.317	20602
854.451	20701
854.585	20480
854.72	20526
854.854	20583
854.988	20492
855.122	20556
855.256	20522
855.39	20469
855.524	20598
855.658	20492
855.792	20564
855.926	20625
856.06	20598
856.194	20697
856.327	20473
856.461	20511
856.595	20469
856.729	20575
856.862	20644
856.996	20697
857.13	20640
857.263	20632
857.397	20686
857.53	20495
857.664	20575
857.797	20644
857.931	20712
858.064	20571
858.197	20693
858.331	20613
858.464	20552
858.597	20400
858.731	20609
858.864	20571
858.997	20488
859.13	20537
859.263	20564
859.396	20629
859.529	20499
859.662	20526
859.795	20587
859.928	20587
860.061	20651
860.194	20712
860.327	20541
860.46	20541
860.592	20621
860.725	20697
860.858	20644
860.99	20625
861.123	20522
861.256	20518
861.388	20541
861.521	21218
861.653	20492
861.786	20385
861.918	20290
862.05	20575
862.183	20431
862.315	20556
862.447	20644
862.58	20568
862.712	20298
862.844	20214
862.976	20313
863.108	20313
863.24	20788
863.372	20218
863.504	20377
863.636	20366
863.768	20324
863.9	20370
864.032	20202
864.164	20294
864.296	20317
864.428	20393
864.559	20351
864.691	20298
864.823	20377
864.954	20271
865.086	20142
865.217	20218
865.349	20024
865.48	20187
865.612	20111
865.743	20294
865.875	20149
866.006	20237
866.137	20126
866.269	20252
866.4	20149
866.531	20115
866.662	20081
866.793	20134
866.924	20134
867.055	20088
867.186	20088
867.317	20096
867.448	19967
867.579	20244
867.71	20062
867.841	20054
867.972	20202
868.103	20119
868.233	20058
868.364	20065
868.495	20199
868.625	20385
868.756	20446
868.886	20286
869.017	20214
869.147	20480
869.278	20499
869.408	20415
869.539	20385
869.669	20438
869.799	20499
869.929	20454
870.06	20461
870.19	20701
870.32	20724
870.45	20716
870.58	20769
870.71	20891
870.84	20921
870.97	20762
871.1	20800
871.23	20891
871.36	21001
871.489	20941
871.619	20941
871.749	20967
871.879	20986
872.008	21074
872.138	20990
872.267	20937
872.397	20800
872.526	20769
872.656	20838
872.785	20754
872.915	21009
873.044	21032
873.173	21009
873.303	20960
873.432	21066
873.561	21039
873.69	21032
873.819	21013
873.948	20941
874.077	21074
874.206	21013
874.335	21020
874.464	21180
874.593	21325
874.722	21207
874.851	21218
874.979	21287
875.108	21294
875.237	21230
875.365	21089
875.494	21169
875.623	21188
875.751	21226
875.88	21218
876.008	21359
876.136	21344
876.265	21553
876.393	21778
876.521	21671
876.65	21675
876.778	21644
876.906	21629
877.034	21606
877.162	21732
877.29	21580
877.418	21530
877.546	21686
877.674	21568
877.802	21557
877.93	21591
878.058	21542
878.185	21469
878.313	21564
878.441	21599
878.568	21523
878.696	21526
878.824	21519
878.951	21736
879.079	21739
879.206	21884
879.333	21679
879.461	21637
879.588	21572
879.715	21675
879.842	21915
879.97	21583
880.097	21500
880.224	21336
880.351	21458
880.478	21450
880.605	21515
880.732	21443
880.859	21667
880.986	21488
881.112	21252
881.239	21230
881.366	21249
881.493	21066
881.619	21032
881.746	20994
881.872	20990
881.999	20944
882.125	20880
882.252	21036
882.378	21070
882.505	21150
882.631	20910
882.757	20594
882.883	20762
883.01	20754
883.136	20750
883.262	20602
883.388	20575
883.514	20682
883.64	20663
883.766	20587
883.892	20476
884.018	20488
884.143	20514
884.269	20743
884.395	20446
884.52	20324
884.646	20434
884.772	20358
884.897	20362
885.023	20381
885.148	20438
885.274	20518
885.399	20412
885.524	20389
885.65	20495
885.775	20362
885.9	20419
886.025	20454
886.15	20438
886.275	20374
886.4	20248
886.525	20233
886.65	20328
886.775	20195
886.9	20492
887.025	20590
887.149	20298
887.274	20229
887.399	20115
887.523	20176
887.648	20149
887.773	19928
887.897	20233
888.021	20157
888.146	20058
888.27	20210
888.395	20103
888.519	20237
888.643	20153
888.767	20142
888.891	20039
889.015	19917
889.139	19944
889.263	19944
889.387	20073
889.511	20225
889.635	20084
889.759	19917
889.883	19917
890.006	19967
890.13	20122
890.254	19864
890.377	19906
890.501	19708
890.624	19712
890.748	19712
890.871	19624
890.995	19518
891.118	19449
891.241	19540
891.364	19567
891.488	19582
891.611	19510
891.734	19472
891.857	19647
891.98	19674
892.103	19616
892.226	19582
892.349	19525
892.471	19407
892.594	19373
892.717	19540
892.839	19320
892.962	19422
893.085	19426
893.207	19426
893.33	19293
893.452	19434
893.575	19426
893.697	19506
893.819	19457
893.941	19616
894.064	19632
894.186	19453
894.308	19441
894.43	19441
894.552	19578
894.674	19453
894.796	19324
894.918	19460
895.04	19384
895.161	19487
895.283	19415
895.405	19457
895.526	19369
895.648	19388
895.769	19575
895.891	19594
896.012	19605
896.134	19510
896.255	19506
896.376	19453
896.498	19362
896.619	19575
896.74	19434
896.861	19476
896.982	19814
897.103	19898
897.224	19738
897.345	19643
897.466	19693
897.587	19674
897.708	19868
897.828	19647
897.949	19685
898.07	19540
898.19	19628
898.311	19753
898.431	19643
898.552	19590
898.672	19662
898.792	19704
898.913	19750
899.033	19495
899.153	19559
899.273	19407
899.393	19392
899.513	19571
899.633	19434
899.753	19426
899.873	19320
899.993	19464
900.113	19434
900.232	19441
900.352	19392
900.472	19244
900.591	19175
900.711	19187
900.83	19236
900.95	19369
901.069	19327
901.189	19046
901.308	18871
901.427	18837
901.546	18821
901.665	18867
901.784	18878
901.904	18772
902.023	18559
902.141	18353
902.26	18281
902.379	18498
902.498	18346
902.617	18353
902.735	18407
902.854	18315
902.973	18201
903.091	18026
903.21	18091
903.328	17939
903.446	17874
903.565	17809
903.683	17809
903.801	17661
903.919	17824
904.038	17779
904.156	17619
904.274	17729
904.392	17581
904.51	17646
904.627	17478
904.745	17600
904.863	17646
904.981	17383
905.098	17307
905.216	17242
905.334	17318
905.451	17280
905.569	17181
905.686	17337
905.803	17254
905.921	17105
906.038	17250
906.155	17155
906.272	16927
906.389	17045
906.506	16847
906.623	16900
906.74	16869
906.857	16679
906.974	16782
907.091	16835
907.208	16953
907.324	16862
907.441	16748
907.557	16580
907.674	16573
907.79	16519
907.907	16523
908.023	16577
908.139	16565
908.256	16432
908.372	16527
908.488	16421
908.604	16333
908.72	16306
908.836	16352
908.952	16268
909.068	16265
909.184	16417
909.3	16284
909.415	16329
909.531	16268
909.647	16071
909.762	16071
909.878	15922
909.993	15991
910.108	16010
910.224	15949
910.339	15892
910.454	15911
910.57	15823
910.685	15701
910.8	15983
910.915	15884
911.03	15850
911.145	15587
911.259	15679
911.374	15580
911.489	15553
911.604	15447
911.718	15397
911.833	15344
911.947	15192
912.062	15173
912.176	15317
912.291	15359
912.405	15287
912.519	15561
912.633	15500
912.748	15321
912.862	15264
912.976	15195
913.09	15062
913.204	15165
913.318	15135
913.431	15173
913.545	15268
913.659	15294
913.772	15108
913.886	15013
914	14891
914.113	15005
914.226	15070
914.34	15005
914.453	14883
914.566	15020
914.68	14883
914.793	14807
914.906	14568
915.019	14670
915.132	14503
915.245	14568
915.358	14659
915.47	14549
915.583	14571
915.696	14587
915.809	14746
915.921	14773
916.034	14640
916.146	14438
916.259	14564
916.371	14606
916.483	14541
916.595	14404
916.708	14404
916.82	14381
916.932	14324
917.044	14332
917.156	14355
917.268	14309
917.38	14328
917.491	14199
917.603	14191
917.715	14317
917.826	14358
917.938	14328
918.049	14153
918.161	14267
918.272	14385
918.384	14278
918.495	14202
918.606	14005
918.717	13925
918.828	14008
918.939	14054
919.05	13936
919.161	14016
919.272	13780
919.383	13917
919.494	14100
919.604	14233
919.715	14103
919.826	13913
919.936	13887
920.047	14123
920.157	14008
920.267	14195
920.378	14043
920.488	14016
920.598	14149
920.708	14278
920.818	14161
920.928	14058
921.038	14343
921.148	14237
921.258	13841
921.368	13932
921.477	13753
921.587	13731
921.697	13674
921.806	13807
921.916	13544
922.025	13434
922.134	13304
922.244	13438
922.353	13388
922.462	13206
922.571	13255
922.68	13118
922.789	12993
922.898	13114
923.007	13000
923.116	13053
923.224	12973
923.333	12962
923.442	12958
923.55	12962
923.659	12947
923.767	12928
923.876	12867
923.984	12871
924.092	12837
924.201	12863
924.309	12852
924.417	12882
924.525	12764
924.633	12684
924.741	13734
924.849	12498
924.956	12650
925.064	12639
925.172	12407
925.279	12464
925.387	12582
925.494	12486
925.602	12631
925.709	12483
925.816	12376
925.924	12467
926.031	12445
926.138	12445
926.245	12506
926.352	12388
926.459	12471
926.566	12513
926.673	12361
926.779	12308
926.886	12205
926.993	12083
927.099	12178
927.206	12068
927.312	12053
927.419	12098
927.525	12087
927.631	12144
927.737	12015
927.843	11946
927.95	11824
928.056	11855
928.162	11908
928.267	11916
928.373	12616
928.479	11916
928.585	11737
928.69	11912
928.796	11969
928.901	11790
929.007	11619
929.112	11733
929.218	11733
929.323	11726
929.428	11661
929.533	11847
929.638	11592
929.743	11551
929.848	11627
929.953	11589
930.058	11539
930.163	11364
930.267	11353
930.372	11448
930.477	11299
930.581	11501
930.685	11410
930.79	11147
930.894	11223
930.998	11223
931.103	11322
931.207	11033
931.311	10881
931.415	10824
931.519	10649
931.623	10611
