Data from test_V78500241_1011.txt Node
Date: Fri Mar 25 15:16:53 CST 2022
User: usil
Spectrometer: V785-0024
Trigger mode: 0
Integration Time (sec): 4.000000E-1
Scans to average: 1
Nonlinearity correction enabled: false
Boxcar width: 0
Storing dark spectrum: false
XAxis mode: Wavelengths
Number of Pixels in Spectrum: 1024
>>>>>Begin Spectral Data<<<<<
801.071	28215
801.214	28280
801.356	27949
801.499	27827
801.641	27808
801.783	27884
801.926	27892
802.068	27823
802.211	27762
802.353	27561
802.496	27401
802.638	27329
802.78	27374
802.923	27374
803.065	27469
803.208	27507
803.35	27519
803.492	27583
803.635	27557
803.777	27469
803.919	27515
804.061	28002
804.204	27667
804.346	27633
804.488	27561
804.63	27629
804.773	27507
804.915	27587
805.057	27953
805.199	27732
805.341	27675
805.483	27838
805.626	27823
805.768	27762
805.91	27751
806.052	27949
806.194	27682
806.336	27998
806.478	27743
806.62	27846
806.762	28010
806.904	28017
807.046	28375
807.188	28257
807.33	28135
807.472	28139
807.614	28029
807.756	28177
807.898	28120
808.04	28090
808.182	28131
808.324	28067
808.465	28097
808.607	28417
808.749	28527
808.891	28531
809.033	28649
809.174	28577
809.316	28409
809.458	28497
809.6	28504
809.741	28656
809.883	28656
810.025	28668
810.166	28801
810.308	28858
810.45	28710
810.591	28824
810.733	28527
810.875	28516
811.016	28356
811.158	28440
811.299	28569
811.441	28630
811.582	28649
811.724	28504
811.865	28421
812.007	28459
812.148	28413
812.29	28607
812.431	28653
812.573	28888
812.714	29010
812.855	29083
812.997	29025
813.138	29296
813.279	29105
813.421	29044
813.562	28972
813.703	28896
813.845	28698
813.986	28493
814.127	28352
814.268	28265
814.41	28265
814.551	28200
814.692	28124
814.833	28299
814.974	28101
815.115	28097
815.256	28048
815.397	28143
815.539	28223
815.68	27816
815.821	28025
815.962	28006
816.103	28025
816.244	27972
816.385	27816
816.526	27823
816.666	27564
816.807	27473
816.948	27610
817.089	27690
817.23	27606
817.371	27477
817.512	27694
817.653	27648
817.793	27473
817.934	27595
818.075	27447
818.216	27603
818.356	27603
818.497	27336
818.638	27233
818.778	27230
818.919	27386
819.06	27214
819.2	27504
819.341	27576
819.481	27431
819.622	27641
819.762	27812
819.903	27797
820.043	27698
820.184	27644
820.324	27698
820.465	27595
820.605	27610
820.746	27679
820.886	27424
821.026	27576
821.167	27606
821.307	27652
821.447	27572
821.588	27587
821.728	27348
821.868	27260
822.008	27055
822.149	27074
822.289	26944
822.429	26697
822.569	26674
822.709	26682
822.849	26640
822.99	26598
823.13	26461
823.27	26552
823.41	26556
823.55	26377
823.69	26362
823.83	26381
823.97	26244
824.11	26157
824.25	26248
824.389	26237
824.529	26343
824.669	26103
824.809	26374
824.949	26351
825.089	26206
825.228	26248
825.368	25974
825.508	25959
825.648	26088
825.787	26043
825.927	26119
826.067	26077
826.206	26100
826.346	26012
826.485	25963
826.625	25986
826.765	26142
826.904	26008
827.044	25841
827.183	25795
827.323	25868
827.462	25860
827.601	25803
827.741	25719
827.88	25799
828.02	25681
828.159	25830
828.298	25776
828.437	25826
828.577	25761
828.716	25906
828.855	25704
828.994	25525
829.134	25479
829.273	25552
829.412	25476
829.551	25422
829.69	25506
829.829	25487
829.968	25396
830.107	25613
830.246	25472
830.385	25362
830.524	25369
830.663	25388
830.802	25301
830.941	25057
831.08	25122
831.219	25141
831.357	25251
831.496	25510
831.635	25160
831.774	25164
831.913	25031
832.051	24954
832.19	24863
832.329	25000
832.467	24810
832.606	24814
832.744	24837
832.883	24791
833.022	24840
833.16	24757
833.299	24897
833.437	24886
833.576	24954
833.714	24935
833.852	24909
833.991	24947
834.129	24970
834.267	24943
834.406	24897
834.544	24913
834.682	24901
834.821	24852
834.959	24989
835.097	24867
835.235	24958
835.373	24981
835.511	24894
835.65	24726
835.788	24833
835.926	24616
836.064	24582
836.202	24464
836.34	24707
836.478	24901
836.615	24730
836.753	24601
836.891	24757
837.029	24798
837.167	24532
837.305	24578
837.443	24597
837.58	24517
837.718	24570
837.856	24650
837.993	24460
838.131	24620
838.269	24528
838.406	24521
838.544	24475
838.681	24194
838.819	24201
838.956	24110
839.094	23980
839.231	24038
839.369	24167
839.506	24441
839.643	24273
839.781	24068
839.918	23992
840.055	23954
840.193	23908
840.33	23939
840.467	23980
840.604	24049
840.742	24114
840.879	23863
841.016	23843
841.153	23718
841.29	23992
841.427	23988
841.564	23999
841.701	23912
841.838	23942
841.975	23760
842.112	23836
842.249	23726
842.385	23634
842.522	23901
842.659	23779
842.796	23726
842.933	23653
843.069	23577
843.206	23707
843.343	23790
843.479	23691
843.616	23767
843.752	23543
843.889	23474
844.025	23687
844.162	23551
844.298	23539
844.435	23448
844.571	23482
844.708	23459
844.844	23627
844.98	23676
845.117	23676
845.253	23315
845.389	23368
845.525	23284
845.661	23231
845.798	23166
845.934	23242
846.07	23197
846.206	23178
846.342	23440
846.478	23136
846.614	23048
846.75	22748
846.886	22938
847.022	23041
847.158	22934
847.294	22885
847.429	22984
847.565	22930
847.701	23170
847.837	22755
847.972	22599
848.108	22660
848.244	22721
848.379	22516
848.515	22451
848.65	22440
848.786	22413
848.921	22504
849.057	22603
849.192	22687
849.328	22611
849.463	22493
849.598	22485
849.734	22352
849.869	22424
850.004	22226
850.14	22333
850.275	22284
850.41	22177
850.545	22291
850.68	22169
850.815	22394
850.95	22276
851.085	22466
851.22	22382
851.355	22325
851.49	22284
851.625	22192
851.76	22207
851.895	22272
852.03	22325
852.165	22249
852.299	22272
852.434	22318
852.569	22280
852.703	22238
852.838	22329
852.973	22561
853.107	22287
853.242	22299
853.376	22303
853.511	22021
853.645	21953
853.78	22242
853.914	22192
854.048	22093
854.183	21941
854.317	22196
854.451	22230
854.585	22109
854.72	22059
854.854	22223
854.988	22086
855.122	22048
855.256	21991
855.39	22158
855.524	22242
855.658	22158
855.792	22128
855.926	22223
856.06	22112
856.194	22143
856.327	21937
856.461	21998
856.595	21968
856.729	22158
856.862	22314
856.996	22090
857.13	22055
857.263	22280
857.397	22185
857.53	22181
857.664	22143
857.797	22147
857.931	22139
858.064	22059
858.197	22124
858.331	22032
858.464	22082
858.597	21983
858.731	22048
858.864	21998
858.997	22109
859.13	22120
859.263	22120
859.396	22166
859.529	22040
859.662	22074
859.795	22177
859.928	22044
860.061	22181
860.194	22382
860.327	22120
860.46	22154
860.592	22219
860.725	22188
860.858	22188
860.99	22078
861.123	22017
861.256	21975
861.388	22093
861.521	22786
861.653	21968
861.786	21918
861.918	21907
862.05	22021
862.183	21987
862.315	21991
862.447	21998
862.58	21979
862.712	21831
862.844	21770
862.976	21800
863.108	21838
863.24	21991
863.372	21690
863.504	21785
863.636	21770
863.768	21724
863.9	21880
864.032	21759
864.164	21614
864.296	21778
864.428	21785
864.559	21903
864.691	21724
864.823	21778
864.954	21766
865.086	21808
865.217	21713
865.349	21553
865.48	21523
865.612	21728
865.743	21736
865.875	21701
866.006	21595
866.137	21614
866.269	21766
866.4	21641
866.531	21705
866.662	21492
866.793	21648
866.924	21618
867.055	21511
867.186	21603
867.317	21485
867.448	21469
867.579	21595
867.71	21420
867.841	21530
867.972	21477
868.103	21603
868.233	21701
868.364	21561
868.495	21785
868.625	21797
868.756	21911
868.886	21762
869.017	21865
869.147	21953
869.278	21979
869.408	21797
869.539	21857
869.669	21899
869.799	21926
869.929	21934
870.06	21987
870.19	22169
870.32	22150
870.45	22177
870.58	22234
870.71	22272
870.84	22318
870.97	22154
871.1	22169
871.23	22459
871.36	22398
871.489	22306
871.619	22519
871.749	22409
871.879	22322
872.008	22504
872.138	22436
872.267	22382
872.397	22402
872.526	22318
872.656	22375
872.785	22253
872.915	22440
873.044	22523
873.173	22569
873.303	22451
873.432	22409
873.561	22626
873.69	22478
873.819	22337
873.948	22527
874.077	22485
874.206	22390
874.335	22508
874.464	22500
874.593	22725
874.722	22474
874.851	22675
874.979	22683
875.108	22759
875.237	22694
875.365	22554
875.494	22683
875.623	22706
875.751	22607
875.88	22729
876.008	22801
876.136	22885
876.265	23060
876.393	23109
876.521	23010
876.65	23052
876.778	23128
876.906	22930
877.034	22942
877.162	23041
877.29	22934
877.418	22915
877.546	22968
877.674	22900
877.802	23052
877.93	22953
878.058	23014
878.185	22866
878.313	22987
878.441	22980
878.568	22839
878.696	23022
878.824	23086
878.951	23121
879.079	23277
879.206	23288
879.333	23136
879.461	23048
879.588	23090
879.715	23178
879.842	23288
879.97	23048
880.097	22809
880.224	22771
880.351	22869
880.478	22778
880.605	22831
880.732	22763
880.859	23037
880.986	22782
881.112	22828
881.239	22675
881.366	22622
881.493	22497
881.619	22493
881.746	22398
881.872	22352
881.999	22257
882.125	22367
882.252	22516
882.378	22398
882.505	22432
882.631	22329
882.757	22154
882.883	22070
883.01	22097
883.136	21987
883.262	22013
883.388	21918
883.514	22082
883.64	22090
883.766	21918
883.892	21778
884.018	22002
884.143	22002
884.269	22124
884.395	21781
884.52	21705
884.646	21709
884.772	21720
884.897	21671
885.023	21774
885.148	21717
885.274	21850
885.399	21701
885.524	21732
885.65	21648
885.775	21751
885.9	21633
886.025	21861
886.15	21789
886.275	21587
886.4	21542
886.525	21679
886.65	21492
886.775	21633
886.9	21774
887.025	21945
887.149	21614
887.274	21462
887.399	21481
887.523	21450
887.648	21435
887.773	21306
887.897	21587
888.021	21458
888.146	21351
888.27	21538
888.395	21485
888.519	21408
888.643	21583
888.767	21393
888.891	21359
889.015	21264
889.139	21416
889.263	21344
889.387	21332
889.511	21439
889.635	21370
889.759	21241
889.883	21268
890.006	21279
890.13	21332
890.254	21096
890.377	21066
890.501	21093
890.624	21001
890.748	21005
890.871	20921
890.995	20735
891.118	20861
891.241	20876
891.364	20872
891.488	20834
891.611	20811
891.734	20921
891.857	20743
891.98	20781
892.103	20849
892.226	20872
892.349	20849
892.471	20594
892.594	20682
892.717	20804
892.839	20632
892.962	20762
893.085	20777
893.207	20659
893.33	20564
893.452	20640
893.575	20815
893.697	20712
893.819	20785
893.941	20853
894.064	20777
894.186	20640
894.308	20545
894.43	20701
894.552	20773
894.674	20651
894.796	20644
894.918	20724
895.04	20594
895.161	20762
895.283	20670
895.405	20568
895.526	20678
895.648	20701
895.769	20758
895.891	20655
896.012	20788
896.134	20644
896.255	20667
896.376	20579
896.498	20727
896.619	20773
896.74	20640
896.861	20849
896.982	21020
897.103	21005
897.224	20956
897.345	20895
897.466	20887
897.587	20948
897.708	20990
897.828	20895
897.949	20815
898.07	20606
898.19	20697
898.311	20899
898.431	20773
898.552	20815
898.672	20895
898.792	20883
898.913	20971
899.033	20708
899.153	20663
899.273	20514
899.393	20667
899.513	20682
899.633	20514
899.753	20609
899.873	20457
899.993	20617
900.113	20590
900.232	20412
900.352	20511
900.472	20305
900.591	20355
900.711	20415
900.83	20336
900.95	20469
901.069	20488
901.189	20259
901.308	20035
901.427	19906
901.546	20005
901.665	19925
901.784	20035
901.904	19856
902.023	19769
902.141	19624
902.26	19438
902.379	19594
902.498	19464
902.617	19487
902.735	19552
902.854	19396
902.973	19369
903.091	19145
903.21	19179
903.328	19046
903.446	19050
903.565	18966
903.683	18977
903.801	18715
903.919	18848
904.038	18817
904.156	18642
904.274	18825
904.392	18684
904.51	18681
904.627	18623
904.745	18741
904.863	18894
904.981	18563
905.098	18338
905.216	18365
905.334	18422
905.451	18395
905.569	18376
905.686	18365
905.803	18262
905.921	18148
906.038	18281
906.155	18197
906.272	18049
906.389	18106
906.506	17935
906.623	17878
906.74	18003
906.857	17904
906.974	17870
907.091	17980
907.208	18064
907.324	17946
907.441	17836
907.557	17615
907.674	17646
907.79	17615
907.907	17581
908.023	17767
908.139	17619
908.256	17642
908.372	17581
908.488	17577
908.604	17459
908.72	17296
908.836	17391
908.952	17383
909.068	17391
909.184	17524
909.3	17421
909.415	17341
909.531	17261
909.647	17075
909.762	17124
909.878	17052
909.993	16980
910.108	17037
910.224	17025
910.339	17045
910.454	16965
910.57	16908
910.685	16858
910.8	17048
910.915	16972
911.03	16889
911.145	16752
911.259	16679
911.374	16683
911.489	16656
911.604	16569
911.718	16432
911.833	16428
911.947	16253
912.062	16211
912.176	16322
912.291	16451
912.405	16436
912.519	16455
912.633	16538
912.748	16432
912.862	16268
912.976	16325
913.09	16044
913.204	16169
913.318	16291
913.431	16287
913.545	16242
913.659	16280
913.772	16325
913.886	16116
914	16048
914.113	16101
914.226	16173
914.34	16128
914.453	15926
914.566	16074
914.68	15861
914.793	15842
914.906	15747
915.019	15629
915.132	15542
915.245	15488
915.358	15641
915.47	15557
915.583	15580
915.696	15739
915.809	15732
915.921	15690
916.034	15580
916.146	15504
916.259	15454
916.371	15561
916.483	15492
916.595	15355
916.708	15370
916.82	15481
916.932	15329
917.044	15386
917.156	15287
917.268	15302
917.38	15252
917.491	15199
917.603	15214
917.715	15268
917.826	15325
917.938	15150
918.049	14990
918.161	15138
918.272	15367
918.384	15230
918.495	15024
918.606	14986
918.717	14895
918.828	15108
918.939	14956
919.05	14899
919.161	14891
919.272	14735
919.383	14899
919.494	15005
919.604	15176
919.715	14895
919.826	14842
919.936	14845
920.047	15028
920.157	14990
920.267	15135
920.378	14956
920.488	14960
920.598	15165
920.708	15272
920.818	15032
920.928	15070
921.038	15203
921.148	15119
921.258	14899
921.368	14731
921.477	14659
921.587	14648
921.697	14514
921.806	14644
921.916	14587
922.025	14343
922.134	14218
922.244	14225
922.353	14252
922.462	14164
922.571	14145
922.68	13974
922.789	14058
922.898	13959
923.007	13871
923.116	14039
923.224	13890
923.333	13856
923.442	13734
923.55	13799
923.659	13776
923.767	13845
923.876	13693
923.984	13765
924.092	13529
924.201	13658
924.309	13643
924.417	13670
924.525	13548
924.633	13609
924.741	14438
924.849	13438
924.956	13510
925.064	13426
925.172	13270
925.279	13339
925.387	13339
925.494	13392
925.602	13434
925.709	13335
925.816	13099
925.924	13316
926.031	13411
926.138	13304
926.245	13339
926.352	13175
926.459	13301
926.566	13392
926.673	13110
926.779	13057
926.886	13053
926.993	12943
927.099	13031
927.206	12776
927.312	12856
927.419	12916
927.525	12890
927.631	12905
927.737	12677
927.843	12738
927.95	12639
928.056	12608
928.162	12620
928.267	12700
928.373	13259
928.479	12757
928.585	12536
928.69	12658
928.796	12635
928.901	12585
929.007	12342
929.112	12490
929.218	12517
929.323	12456
929.428	12414
929.533	12494
929.638	12330
929.743	12380
929.848	12376
929.953	12380
930.058	12342
930.163	12155
930.267	12091
930.372	12201
930.477	12041
930.581	12338
930.685	12144
930.79	11999
930.894	12007
930.998	11904
931.103	11977
931.207	11729
931.311	11638
931.415	11539
931.519	11398
931.623	11307
