Data from test_V78500241_944.txt Node
Date: Fri Mar 25 15:16:25 CST 2022
User: usil
Spectrometer: V785-0024
Trigger mode: 0
Integration Time (sec): 4.000000E-1
Scans to average: 1
Nonlinearity correction enabled: false
Boxcar width: 0
Storing dark spectrum: false
XAxis mode: Wavelengths
Number of Pixels in Spectrum: 1024
>>>>>Begin Spectral Data<<<<<
801.071	27975
801.214	27888
801.356	27530
801.499	27481
801.641	27382
801.783	27355
801.926	27500
802.068	27325
802.211	27317
802.353	27378
802.496	27058
802.638	27176
802.78	27039
802.923	27100
803.065	26906
803.208	26929
803.35	27085
803.492	27169
803.635	27195
803.777	27154
803.919	27313
804.061	27622
804.204	27207
804.346	27116
804.488	27032
804.63	27283
804.773	27218
804.915	27321
805.057	27310
805.199	27233
805.341	27355
805.483	27382
805.626	27416
805.768	27279
805.91	27298
806.052	27321
806.194	27275
806.336	27625
806.478	27580
806.62	27488
806.762	27603
806.904	27682
807.046	27728
807.188	27865
807.33	27842
807.472	27968
807.614	27625
807.756	27819
807.898	27709
808.04	27705
808.182	27614
808.324	27618
808.465	27732
808.607	27812
808.749	28105
808.891	28082
809.033	28223
809.174	28074
809.316	28029
809.458	28074
809.6	28101
809.741	28204
809.883	28154
810.025	28341
810.166	28253
810.308	28394
810.45	28386
810.591	28223
810.733	27994
810.875	27884
811.016	28059
811.158	27934
811.299	28025
811.441	28093
811.582	28265
811.724	28143
811.865	28074
812.007	28055
812.148	27998
812.29	28059
812.431	28284
812.573	28401
812.714	28367
812.855	28634
812.997	28713
813.138	28687
813.279	28820
813.421	28550
813.562	28554
813.703	28455
813.845	28371
813.986	27983
814.127	27827
814.268	27739
814.41	27816
814.551	27682
814.692	27667
814.833	27762
814.974	27766
815.115	27835
815.256	27713
815.397	27720
815.539	27781
815.68	27492
815.821	27557
815.962	27599
816.103	27549
816.244	27477
816.385	27294
816.526	27310
816.666	27127
816.807	27001
816.948	27074
817.089	27135
817.23	27070
817.371	27123
817.512	26986
817.653	27096
817.793	26960
817.934	27074
818.075	27093
818.216	27043
818.356	27089
818.497	27009
818.638	26682
818.778	26724
818.919	26701
819.06	26906
819.2	26921
819.341	27017
819.481	27028
819.622	27287
819.762	27378
819.903	27272
820.043	27203
820.184	27180
820.324	27096
820.465	27275
820.605	27150
820.746	27207
820.886	26971
821.026	27081
821.167	27043
821.307	27085
821.447	26986
821.588	26921
821.728	26849
821.868	26625
822.008	26594
822.149	26457
822.289	26415
822.429	26404
822.569	26168
822.709	26305
822.849	26138
822.99	25822
823.13	26039
823.27	25986
823.41	25799
823.55	25670
823.69	25814
823.83	25833
823.97	25746
824.11	25616
824.25	25594
824.389	25651
824.529	25655
824.669	25734
824.809	25906
824.949	25746
825.089	25871
825.228	25753
825.368	25571
825.508	25510
825.648	25445
825.787	25544
825.927	25571
826.067	25460
826.206	25449
826.346	25567
826.485	25647
826.625	25537
826.765	25689
826.904	25685
827.044	25270
827.183	25396
827.323	25278
827.462	25384
827.601	25358
827.741	25228
827.88	25293
828.02	25168
828.159	25274
828.298	25251
828.437	25202
828.577	25278
828.716	25407
828.855	25301
828.994	24882
829.134	24916
829.273	25065
829.412	25069
829.551	24928
829.69	25137
829.829	25103
829.968	25042
830.107	24916
830.246	24943
830.385	25042
830.524	24894
830.663	24844
830.802	24620
830.941	24528
831.08	24547
831.219	24597
831.357	24639
831.496	24696
831.635	24540
831.774	24582
831.913	24445
832.051	24422
832.19	24388
832.329	24266
832.467	24327
832.606	24266
832.744	24152
832.883	24372
833.022	24254
833.16	24289
833.299	24216
833.437	24350
833.576	24258
833.714	24254
833.852	24426
833.991	24399
834.129	24479
834.267	24258
834.406	24361
834.544	24338
834.682	24346
834.821	24338
834.959	24437
835.097	24270
835.235	24330
835.373	24247
835.511	24346
835.65	24148
835.788	24117
835.926	24030
836.064	23958
836.202	23942
836.34	24178
836.478	24239
836.615	24152
836.753	24277
836.891	24285
837.029	24102
837.167	24106
837.305	24007
837.443	24079
837.58	23942
837.718	24057
837.856	24057
837.993	23950
838.131	24091
838.269	23882
838.406	23916
838.544	23771
838.681	23649
838.819	23535
838.956	23482
839.094	23459
839.231	23589
839.369	23661
839.506	23783
839.643	23771
839.781	23455
839.918	23543
840.055	23326
840.193	23296
840.33	23307
840.467	23490
840.604	23440
840.742	23638
840.879	23254
841.016	23216
841.153	23269
841.29	23486
841.427	23452
841.564	23444
841.701	23307
841.838	23364
841.975	23277
842.112	23277
842.249	23174
842.385	23022
842.522	23414
842.659	23136
842.796	23124
842.933	23056
843.069	23132
843.206	23090
843.343	23296
843.479	23083
843.616	23155
843.752	22797
843.889	23041
844.025	22968
844.162	22892
844.298	23006
844.435	22885
844.571	22858
844.708	23060
844.844	23037
844.98	23102
845.117	22946
845.253	22866
845.389	22729
845.525	22733
845.661	22869
845.798	22516
845.934	22691
846.07	22653
846.206	22721
846.342	22706
846.478	22512
846.614	22333
846.75	22341
846.886	22352
847.022	22428
847.158	22375
847.294	22402
847.429	22386
847.565	22390
847.701	22554
847.837	22150
847.972	22070
848.108	22215
848.244	22196
848.379	22055
848.515	22048
848.65	21922
848.786	21956
848.921	21880
849.057	22006
849.192	22044
849.328	22017
849.463	21941
849.598	21926
849.734	21865
849.869	21739
850.004	21937
850.14	21804
850.275	21736
850.41	21766
850.545	21679
850.68	21534
850.815	21762
850.95	21732
851.085	21960
851.22	21770
851.355	21789
851.49	21679
851.625	21762
851.76	21751
851.895	21679
852.03	21660
852.165	21747
852.299	21694
852.434	21751
852.569	21766
852.703	21766
852.838	21816
852.973	21838
853.107	21972
853.242	21675
853.376	21599
853.511	21435
853.645	21534
853.78	21679
853.914	21469
854.048	21553
854.183	21477
854.317	21595
854.451	21652
854.585	21603
854.72	21530
854.854	21717
854.988	21572
855.122	21603
855.256	21462
855.39	21431
855.524	21603
855.658	21717
855.792	21652
855.926	21511
856.06	21523
856.194	21595
856.327	21599
856.461	21542
856.595	21519
856.729	21526
856.862	21717
856.996	21690
857.13	21610
857.263	21675
857.397	21545
857.53	21564
857.664	21542
857.797	21652
857.931	21671
858.064	21675
858.197	21545
858.331	21428
858.464	21507
858.597	21462
858.731	21545
858.864	21515
858.997	21568
859.13	21534
859.263	21591
859.396	21530
859.529	21564
859.662	21580
859.795	21500
859.928	21583
860.061	21644
860.194	21606
860.327	21557
860.46	21538
860.592	21671
860.725	21603
860.858	21812
860.99	21564
861.123	21561
861.256	21492
861.388	21637
861.521	22188
861.653	21397
861.786	21329
861.918	21397
862.05	21359
862.183	21401
862.315	21557
862.447	21542
862.58	21492
862.712	21233
862.844	21287
862.976	21310
863.108	21252
863.24	21523
863.372	21154
863.504	21321
863.636	21237
863.768	21268
863.9	21325
864.032	21188
864.164	21321
864.296	21157
864.428	21462
864.559	21233
864.691	21302
864.823	21214
864.954	21180
865.086	21275
865.217	21249
865.349	21123
865.48	21249
865.612	21203
865.743	21317
865.875	21154
866.006	21028
866.137	21165
866.269	21077
866.4	21009
866.531	21074
866.662	21100
866.793	21085
866.924	21093
867.055	21119
867.186	21195
867.317	21146
867.448	20986
867.579	20998
867.71	20925
867.841	20998
867.972	21157
868.103	20994
868.233	21104
868.364	21058
868.495	21100
868.625	21264
868.756	21363
868.886	21298
869.017	21279
869.147	21488
869.278	21462
869.408	21268
869.539	21431
869.669	21443
869.799	21408
869.929	21538
870.06	21370
870.19	21568
870.32	21599
870.45	21690
870.58	21789
870.71	21793
870.84	21804
870.97	21694
871.1	21720
871.23	21816
871.36	21831
871.489	21895
871.619	21819
871.749	21987
871.879	21816
872.008	22002
872.138	21941
872.267	21922
872.397	21876
872.526	21804
872.656	21732
872.785	21667
872.915	21899
873.044	21975
873.173	21911
873.303	21888
873.432	21869
873.561	22040
873.69	21915
873.819	21930
873.948	21960
874.077	21953
874.206	21793
874.335	22002
874.464	22090
874.593	22158
874.722	22097
874.851	22249
874.979	22204
875.108	22265
875.237	22147
875.365	22063
875.494	22207
875.623	22287
875.751	22082
875.88	22131
876.008	22291
876.136	22348
876.265	22649
876.393	22615
876.521	22618
876.65	22618
876.778	22550
876.906	22535
877.034	22493
877.162	22573
877.29	22508
877.418	22618
877.546	22550
877.674	22466
877.802	22557
877.93	22428
878.058	22478
878.185	22481
878.313	22428
878.441	22371
878.568	22379
878.696	22356
878.824	22497
878.951	22497
879.079	22672
879.206	22733
879.333	22512
879.461	22421
879.588	22630
879.715	22573
879.842	22755
879.97	22588
880.097	22341
880.224	22314
880.351	22402
880.478	22344
880.605	22238
880.732	22325
880.859	22508
880.986	22371
881.112	22314
881.239	22265
881.366	22029
881.493	22063
881.619	21926
881.746	21850
881.872	21876
881.999	21861
882.125	21816
882.252	21873
882.378	21915
882.505	22105
882.631	21701
882.757	21637
882.883	21625
883.01	21606
883.136	21530
883.262	21500
883.388	21389
883.514	21583
883.64	21644
883.766	21515
883.892	21340
884.018	21454
884.143	21515
884.269	21549
884.395	21386
884.52	21199
884.646	21233
884.772	21268
884.897	21108
885.023	21169
885.148	21237
885.274	21329
885.399	21397
885.524	21222
885.65	21211
885.775	21420
885.9	21214
886.025	21355
886.15	21287
886.275	21135
886.4	21119
886.525	21184
886.65	21214
886.775	21207
886.9	21279
887.025	21469
887.149	21028
887.274	21013
887.399	21047
887.523	21146
887.648	20967
887.773	20857
887.897	21020
888.021	21074
888.146	20967
888.27	21032
888.395	21093
888.519	20990
888.643	21009
888.767	21047
888.891	20956
889.015	20788
889.139	20979
889.263	20826
889.387	20925
889.511	21066
889.635	20845
889.759	20769
889.883	20804
890.006	20735
890.13	20857
890.254	20727
890.377	20655
890.501	20587
890.624	20583
890.748	20606
890.871	20438
890.995	20240
891.118	20389
891.241	20385
891.364	20328
891.488	20389
891.611	20419
891.734	20408
891.857	20404
891.98	20442
892.103	20469
892.226	20358
892.349	20317
892.471	20278
892.594	20259
892.717	20389
892.839	20271
892.962	20286
893.085	20450
893.207	20259
893.33	20096
893.452	20214
893.575	20370
893.697	20237
893.819	20473
893.941	20358
894.064	20381
894.186	20218
894.308	20229
894.43	20366
894.552	20404
894.674	20332
894.796	20202
894.918	20244
895.04	20157
895.161	20385
895.283	20336
895.405	20275
895.526	20309
895.648	20263
895.769	20233
895.891	20381
896.012	20351
896.134	20218
896.255	20142
896.376	20172
896.498	20237
896.619	20221
896.74	20317
896.861	20370
896.982	20629
897.103	20640
897.224	20492
897.345	20518
897.466	20469
897.587	20389
897.708	20541
897.828	20480
897.949	20374
898.07	20332
898.19	20366
898.311	20564
898.431	20347
898.552	20438
898.672	20552
898.792	20583
898.913	20396
899.033	20339
899.153	20343
899.273	20210
899.393	20199
899.513	20221
899.633	20229
899.753	20218
899.873	20126
899.993	20263
900.113	20130
900.232	20286
900.352	20096
900.472	20134
900.591	19978
900.711	20008
900.83	19928
900.95	20077
901.069	20008
901.189	19936
901.308	19582
901.427	19415
901.546	19578
901.665	19586
901.784	19658
901.904	19430
902.023	19396
902.141	19156
902.26	19156
902.379	19251
902.498	19110
902.617	19042
902.735	19217
902.854	19065
902.973	18962
903.091	18787
903.21	18757
903.328	18783
903.446	18646
903.565	18612
903.683	18563
903.801	18460
903.919	18563
904.038	18452
904.156	18330
904.274	18323
904.392	18281
904.51	18270
904.627	18399
904.745	18296
904.863	18308
904.981	18110
905.098	18011
905.216	18038
905.334	18057
905.451	18053
905.569	17965
905.686	17996
905.803	17999
905.921	17798
906.038	17965
906.155	17805
906.272	17687
906.389	17676
906.506	17543
906.623	17604
906.74	17478
906.857	17379
906.974	17459
907.091	17638
907.208	17585
907.324	17600
907.441	17558
907.557	17277
907.674	17337
907.79	17254
907.907	17235
908.023	17273
908.139	17265
908.256	17128
908.372	17109
908.488	17113
908.604	16949
908.72	16930
908.836	16968
908.952	17022
909.068	16972
909.184	17155
909.3	16987
909.415	16976
909.531	16892
909.647	16782
909.762	16668
909.878	16645
909.993	16637
910.108	16729
910.224	16653
910.339	16618
910.454	16542
910.57	16527
910.685	16360
910.8	16641
910.915	16641
911.03	16432
911.145	16325
911.259	16291
911.374	16306
911.489	16230
911.604	16139
911.718	15994
911.833	16112
911.947	15911
912.062	15937
912.176	16032
912.291	15953
912.405	16059
912.519	16139
912.633	16192
912.748	16013
912.862	15892
912.976	15857
913.09	15633
913.204	15789
913.318	15857
913.431	15873
913.545	15903
913.659	15850
913.772	15774
913.886	15629
914	15584
914.113	15762
914.226	15762
914.34	15774
914.453	15538
914.566	15660
914.68	15507
914.793	15507
914.906	15321
915.019	15256
915.132	15233
915.245	15287
915.358	15252
915.47	15272
915.583	15291
915.696	15249
915.809	15226
915.921	15359
916.034	15184
916.146	15176
916.259	15089
916.371	15154
916.483	15184
916.595	15058
916.708	15157
916.82	15119
916.932	15036
917.044	15047
917.156	14914
917.268	14853
917.38	14960
917.491	14826
917.603	14967
917.715	14982
917.826	15028
917.938	14819
918.049	14834
918.161	14826
918.272	14982
918.384	14823
918.495	14815
918.606	14587
918.717	14610
918.828	14613
918.939	14583
919.05	14617
919.161	14495
919.272	14332
919.383	14415
919.494	14667
919.604	14845
919.715	14621
919.826	14457
919.936	14556
920.047	14705
920.157	14648
920.267	14811
920.378	14552
920.488	14476
920.598	14708
920.708	14960
920.818	14629
920.928	14663
921.038	14853
921.148	14857
921.258	14495
921.368	14469
921.477	14358
921.587	14248
921.697	14267
921.806	14218
921.916	14180
922.025	13967
922.134	14050
922.244	13909
922.353	13993
922.462	13799
922.571	13837
922.68	13540
922.789	13578
922.898	13594
923.007	13529
923.116	13628
923.224	13567
923.333	13563
923.442	13544
923.55	13445
923.659	13514
923.767	13548
923.876	13369
923.984	13502
924.092	13343
924.201	13381
924.309	13362
924.417	13301
924.525	13274
924.633	13228
924.741	14301
924.849	13046
924.956	13247
925.064	13091
925.172	12951
925.279	12981
925.387	12981
925.494	13031
925.602	13225
925.709	13023
925.816	12882
925.924	12951
926.031	13000
926.138	12951
926.245	13000
926.352	12878
926.459	13080
926.566	12973
926.673	12890
926.779	12798
926.886	12787
926.993	12646
927.099	12646
927.206	12490
927.312	12517
927.419	12616
927.525	12593
927.631	12574
927.737	12502
927.843	12464
927.95	12289
928.056	12365
928.162	12445
928.267	12475
928.373	13129
928.479	12525
928.585	12155
928.69	12334
928.796	12422
928.901	12194
929.007	12171
929.112	12262
929.218	12262
929.323	12095
929.428	12197
929.533	12304
929.638	12034
929.743	12110
929.848	12186
929.953	12087
930.058	11901
930.163	11783
930.267	11809
930.372	11931
930.477	11729
930.581	11992
930.685	11836
930.79	11661
930.894	11714
930.998	11703
931.103	11798
931.207	11467
931.311	11429
931.415	11303
931.519	11056
931.623	11124
