Data from test_V78500241_1566.txt Node
Date: Fri Mar 25 15:20:45 CST 2022
User: usil
Spectrometer: V785-0024
Trigger mode: 0
Integration Time (sec): 4.000000E-1
Scans to average: 1
Nonlinearity correction enabled: false
Boxcar width: 0
Storing dark spectrum: false
XAxis mode: Wavelengths
Number of Pixels in Spectrum: 1024
>>>>>Begin Spectral Data<<<<<
801.071	27816
801.214	27907
801.356	27485
801.499	27572
801.641	27367
801.783	27249
801.926	27378
802.068	27283
802.211	27496
802.353	27321
802.496	27188
802.638	27119
802.78	26940
802.923	27157
803.065	26940
803.208	27013
803.35	27043
803.492	27188
803.635	27203
803.777	27173
803.919	27272
804.061	27389
804.204	27298
804.346	27066
804.488	27226
804.63	27245
804.773	27123
804.915	27317
805.057	27264
805.199	27203
805.341	27340
805.483	27386
805.626	27355
805.768	27424
805.91	27222
806.052	27329
806.194	27279
806.336	27564
806.478	27298
806.62	27199
806.762	27363
806.904	27583
807.046	27888
807.188	27895
807.33	27667
807.472	27880
807.614	27663
807.756	27804
807.898	27663
808.04	27523
808.182	27606
808.324	27568
808.465	27793
808.607	27831
808.749	27884
808.891	28032
809.033	28185
809.174	28044
809.316	27903
809.458	28055
809.6	27953
809.741	28169
809.883	28196
810.025	28295
810.166	28280
810.308	28325
810.45	28246
810.591	28192
810.733	28135
810.875	28097
811.016	27838
811.158	27857
811.299	28036
811.441	28154
811.582	28120
811.724	27975
811.865	27857
812.007	28002
812.148	28032
812.29	28055
812.431	28162
812.573	28284
812.714	28421
812.855	28542
812.997	28634
813.138	28812
813.279	28675
813.421	28550
813.562	28588
813.703	28314
813.845	28219
813.986	27918
814.127	27751
814.268	27606
814.41	27895
814.551	27641
814.692	27785
814.833	27663
814.974	27679
815.115	27823
815.256	27667
815.397	27526
815.539	27625
815.68	27462
815.821	27386
815.962	27545
816.103	27519
816.244	27386
816.385	27367
816.526	27176
816.666	27036
816.807	26994
816.948	27051
817.089	27127
817.23	26971
817.371	26979
817.512	27032
817.653	26986
817.793	26861
817.934	26967
818.075	27020
818.216	26906
818.356	26902
818.497	26960
818.638	26689
818.778	26644
818.919	26792
819.06	26823
819.2	26891
819.341	26933
819.481	26986
819.622	27154
819.762	27405
819.903	27329
820.043	27207
820.184	27138
820.324	27100
820.465	27256
820.605	27135
820.746	27161
820.886	27005
821.026	27032
821.167	27116
821.307	27081
821.447	26982
821.588	26830
821.728	26838
821.868	26602
822.008	26465
822.149	26427
822.289	26415
822.429	26225
822.569	26119
822.709	26122
822.849	26039
822.99	26027
823.13	25966
823.27	25898
823.41	25822
823.55	25643
823.69	25799
823.83	25799
823.97	25750
824.11	25556
824.25	25582
824.389	25658
824.529	25666
824.669	25658
824.809	25708
824.949	25704
825.089	25712
825.228	25658
825.368	25499
825.508	25396
825.648	25510
825.787	25578
825.927	25464
826.067	25445
826.206	25396
826.346	25487
826.485	25563
826.625	25487
826.765	25556
826.904	25491
827.044	25392
827.183	25316
827.323	25019
827.462	25274
827.601	25217
827.741	25091
827.88	25240
828.02	25012
828.159	25187
828.298	25107
828.437	25255
828.577	25095
828.716	25244
828.855	25110
828.994	24749
829.134	24992
829.273	24890
829.412	24798
829.551	24882
829.69	24882
829.829	24859
829.968	25042
830.107	24943
830.246	24951
830.385	24764
830.524	24817
830.663	24658
830.802	24669
830.941	24551
831.08	24452
831.219	24540
831.357	24601
831.496	24787
831.635	24475
831.774	24346
831.913	24369
832.051	24281
832.19	24285
832.329	24308
832.467	24213
832.606	24102
832.744	24102
832.883	24095
833.022	24053
833.16	24277
833.299	24300
833.437	24315
833.576	24277
833.714	24144
833.852	24338
833.991	24380
834.129	24353
834.267	24319
834.406	24262
834.544	24232
834.682	24235
834.821	24155
834.959	24281
835.097	24152
835.235	24197
835.373	24232
835.511	24098
835.65	24057
835.788	24030
835.926	24007
836.064	23859
836.202	23885
836.34	23965
836.478	24133
836.615	23942
836.753	24098
836.891	24072
837.029	23946
837.167	24015
837.305	23927
837.443	23859
837.58	23878
837.718	23980
837.856	23954
837.993	23824
838.131	23882
838.269	23764
838.406	23813
838.544	23642
838.681	23547
838.819	23547
838.956	23288
839.094	23425
839.231	23296
839.369	23619
839.506	23733
839.643	23722
839.781	23414
839.918	23277
840.055	23360
840.193	23360
840.33	23269
840.467	23296
840.604	23292
840.742	23387
840.879	23117
841.016	23227
841.153	23223
841.29	23490
841.427	23315
841.564	23292
841.701	23280
841.838	23147
841.975	23223
842.112	23075
842.249	23067
842.385	23006
842.522	23121
842.659	22980
842.796	22980
842.933	22908
843.069	23022
843.206	22976
843.343	22927
843.479	23018
843.616	22965
843.752	22801
843.889	22892
844.025	22850
844.162	22831
844.298	22843
844.435	22698
844.571	22778
844.708	22767
844.844	22892
844.98	23041
845.117	22873
845.253	22820
845.389	22740
845.525	22672
845.661	22645
845.798	22565
845.934	22557
846.07	22542
846.206	22561
846.342	22577
846.478	22508
846.614	22394
846.75	22287
846.886	22211
847.022	22424
847.158	22196
847.294	22287
847.429	22268
847.565	22226
847.701	22516
847.837	22029
847.972	21899
848.108	22181
848.244	22200
848.379	21972
848.515	21808
848.65	21934
848.786	21804
848.921	21694
849.057	21861
849.192	21884
849.328	21865
849.463	21846
849.598	21732
849.734	21728
849.869	21732
850.004	21511
850.14	21572
850.275	21583
850.41	21526
850.545	21466
850.68	21591
850.815	21660
850.95	21667
851.085	21793
851.22	21720
851.355	21648
851.49	21633
851.625	21458
851.76	21572
851.895	21618
852.03	21519
852.165	21595
852.299	21580
852.434	21717
852.569	21614
852.703	21610
852.838	21534
852.973	21652
853.107	21720
853.242	21538
853.376	21363
853.511	21302
853.645	21298
853.78	21587
853.914	21447
854.048	21488
854.183	21462
854.317	21378
854.451	21739
854.585	21363
854.72	21530
854.854	21519
854.988	21397
855.122	21435
855.256	21389
855.39	21317
855.524	21500
855.658	21462
855.792	21439
855.926	21431
856.06	21469
856.194	21496
856.327	21416
856.461	21245
856.595	21275
856.729	21355
856.862	21561
856.996	21450
857.13	21500
857.263	21606
857.397	21610
857.53	21542
857.664	21355
857.797	21431
857.931	21447
858.064	21382
858.197	21504
858.331	21496
858.464	21374
858.597	21306
858.731	21378
858.864	21355
858.997	21431
859.13	21332
859.263	21526
859.396	21481
859.529	21412
859.662	21431
859.795	21298
859.928	21450
860.061	21618
860.194	21561
860.327	21504
860.46	21477
860.592	21625
860.725	21690
860.858	21576
860.99	21386
861.123	21344
861.256	21454
861.388	21359
861.521	22196
861.653	21378
861.786	21249
861.918	21298
862.05	21230
862.183	21306
862.315	21401
862.447	21439
862.58	21222
862.712	21116
862.844	21074
862.976	21222
863.108	21237
863.24	21469
863.372	21036
863.504	21176
863.636	21104
863.768	21176
863.9	21203
864.032	21100
864.164	21062
864.296	21116
864.428	21211
864.559	21173
864.691	21260
864.823	21150
864.954	21195
865.086	21081
865.217	21028
865.349	20910
865.48	21127
865.612	21081
865.743	21142
865.875	21104
866.006	21009
866.137	21039
866.269	21074
866.4	20967
866.531	20990
866.662	20914
866.793	20887
866.924	20967
867.055	20906
867.186	20918
867.317	20990
867.448	20952
867.579	20998
867.71	20883
867.841	20815
867.972	20967
868.103	20944
868.233	20899
868.364	21001
868.495	21066
868.625	21146
868.756	21321
868.886	21188
869.017	21192
869.147	21279
869.278	21283
869.408	21249
869.539	21165
869.669	21302
869.799	21226
869.929	21317
870.06	21291
870.19	21633
870.32	21500
870.45	21481
870.58	21641
870.71	21663
870.84	21633
870.97	21694
871.1	21610
871.23	21861
871.36	21816
871.489	21663
871.619	21762
871.749	21865
871.879	21751
872.008	21888
872.138	21846
872.267	21743
872.397	21686
872.526	21591
872.656	21564
872.785	21652
872.915	21873
873.044	21865
873.173	21812
873.303	21915
873.432	21918
873.561	22006
873.69	21975
873.819	21789
873.948	21880
874.077	21918
874.206	21804
874.335	21850
874.464	21918
874.593	22002
874.722	21960
874.851	22021
874.979	22067
875.108	22158
875.237	21975
875.365	21892
875.494	22032
875.623	22185
875.751	22063
875.88	22029
876.008	22120
876.136	22394
876.265	22489
876.393	22538
876.521	22500
876.65	22550
876.778	22592
876.906	22371
877.034	22249
877.162	22637
877.29	22348
877.418	22459
877.546	22493
877.674	22470
877.802	22497
877.93	22379
878.058	22329
878.185	22272
878.313	22398
878.441	22360
878.568	22341
878.696	22390
878.824	22523
878.951	22683
879.079	22504
879.206	22691
879.333	22599
879.461	22481
879.588	22531
879.715	22527
879.842	22653
879.97	22398
880.097	22344
880.224	22166
880.351	22337
880.478	22295
880.605	22291
880.732	22223
880.859	22462
880.986	22215
881.112	22124
881.239	22147
881.366	21975
881.493	21998
881.619	21789
881.746	21861
881.872	21793
881.999	21774
882.125	21656
882.252	21774
882.378	21736
882.505	21937
882.631	21618
882.757	21618
882.883	21572
883.01	21447
883.136	21458
883.262	21408
883.388	21302
883.514	21466
883.64	21519
883.766	21412
883.892	21302
884.018	21298
884.143	21428
884.269	21481
884.395	21287
884.52	21169
884.646	21119
884.772	21230
884.897	21043
885.023	21150
885.148	21310
885.274	21264
885.399	21214
885.524	21058
885.65	21233
885.775	21116
885.9	21188
886.025	21321
886.15	21169
886.275	21169
886.4	20986
886.525	21176
886.65	21241
886.775	21005
886.9	21237
887.025	21348
887.149	21195
887.274	20990
887.399	20929
887.523	20868
887.648	20994
887.773	20849
887.897	21051
888.021	20872
888.146	20853
888.27	20994
888.395	21001
888.519	20986
888.643	21066
888.767	20918
888.891	20823
889.015	20693
889.139	20739
889.263	20800
889.387	20731
889.511	20804
889.635	20826
889.759	20735
889.883	20750
890.006	20773
890.13	20785
890.254	20727
890.377	20613
890.501	20469
890.624	20427
890.748	20526
890.871	20431
890.995	20252
891.118	20195
891.241	20320
891.364	20157
891.488	20389
891.611	20355
891.734	20324
891.857	20408
891.98	20210
892.103	20358
892.226	20191
892.349	20138
892.471	20183
892.594	20233
892.717	20195
892.839	20180
892.962	20301
893.085	20191
893.207	20134
893.33	20142
893.452	20210
893.575	20259
893.697	20195
893.819	20328
893.941	20298
894.064	20324
894.186	20187
894.308	20088
894.43	20404
894.552	20362
894.674	20225
894.796	20092
894.918	20149
895.04	20107
895.161	20221
895.283	20164
895.405	20100
895.526	20275
895.648	20221
895.769	20115
895.891	20275
896.012	20263
896.134	20282
896.255	20126
896.376	20103
896.498	20058
896.619	20142
896.74	20183
896.861	20218
896.982	20651
897.103	20613
897.224	20587
897.345	20404
897.466	20427
897.587	20476
897.708	20514
897.828	20377
897.949	20377
898.07	20073
898.19	20168
898.311	20476
898.431	20271
898.552	20389
898.672	20431
898.792	20419
898.913	20370
899.033	20305
899.153	20191
899.273	20164
899.393	20130
899.513	20210
899.633	20039
899.753	20237
899.873	20168
899.993	20225
900.113	20134
900.232	20012
900.352	20046
900.472	19913
900.591	19928
900.711	19978
900.83	19978
900.95	20069
901.069	20054
901.189	19864
901.308	19586
901.427	19556
901.546	19476
901.665	19563
901.784	19438
901.904	19343
902.023	19316
902.141	19000
902.26	19008
902.379	19107
902.498	18993
902.617	18867
902.735	18977
902.854	18977
902.973	18821
903.091	18776
903.21	18814
903.328	18700
903.446	18623
903.565	18578
903.683	18475
903.801	18376
903.919	18384
904.038	18445
904.156	18235
904.274	18197
904.392	18224
904.51	18311
904.627	18285
904.745	18311
904.863	18388
904.981	18087
905.098	17904
905.216	17836
905.334	17950
905.451	17950
905.569	17916
905.686	18011
905.803	17828
905.921	17638
906.038	17836
906.155	17737
906.272	17764
906.389	17646
906.506	17478
906.623	17520
906.74	17516
906.857	17330
906.974	17387
907.091	17452
907.208	17615
907.324	17547
907.441	17337
907.557	17318
907.674	17166
907.79	17181
907.907	17231
908.023	17212
908.139	17197
908.256	17117
908.372	17033
908.488	17067
908.604	16930
908.72	16927
908.836	16908
908.952	16824
909.068	16915
909.184	16965
909.3	16816
909.415	16946
909.531	16881
909.647	16664
909.762	16584
909.878	16622
909.993	16584
910.108	16588
910.224	16500
910.339	16584
910.454	16466
910.57	16421
910.685	16371
910.8	16569
910.915	16558
911.03	16341
911.145	16257
911.259	16173
911.374	16131
911.489	16124
911.604	16120
911.718	15949
911.833	15907
911.947	15808
912.062	15800
912.176	15907
912.291	15838
912.405	16013
912.519	16120
912.633	16124
912.748	15972
912.862	15934
912.976	15728
913.09	15709
913.204	15728
913.318	15835
913.431	15743
913.545	15861
913.659	15797
913.772	15671
913.886	15610
914	15629
914.113	15633
914.226	15675
914.34	15595
914.453	15500
914.566	15564
914.68	15386
914.793	15355
914.906	15260
915.019	15237
915.132	15104
915.245	15127
915.358	15066
915.47	15131
915.583	15173
915.696	15081
915.809	15203
915.921	15245
916.034	15176
916.146	15142
916.259	14914
916.371	15146
916.483	15028
916.595	15001
916.708	14963
916.82	15005
916.932	14933
917.044	15043
917.156	14857
917.268	14800
917.38	14815
917.491	14800
917.603	14845
917.715	14868
917.826	14899
917.938	14781
918.049	14727
918.161	14807
918.272	14830
918.384	14857
918.495	14777
918.606	14632
918.717	14476
918.828	14590
918.939	14640
919.05	14488
919.161	14533
919.272	14366
919.383	14454
919.494	14575
919.604	14674
919.715	14583
919.826	14442
919.936	14530
920.047	14667
920.157	14499
920.267	14701
920.378	14651
920.488	14484
920.598	14689
920.708	14819
920.818	14636
920.928	14686
921.038	14845
921.148	14727
921.258	14530
921.368	14351
921.477	14221
921.587	14267
921.697	14123
921.806	14252
921.916	14142
922.025	14008
922.134	13951
922.244	13837
922.353	14069
922.462	13788
922.571	13715
922.68	13548
922.789	13586
922.898	13495
923.007	13510
923.116	13495
923.224	13540
923.333	13434
923.442	13426
923.55	13316
923.659	13441
923.767	13499
923.876	13327
923.984	13499
924.092	13206
924.201	13388
924.309	13320
924.417	13282
924.525	13194
924.633	13209
924.741	13959
924.849	13019
924.956	13129
925.064	13076
925.172	12875
925.279	12966
925.387	12973
925.494	12954
925.602	13034
925.709	12897
925.816	12852
925.924	12875
926.031	13023
926.138	12951
926.245	12901
926.352	12684
926.459	12916
926.566	12985
926.673	12848
926.779	12779
926.886	12722
926.993	12525
927.099	12540
927.206	12486
927.312	12509
927.419	12578
927.525	12540
927.631	12536
927.737	12357
927.843	12407
927.95	12251
928.056	12353
928.162	12315
928.267	12376
928.373	12973
928.479	12376
928.585	12205
928.69	12319
928.796	12338
928.901	12224
929.007	12064
929.112	12251
929.218	12144
929.323	12129
929.428	12064
929.533	12258
929.638	12011
929.743	11996
929.848	12079
929.953	12045
930.058	11980
930.163	11745
930.267	11847
930.372	11828
930.477	11745
930.581	11889
930.685	11729
930.79	11630
930.894	11779
930.998	11665
931.103	11752
931.207	11379
931.311	11315
931.415	11235
931.519	11128
931.623	11052
