Data from test_V78500241_3444.txt Node
Date: Fri Mar 25 15:33:50 CST 2022
User: usil
Spectrometer: V785-0024
Trigger mode: 0
Integration Time (sec): 4.000000E-1
Scans to average: 1
Nonlinearity correction enabled: false
Boxcar width: 0
Storing dark spectrum: false
XAxis mode: Wavelengths
Number of Pixels in Spectrum: 1024
>>>>>Begin Spectral Data<<<<<
801.071	27359
801.214	27351
801.356	27036
801.499	26998
801.641	26868
801.783	26933
801.926	26933
802.068	26769
802.211	26906
802.353	26670
802.496	26678
802.638	26526
802.78	26526
802.923	26457
803.065	26499
803.208	26393
803.35	26511
803.492	26602
803.635	26746
803.777	26503
803.919	26678
804.061	26944
804.204	26781
804.346	26541
804.488	26476
804.63	26617
804.773	26568
804.915	26636
805.057	26667
805.199	26511
805.341	26667
805.483	26979
805.626	26640
805.768	26682
805.91	26754
806.052	26819
806.194	26693
806.336	26834
806.478	26754
806.62	26746
806.762	26777
806.904	26925
807.046	27367
807.188	27207
807.33	27096
807.472	27180
807.614	27066
807.756	26925
807.898	26918
808.04	26994
808.182	27017
808.324	26887
808.465	27093
808.607	27093
808.749	27370
808.891	27462
809.033	27496
809.174	27534
809.316	27359
809.458	27367
809.6	27252
809.741	27450
809.883	27443
810.025	27660
810.166	27599
810.308	27739
810.45	27523
810.591	27458
810.733	27393
810.875	27408
811.016	27302
811.158	27279
811.299	27294
811.441	27496
811.582	27542
811.724	27321
811.865	27374
812.007	27344
812.148	27298
812.29	27329
812.431	27348
812.573	27686
812.714	27739
812.855	27667
812.997	27918
813.138	28040
813.279	27903
813.421	27804
813.562	27755
813.703	27720
813.845	27359
813.986	27211
814.127	27085
814.268	27070
814.41	27024
814.551	26929
814.692	27146
814.833	26891
814.974	26933
815.115	27017
815.256	26990
815.397	26830
815.539	26887
815.68	26811
815.821	26670
815.962	26800
816.103	26682
816.244	26632
816.385	26602
816.526	26473
816.666	26446
816.807	26199
816.948	26244
817.089	26233
817.23	26377
817.371	26240
817.512	26206
817.653	26271
817.793	26309
817.934	26320
818.075	26248
818.216	26157
818.356	26252
818.497	26153
818.638	26031
818.778	26001
818.919	25989
819.06	26221
819.2	26122
819.341	26240
819.481	26206
819.622	26374
819.762	26678
819.903	26461
820.043	26438
820.184	26415
820.324	26164
820.465	26511
820.605	26332
820.746	26305
820.886	26229
821.026	26385
821.167	26282
821.307	26286
821.447	26176
821.588	26164
821.728	26077
821.868	25833
822.008	25784
822.149	25666
822.289	25628
822.429	25415
822.569	25324
822.709	25476
822.849	25289
822.99	25194
823.13	25285
823.27	25190
823.41	25114
823.55	24977
823.69	25122
823.83	25050
823.97	24939
824.11	24856
824.25	24719
824.389	24848
824.529	24878
824.669	24783
824.809	25050
824.949	24935
825.089	24878
825.228	24852
825.368	24620
825.508	24726
825.648	24661
825.787	24741
825.927	24844
826.067	24837
826.206	24597
826.346	24658
826.485	24764
826.625	24703
826.765	24768
826.904	24772
827.044	24604
827.183	24426
827.323	24277
827.462	24551
827.601	24486
827.741	24380
827.88	24414
828.02	24330
828.159	24448
828.298	24460
828.437	24346
828.577	24456
828.716	24559
828.855	24304
828.994	24209
829.134	24247
829.273	24182
829.412	24159
829.551	23935
829.69	24159
829.829	24136
829.968	24220
830.107	24209
830.246	24194
830.385	24133
830.524	24205
830.663	23942
830.802	23874
830.941	23756
831.08	23802
831.219	23863
831.357	23737
831.496	24003
831.635	23699
831.774	23733
831.913	23634
832.051	23531
832.19	23531
832.329	23444
832.467	23452
832.606	23387
832.744	23516
832.883	23429
833.022	23379
833.16	23455
833.299	23444
833.437	23330
833.576	23463
833.714	23577
833.852	23581
833.991	23570
834.129	23623
834.267	23600
834.406	23604
834.544	23452
834.682	23474
834.821	23562
834.959	23775
835.097	23455
835.235	23531
835.373	23459
835.511	23520
835.65	23376
835.788	23421
835.926	23242
836.064	23170
836.202	23258
836.34	23410
836.478	23528
836.615	23299
836.753	23383
836.891	23509
837.029	23425
837.167	23223
837.305	23326
837.443	23345
837.58	23231
837.718	23174
837.856	23273
837.993	23204
838.131	23235
838.269	23018
838.406	23159
838.544	22965
838.681	22938
838.819	22767
838.956	22767
839.094	22797
839.231	22698
839.369	22911
839.506	23128
839.643	22972
839.781	22706
839.918	22675
840.055	22793
840.193	22721
840.33	22592
840.467	22603
840.604	22725
840.742	22839
840.879	22493
841.016	22573
841.153	22519
841.29	22675
841.427	22596
841.564	22618
841.701	22592
841.838	22588
841.975	22557
842.112	22569
842.249	22455
842.385	22409
842.522	22565
842.659	22451
842.796	22386
842.933	22470
843.069	22413
843.206	22303
843.343	22344
843.479	22413
843.616	22455
843.752	22230
843.889	22219
844.025	22215
844.162	22223
844.298	22177
844.435	22101
844.571	22188
844.708	22158
844.844	22257
844.98	22367
845.117	22257
845.253	22086
845.389	21975
845.525	22040
845.661	21975
845.798	21774
845.934	22067
846.07	21915
846.206	21972
846.342	22010
846.478	21865
846.614	21599
846.75	21587
846.886	21606
847.022	21698
847.158	21656
847.294	21663
847.429	21755
847.565	21701
847.701	21922
847.837	21412
847.972	21268
848.108	21523
848.244	21466
848.379	21245
848.515	21302
848.65	21176
848.786	21241
848.921	21306
849.057	21351
849.192	21264
849.328	21264
849.463	21218
849.598	21195
849.734	21157
849.869	21058
850.004	21036
850.14	21009
850.275	21028
850.41	20929
850.545	20998
850.68	21005
850.815	21024
850.95	20967
851.085	21131
851.22	21161
851.355	20998
851.49	20948
851.625	20933
851.76	20998
851.895	20921
852.03	20895
852.165	20876
852.299	21108
852.434	21077
852.569	21039
852.703	20960
852.838	21001
852.973	21135
853.107	21066
853.242	20944
853.376	20765
853.511	20758
853.645	20819
853.78	20925
853.914	20834
854.048	20842
854.183	20960
854.317	20804
854.451	21043
854.585	20834
854.72	20857
854.854	20826
854.988	20678
855.122	20743
855.256	20697
855.39	20750
855.524	20868
855.658	20891
855.792	20800
855.926	20792
856.06	20819
856.194	20899
856.327	20842
856.461	20720
856.595	20720
856.729	20781
856.862	20895
856.996	20773
857.13	20853
857.263	20815
857.397	21005
857.53	20826
857.664	20887
857.797	20880
857.931	20941
858.064	20864
858.197	20933
858.331	20819
858.464	20743
858.597	20655
858.731	20804
858.864	20769
858.997	20754
859.13	20777
859.263	20887
859.396	20967
859.529	20792
859.662	20765
859.795	20731
859.928	20792
860.061	20948
860.194	20994
860.327	20899
860.46	20727
860.592	20948
860.725	20990
860.858	21005
860.99	20788
861.123	20800
861.256	20765
861.388	20735
861.521	21515
861.653	20705
861.786	20560
861.918	20640
862.05	20800
862.183	20765
862.315	20796
862.447	20815
862.58	20811
862.712	20625
862.844	20434
862.976	20655
863.108	20670
863.24	21085
863.372	20556
863.504	20469
863.636	20602
863.768	20438
863.9	20537
864.032	20480
864.164	20469
864.296	20450
864.428	20678
864.559	20678
864.691	20640
864.823	20514
864.954	20484
865.086	20560
865.217	20454
865.349	20351
865.48	20492
865.612	20480
865.743	20541
865.875	20423
866.006	20446
866.137	20400
866.269	20427
866.4	20351
866.531	20400
866.662	20415
866.793	20400
866.924	20336
867.055	20328
867.186	20423
867.317	20313
867.448	20324
867.579	20259
867.71	20366
867.841	20275
867.972	20393
868.103	20412
868.233	20385
868.364	20415
868.495	20480
868.625	20629
868.756	20609
868.886	20480
869.017	20575
869.147	20762
869.278	20659
869.408	20583
869.539	20590
869.669	20788
869.799	20549
869.929	20815
870.06	20720
870.19	20944
870.32	20883
870.45	20971
870.58	20971
870.71	21032
870.84	21142
870.97	21032
871.1	21074
871.23	21214
871.36	21310
871.489	21138
871.619	21233
871.749	21294
871.879	21389
872.008	21382
872.138	21233
872.267	21112
872.397	21119
872.526	21074
872.656	21051
872.785	21154
872.915	21096
873.044	21313
873.173	21222
873.303	21397
873.432	21336
873.561	21348
873.69	21275
873.819	21367
873.948	21374
874.077	21279
874.206	21226
874.335	21199
874.464	21283
874.593	21519
874.722	21462
874.851	21492
874.979	21538
875.108	21583
875.237	21534
875.365	21294
875.494	21488
875.623	21549
875.751	21496
875.88	21576
876.008	21561
876.136	21701
876.265	21930
876.393	22025
876.521	22063
876.65	21884
876.778	21945
876.906	21895
877.034	21850
877.162	21869
877.29	21819
877.418	21884
877.546	21915
877.674	21854
877.802	21789
877.93	21835
878.058	21816
878.185	21766
878.313	21800
878.441	21819
878.568	21564
878.696	21789
878.824	21819
878.951	21895
879.079	22055
879.206	22105
879.333	22051
879.461	21842
879.588	21953
879.715	21960
879.842	22090
879.97	21838
880.097	21652
880.224	21736
880.351	21652
880.478	21804
880.605	21603
880.732	21709
880.859	21918
880.986	21648
881.112	21705
881.239	21576
881.366	21447
881.493	21321
881.619	21272
881.746	21397
881.872	21370
881.999	21348
882.125	21047
882.252	21332
882.378	21340
882.505	21363
882.631	21077
882.757	21116
882.883	21058
883.01	20876
883.136	20960
883.262	20899
883.388	20800
883.514	20998
883.64	21028
883.766	20906
883.892	20686
884.018	20769
884.143	21001
884.269	20937
884.395	20727
884.52	20621
884.646	20743
884.772	20575
884.897	20552
885.023	20609
885.148	20746
885.274	20693
885.399	20724
885.524	20613
885.65	20579
885.775	20522
885.9	20533
886.025	20659
886.15	20674
886.275	20503
886.4	20549
886.525	20632
886.65	20473
886.775	20503
886.9	20739
887.025	20754
887.149	20629
887.274	20404
887.399	20366
887.523	20301
887.648	20256
887.773	20332
887.897	20499
888.021	20377
888.146	20278
888.27	20469
888.395	20351
888.519	20362
888.643	20374
888.767	20393
888.891	20404
889.015	20229
889.139	20210
889.263	20088
889.387	20256
889.511	20480
889.635	20336
889.759	20130
889.883	20248
890.006	20282
890.13	20339
890.254	20126
890.377	19974
890.501	19913
890.624	19894
890.748	19902
890.871	19883
890.995	19871
891.118	19559
891.241	19753
891.364	19852
891.488	19875
891.611	19681
891.734	19765
891.857	19803
891.98	19651
892.103	19849
892.226	19761
892.349	19578
892.471	19578
892.594	19590
892.717	19685
892.839	19632
892.962	19597
893.085	19746
893.207	19677
893.33	19480
893.452	19453
893.575	19723
893.697	19674
893.819	19928
893.941	19837
894.064	19750
894.186	19696
894.308	19514
894.43	19807
894.552	19887
894.674	19890
894.796	19552
894.918	19605
895.04	19628
895.161	19723
895.283	19731
895.405	19544
895.526	19689
895.648	19681
895.769	19780
895.891	19677
896.012	19822
896.134	19674
896.255	19624
896.376	19548
896.498	19727
896.619	19700
896.74	19655
896.861	19696
896.982	19986
897.103	20126
897.224	19940
897.345	19818
897.466	19765
897.587	19890
897.708	19940
897.828	19955
897.949	19925
898.07	19868
898.19	19883
898.311	19963
898.431	19925
898.552	19898
898.672	19944
898.792	19917
898.913	19890
899.033	19875
899.153	19666
899.273	19632
899.393	19662
899.513	19715
899.633	19677
899.753	19742
899.873	19624
899.993	19586
900.113	19540
900.232	19548
900.352	19487
900.472	19495
900.591	19499
900.711	19381
900.83	19426
900.95	19518
901.069	19472
901.189	19335
901.308	19152
901.427	19088
901.546	19019
901.665	19107
901.784	19042
901.904	18882
902.023	18760
902.141	18627
902.26	18551
902.379	18563
902.498	18513
902.617	18456
902.735	18494
902.854	18502
902.973	18490
903.091	18254
903.21	18251
903.328	18163
903.446	18159
903.565	18053
903.683	18087
903.801	17923
903.919	17946
904.038	18060
904.156	17870
904.274	17832
904.392	17840
904.51	17783
904.627	17718
904.745	17866
904.863	17813
904.981	17554
905.098	17493
905.216	17444
905.334	17573
905.451	17528
905.569	17455
905.686	17516
905.803	17433
905.921	17216
906.038	17406
906.155	17288
906.272	17216
906.389	17147
906.506	17102
906.623	16946
906.74	17067
906.857	16812
906.974	16881
907.091	16953
907.208	17197
907.324	16968
907.441	16892
907.557	16801
907.674	16755
907.79	16634
907.907	16740
908.023	16835
908.139	16812
908.256	16748
908.372	16618
908.488	16546
908.604	16554
908.72	16390
908.836	16474
908.952	16447
909.068	16466
909.184	16485
909.3	16413
909.415	16451
909.531	16455
909.647	16078
909.762	16150
909.878	16128
909.993	16188
910.108	16040
910.224	16112
910.339	16097
910.454	16010
910.57	15968
910.685	15918
910.8	16169
910.915	16078
911.03	15922
911.145	15827
911.259	15789
911.374	15766
911.489	15739
911.604	15595
911.718	15511
911.833	15580
911.947	15469
912.062	15313
912.176	15488
912.291	15591
912.405	15561
912.519	15755
912.633	15812
912.748	15500
912.862	15473
912.976	15325
913.09	15180
913.204	15317
913.318	15382
913.431	15408
913.545	15428
913.659	15439
913.772	15268
913.886	15161
914	15138
914.113	15264
914.226	15389
914.34	15268
914.453	15001
914.566	15188
914.68	15051
914.793	15032
914.906	14921
915.019	14746
915.132	14765
915.245	14773
915.358	14785
915.47	14811
915.583	14777
915.696	14883
915.809	14792
915.921	14880
916.034	14735
916.146	14686
916.259	14587
916.371	14838
916.483	14781
916.595	14583
916.708	14571
916.82	14651
916.932	14503
917.044	14560
917.156	14545
917.268	14461
917.38	14450
917.491	14412
917.603	14362
917.715	14434
917.826	14537
917.938	14412
918.049	14221
918.161	14423
918.272	14587
918.384	14495
918.495	14351
918.606	14218
918.717	14134
918.828	14317
918.939	14202
919.05	14145
919.161	14092
919.272	13963
919.383	14107
919.494	14282
919.604	14389
919.715	14172
919.826	14043
919.936	14164
920.047	14225
920.157	14126
920.267	14370
920.378	14161
920.488	14065
920.598	14412
920.708	14446
920.818	14240
920.928	14259
921.038	14469
921.148	14377
921.258	14142
921.368	14107
921.477	13982
921.587	13811
921.697	13791
921.806	13967
921.916	13742
922.025	13590
922.134	13529
922.244	13518
922.353	13616
922.462	13514
922.571	13384
922.68	13213
922.789	13244
922.898	13183
923.007	13179
923.116	13350
923.224	13198
923.333	13198
923.442	13137
923.55	13000
923.659	13091
923.767	13057
923.876	12935
923.984	13004
924.092	12954
924.201	13034
924.309	12958
924.417	12973
924.525	12935
924.633	12867
924.741	13826
924.849	12692
924.956	12856
925.064	12650
925.172	12566
925.279	12646
925.387	12585
925.494	12673
925.602	12597
925.709	12684
925.816	12601
925.924	12574
926.031	12719
926.138	12601
926.245	12635
926.352	12502
926.459	12555
926.566	12654
926.673	12555
926.779	12399
926.886	12391
926.993	12201
927.099	12266
927.206	12186
927.312	12190
927.419	12304
927.525	12239
927.631	12277
927.737	12121
927.843	12007
927.95	12041
928.056	12045
928.162	11984
928.267	12072
928.373	12620
928.479	12091
928.585	11916
928.69	12079
928.796	12068
928.901	11931
929.007	11813
929.112	11889
929.218	11901
929.323	11764
929.428	11813
929.533	11920
929.638	11691
929.743	11748
929.848	11767
929.953	11741
930.058	11714
930.163	11417
930.267	11429
930.372	11691
930.477	11429
930.581	11672
930.685	11577
930.79	11433
930.894	11417
930.998	11220
931.103	11474
931.207	11136
931.311	11094
931.415	10919
931.519	10774
931.623	10820
