Data from test_V78500241_1814.txt Node
Date: Fri Mar 25 15:22:29 CST 2022
User: usil
Spectrometer: V785-0024
Trigger mode: 0
Integration Time (sec): 4.000000E-1
Scans to average: 1
Nonlinearity correction enabled: false
Boxcar width: 0
Storing dark spectrum: false
XAxis mode: Wavelengths
Number of Pixels in Spectrum: 1024
>>>>>Begin Spectral Data<<<<<
801.071	27873
801.214	27793
801.356	27618
801.499	27427
801.641	27367
801.783	27344
801.926	27469
802.068	27408
802.211	27332
802.353	27256
802.496	27112
802.638	27195
802.78	27036
802.923	27112
803.065	27047
803.208	27062
803.35	27116
803.492	27165
803.635	27214
803.777	27188
803.919	27348
804.061	27595
804.204	27340
804.346	27222
804.488	27020
804.63	27237
804.773	27184
804.915	27260
805.057	27272
805.199	27195
805.341	27393
805.483	27397
805.626	27389
805.768	27332
805.91	27420
806.052	27412
806.194	27370
806.336	27568
806.478	27378
806.62	27481
806.762	27538
806.904	27603
807.046	27873
807.188	27812
807.33	27808
807.472	27983
807.614	27633
807.756	27778
807.898	27717
808.04	27538
808.182	27633
808.324	27610
808.465	27778
808.607	27774
808.749	27972
808.891	27975
809.033	28147
809.174	27956
809.316	27960
809.458	27831
809.6	27975
809.741	28086
809.883	28268
810.025	28375
810.166	28223
810.308	28223
810.45	28318
810.591	28124
810.733	28063
810.875	27865
811.016	27835
811.158	27873
811.299	28112
811.441	28169
811.582	28196
811.724	27934
811.865	27800
812.007	27953
812.148	27903
812.29	27937
812.431	28120
812.573	28356
812.714	28451
812.855	28470
812.997	28523
813.138	28824
813.279	28603
813.421	28398
813.562	28538
813.703	28242
813.845	28128
813.986	28013
814.127	27854
814.268	27774
814.41	27720
814.551	27500
814.692	27720
814.833	27641
814.974	27637
815.115	27789
815.256	27599
815.397	27542
815.539	27458
815.68	27701
815.821	27435
815.962	27568
816.103	27450
816.244	27256
816.385	27245
816.526	27138
816.666	27047
816.807	26902
816.948	27077
817.089	27081
817.23	27058
817.371	27104
817.512	26857
817.653	26910
817.793	26880
817.934	26895
818.075	26979
818.216	27001
818.356	26990
818.497	26864
818.638	26705
818.778	26686
818.919	26781
819.06	26807
819.2	26914
819.341	26952
819.481	26899
819.622	27135
819.762	27336
819.903	27192
820.043	27214
820.184	26918
820.324	27226
820.465	27188
820.605	27089
820.746	27108
820.886	26883
821.026	27066
821.167	27036
821.307	27058
821.447	27123
821.588	27051
821.728	26739
821.868	26689
822.008	26423
822.149	26442
822.289	26328
822.429	26195
822.569	26244
822.709	26084
822.849	26001
822.99	25936
823.13	25887
823.27	25944
823.41	25807
823.55	25655
823.69	25780
823.83	25704
823.97	25655
824.11	25590
824.25	25635
824.389	25529
824.529	25670
824.669	25624
824.809	25670
824.949	25753
825.089	25666
825.228	25662
825.368	25483
825.508	25506
825.648	25510
825.787	25441
825.927	25514
826.067	25533
826.206	25426
826.346	25453
826.485	25525
826.625	25438
826.765	25441
826.904	25632
827.044	25350
827.183	25324
827.323	25164
827.462	25175
827.601	25266
827.741	25202
827.88	25358
828.02	25012
828.159	25194
828.298	25209
828.437	25202
828.577	25232
828.716	25240
828.855	25225
828.994	25034
829.134	24878
829.273	24897
829.412	25053
829.551	24791
829.69	25023
829.829	25008
829.968	25004
830.107	24981
830.246	24970
830.385	24825
830.524	24791
830.663	24719
830.802	24540
830.941	24471
831.08	24399
831.219	24658
831.357	24654
831.496	24825
831.635	24650
831.774	24384
831.913	24429
832.051	24289
832.19	24197
832.329	24365
832.467	24140
832.606	24140
832.744	23984
832.883	24330
833.022	24228
833.16	24197
833.299	24292
833.437	24300
833.576	24239
833.714	24182
833.852	24281
833.991	24319
834.129	24426
834.267	24365
834.406	24254
834.544	24292
834.682	24338
834.821	24262
834.959	24369
835.097	24194
835.235	24327
835.373	24235
835.511	24296
835.65	24235
835.788	24220
835.926	23916
836.064	23927
836.202	23961
836.34	24194
836.478	24270
836.615	24174
836.753	24057
836.891	24152
837.029	24155
837.167	24129
837.305	23977
837.443	23965
837.58	24003
837.718	24072
837.856	23946
837.993	23950
838.131	23935
838.269	23904
838.406	23912
838.544	23859
838.681	23657
838.819	23490
838.956	23356
839.094	23414
839.231	23372
839.369	23646
839.506	23840
839.643	23767
839.781	23516
839.918	23448
840.055	23356
840.193	23372
840.33	23478
840.467	23334
840.604	23322
840.742	23509
840.879	23189
841.016	23292
841.153	23231
841.29	23459
841.427	23459
841.564	23376
841.701	23315
841.838	23200
841.975	23254
842.112	23311
842.249	23212
842.385	23231
842.522	23273
842.659	23124
842.796	23014
842.933	23064
843.069	23052
843.206	23067
843.343	23220
843.479	23189
843.616	23048
843.752	22774
843.889	22908
844.025	23033
844.162	22759
844.298	22927
844.435	22812
844.571	22942
844.708	22949
844.844	23067
844.98	23075
845.117	22915
845.253	22797
845.389	22805
845.525	22771
845.661	22721
845.798	22637
845.934	22660
846.07	22523
846.206	22675
846.342	22713
846.478	22550
846.614	22356
846.75	22348
846.886	22318
847.022	22375
847.158	22306
847.294	22371
847.429	22390
847.565	22246
847.701	22485
847.837	22196
847.972	21945
848.108	22230
848.244	22147
848.379	21964
848.515	22029
848.65	21842
848.786	21994
848.921	21998
849.057	22090
849.192	22036
849.328	21968
849.463	22086
849.598	21880
849.734	21812
849.869	21804
850.004	21663
850.14	21682
850.275	21705
850.41	21667
850.545	21644
850.68	21603
850.815	21671
850.95	21667
851.085	21857
851.22	21899
851.355	21698
851.49	21637
851.625	21701
851.76	21671
851.895	21614
852.03	21618
852.165	21595
852.299	21728
852.434	21724
852.569	21762
852.703	21739
852.838	21835
852.973	21774
853.107	21865
853.242	21629
853.376	21641
853.511	21393
853.645	21500
853.78	21591
853.914	21538
854.048	21610
854.183	21545
854.317	21469
854.451	21648
854.585	21572
854.72	21534
854.854	21618
854.988	21428
855.122	21439
855.256	21321
855.39	21431
855.524	21561
855.658	21656
855.792	21538
855.926	21492
856.06	21545
856.194	21705
856.327	21500
856.461	21435
856.595	21485
856.729	21587
856.862	21641
856.996	21534
857.13	21511
857.263	21561
857.397	21557
857.53	21488
857.664	21545
857.797	21660
857.931	21694
858.064	21519
858.197	21717
858.331	21496
858.464	21428
858.597	21351
858.731	21401
858.864	21549
858.997	21458
859.13	21534
859.263	21443
859.396	21549
859.529	21515
859.662	21500
859.795	21485
859.928	21473
860.061	21553
860.194	21614
860.327	21595
860.46	21504
860.592	21557
860.725	21732
860.858	21583
860.99	21519
861.123	21450
861.256	21462
861.388	21530
861.521	22013
861.653	21275
861.786	21264
861.918	21306
862.05	21313
862.183	21507
862.315	21549
862.447	21603
862.58	21462
862.712	21211
862.844	21176
862.976	21439
863.108	21302
863.24	21641
863.372	21237
863.504	21146
863.636	21287
863.768	21245
863.9	21283
864.032	21123
864.164	21233
864.296	21199
864.428	21332
864.559	21325
864.691	21294
864.823	21264
864.954	21302
865.086	21131
865.217	21028
865.349	21089
865.48	21184
865.612	21123
865.743	21268
865.875	21062
866.006	21127
866.137	21184
866.269	21043
866.4	21142
866.531	21013
866.662	20998
866.793	21100
866.924	20990
867.055	21047
867.186	21214
867.317	20990
867.448	20918
867.579	21017
867.71	20963
867.841	21024
867.972	21001
868.103	20929
868.233	21081
868.364	21058
868.495	21207
868.625	21272
868.756	21500
868.886	21264
869.017	21249
869.147	21412
869.278	21428
869.408	21268
869.539	21241
869.669	21294
869.799	21283
869.929	21382
870.06	21420
870.19	21641
870.32	21580
870.45	21682
870.58	21614
870.71	21774
870.84	21762
870.97	21549
871.1	21637
871.23	21873
871.36	21899
871.489	21747
871.619	21915
871.749	21895
871.879	21888
872.008	21937
872.138	21865
872.267	21884
872.397	21755
872.526	21694
872.656	21671
872.785	21747
872.915	21987
873.044	22002
873.173	21926
873.303	21876
873.432	21922
873.561	21994
873.69	21903
873.819	21876
873.948	22002
874.077	21991
874.206	21983
874.335	21854
874.464	22063
874.593	22116
874.722	22070
874.851	22162
874.979	22154
875.108	22097
875.237	22097
875.365	21956
875.494	22070
875.623	22253
875.751	22070
875.88	22135
876.008	22207
876.136	22291
876.265	22421
876.393	22596
876.521	22588
876.65	22546
876.778	22519
876.906	22493
877.034	22466
877.162	22542
877.29	22333
877.418	22481
877.546	22447
877.674	22443
877.802	22402
877.93	22462
878.058	22379
878.185	22409
878.313	22276
878.441	22470
878.568	22348
878.696	22344
878.824	22386
878.951	22512
879.079	22702
879.206	22706
879.333	22641
879.461	22417
879.588	22554
879.715	22653
879.842	22752
879.97	22588
880.097	22329
880.224	22360
880.351	22242
880.478	22246
880.605	22242
880.732	22303
880.859	22622
880.986	22249
881.112	22428
881.239	22207
881.366	22017
881.493	21930
881.619	21789
881.746	21819
881.872	21895
881.999	21869
882.125	21846
882.252	21789
882.378	21816
882.505	22036
882.631	21698
882.757	21591
882.883	21583
883.01	21534
883.136	21576
883.262	21424
883.388	21447
883.514	21564
883.64	21610
883.766	21553
883.892	21367
884.018	21428
884.143	21481
884.269	21671
884.395	21291
884.52	21165
884.646	21237
884.772	21131
884.897	21173
885.023	21245
885.148	21237
885.274	21294
885.399	21230
885.524	21291
885.65	21214
885.775	21272
885.9	21146
886.025	21245
886.15	21317
886.275	21157
886.4	21203
886.525	21241
886.65	21093
886.775	21146
886.9	21214
887.025	21420
887.149	21077
887.274	20982
887.399	20948
887.523	20975
887.648	20781
887.773	20762
887.897	21032
888.021	20944
888.146	20963
888.27	21112
888.395	21108
888.519	21013
888.643	20990
888.767	20975
888.891	20773
889.015	20826
889.139	20792
889.263	20731
889.387	20861
889.511	21039
889.635	20952
889.759	20686
889.883	20758
890.006	20857
890.13	20823
890.254	20838
890.377	20609
890.501	20522
890.624	20495
890.748	20545
890.871	20298
890.995	20347
891.118	20267
891.241	20317
891.364	20328
891.488	20389
891.611	20328
891.734	20336
891.857	20457
891.98	20286
892.103	20282
892.226	20317
892.349	20351
892.471	20069
892.594	20294
892.717	20225
892.839	20320
892.962	20153
893.085	20301
893.207	20244
893.33	20054
893.452	20244
893.575	20362
893.697	20142
893.819	20427
893.941	20465
894.064	20362
894.186	20039
894.308	20161
894.43	20389
894.552	20347
894.674	20290
894.796	20103
894.918	20176
895.04	20214
895.161	20393
895.283	20263
895.405	20035
895.526	20195
895.648	20187
895.769	20286
895.891	20313
896.012	20252
896.134	20180
896.255	20286
896.376	20161
896.498	20248
896.619	20324
896.74	20233
896.861	20278
896.982	20465
897.103	20621
897.224	20568
897.345	20438
897.466	20358
897.587	20575
897.708	20541
897.828	20522
897.949	20408
898.07	20339
898.19	20385
898.311	20503
898.431	20473
898.552	20408
898.672	20590
898.792	20461
898.913	20484
899.033	20332
899.153	20301
899.273	20050
899.393	20256
899.513	20199
899.633	20199
899.753	20088
899.873	20122
899.993	20119
900.113	20218
900.232	20176
900.352	19925
900.472	20035
900.591	19970
900.711	20012
900.83	19860
900.95	19951
901.069	20027
901.189	19795
901.308	19506
901.427	19468
901.546	19605
901.665	19533
901.784	19491
901.904	19343
902.023	19354
902.141	19133
902.26	19027
902.379	19126
902.498	19000
902.617	19012
902.735	19027
902.854	19084
902.973	19019
903.091	18738
903.21	18719
903.328	18776
903.446	18639
903.565	18566
903.683	18490
903.801	18311
903.919	18566
904.038	18513
904.156	18372
904.274	18407
904.392	18300
904.51	18258
904.627	18304
904.745	18319
904.863	18357
904.981	18144
905.098	17904
905.216	17885
905.334	17950
905.451	17973
905.569	17916
905.686	17961
905.803	17992
905.921	17836
906.038	17904
906.155	17783
906.272	17535
906.389	17756
906.506	17535
906.623	17497
906.74	17391
906.857	17376
906.974	17455
907.091	17539
907.208	17695
907.324	17459
907.441	17497
907.557	17296
907.674	17212
907.79	17006
907.907	17197
908.023	17303
908.139	17189
908.256	17117
908.372	17067
908.488	17117
908.604	16987
908.72	16995
908.836	16987
908.952	16946
909.068	17052
909.184	16965
909.3	17048
909.415	17052
909.531	16862
909.647	16603
909.762	16687
909.878	16637
909.993	16580
910.108	16675
910.224	16630
910.339	16622
910.454	16512
910.57	16500
910.685	16405
910.8	16653
910.915	16558
911.03	16470
911.145	16261
911.259	16333
911.374	16177
911.489	16150
911.604	16135
911.718	15956
911.833	16017
911.947	15907
912.062	15846
912.176	15956
912.291	15907
912.405	15994
912.519	16135
912.633	16086
912.748	16029
912.862	15994
912.976	15778
913.09	15656
913.204	15732
913.318	15903
913.431	15934
913.545	15831
913.659	15846
913.772	15701
913.886	15637
914	15564
914.113	15667
914.226	15728
914.34	15618
914.453	15386
914.566	15648
914.68	15538
914.793	15458
914.906	15249
915.019	15207
915.132	15226
915.245	15161
915.358	15184
915.47	15233
915.583	15207
915.696	15184
915.809	15279
915.921	15340
916.034	15173
916.146	15036
916.259	15116
916.371	15142
916.483	15055
916.595	15047
916.708	15001
916.82	15009
916.932	14990
917.044	15001
917.156	14925
917.268	14895
917.38	14838
917.491	14842
917.603	14899
917.715	14902
917.826	14933
917.938	14891
918.049	14727
918.161	14838
918.272	14845
918.384	14849
918.495	14872
918.606	14610
918.717	14533
918.828	14686
918.939	14560
919.05	14549
919.161	14602
919.272	14400
919.383	14431
919.494	14610
919.604	14826
919.715	14670
919.826	14469
919.936	14476
920.047	14651
920.157	14720
920.267	14823
920.378	14629
920.488	14469
920.598	14739
920.708	14880
920.818	14648
920.928	14644
921.038	14864
921.148	14785
921.258	14602
921.368	14514
921.477	14320
921.587	14339
921.697	14187
921.806	14263
921.916	14183
922.025	14046
922.134	13856
922.244	13913
922.353	13906
922.462	13830
922.571	13742
922.68	13601
922.789	13620
922.898	13639
923.007	13529
923.116	13563
923.224	13571
923.333	13567
923.442	13472
923.55	13304
923.659	13419
923.767	13460
923.876	13297
923.984	13358
924.092	13240
924.201	13362
924.309	13316
924.417	13259
924.525	13236
924.633	13244
924.741	14221
924.849	12981
924.956	13133
925.064	13050
925.172	12981
925.279	12954
925.387	12981
925.494	12977
925.602	13168
925.709	12951
925.816	12890
925.924	12916
926.031	13069
926.138	12939
926.245	12989
926.352	12966
926.459	13057
926.566	13012
926.673	12757
926.779	12658
926.886	12719
926.993	12688
927.099	12544
927.206	12551
927.312	12513
927.419	12612
927.525	12574
927.631	12540
927.737	12464
927.843	12357
927.95	12311
928.056	12380
928.162	12426
928.267	12433
928.373	12989
928.479	12483
928.585	12292
928.69	12395
928.796	12285
928.901	12270
929.007	12072
929.112	12239
929.218	12262
929.323	12148
929.428	12194
929.533	12190
929.638	12007
929.743	12030
929.848	12079
929.953	11999
930.058	11885
930.163	11745
930.267	11703
930.372	11859
930.477	11714
930.581	12026
930.685	11813
930.79	11672
930.894	11786
930.998	11646
931.103	11745
931.207	11421
931.311	11360
931.415	11166
931.519	11064
931.623	11010
