Data from test_V78500241_3342.txt Node
Date: Fri Mar 25 15:33:07 CST 2022
User: usil
Spectrometer: V785-0024
Trigger mode: 0
Integration Time (sec): 4.000000E-1
Scans to average: 1
Nonlinearity correction enabled: false
Boxcar width: 0
Storing dark spectrum: false
XAxis mode: Wavelengths
Number of Pixels in Spectrum: 1024
>>>>>Begin Spectral Data<<<<<
801.071	27192
801.214	27100
801.356	27017
801.499	26811
801.641	26899
801.783	26746
801.926	26754
802.068	26762
802.211	26716
802.353	26644
802.496	26632
802.638	26393
802.78	26480
802.923	26305
803.065	26358
803.208	26446
803.35	26438
803.492	26564
803.635	26648
803.777	26541
803.919	26549
804.061	26735
804.204	26526
804.346	26476
804.488	26374
804.63	26495
804.773	26370
804.915	26678
805.057	26705
805.199	26522
805.341	26533
805.483	26731
805.626	26724
805.768	26499
805.91	26602
806.052	26625
806.194	26571
806.336	26708
806.478	26689
806.62	26594
806.762	26705
806.904	26918
807.046	27154
807.188	27112
807.33	27116
807.472	27043
807.614	26925
807.756	27051
807.898	26933
808.04	26868
808.182	26842
808.324	26956
808.465	26982
808.607	27150
808.749	27298
808.891	27329
809.033	27336
809.174	27351
809.316	27245
809.458	27363
809.6	27074
809.741	27427
809.883	27412
810.025	27507
810.166	27500
810.308	27667
810.45	27462
810.591	27427
810.733	27405
810.875	27142
811.016	27146
811.158	27123
811.299	27439
811.441	27469
811.582	27427
811.724	27351
811.865	27192
812.007	27184
812.148	27199
812.29	27245
812.431	27412
812.573	27557
812.714	27686
812.855	27743
812.997	27861
813.138	28021
813.279	27934
813.421	27797
813.562	27778
813.703	27504
813.845	27405
813.986	27142
814.127	27009
814.268	26796
814.41	26872
814.551	26857
814.692	27055
814.833	26781
814.974	26815
815.115	26910
815.256	26864
815.397	26788
815.539	26743
815.68	26708
815.821	26587
815.962	26777
816.103	26590
816.244	26674
816.385	26511
816.526	26385
816.666	26290
816.807	26183
816.948	26161
817.089	26301
817.23	26180
817.371	26164
817.512	26252
817.653	26199
817.793	26138
817.934	26164
818.075	26259
818.216	26069
818.356	26225
818.497	26001
818.638	25970
818.778	25917
818.919	25852
819.06	25982
819.2	26069
819.341	26180
819.481	26138
819.622	26275
819.762	26530
819.903	26438
820.043	26461
820.184	26122
820.324	26180
820.465	26172
820.605	26339
820.746	26183
820.886	26149
821.026	26282
821.167	26263
821.307	26385
821.447	26237
821.588	26073
821.728	25803
821.868	25746
822.008	25651
822.149	25655
822.289	25613
822.429	25365
822.569	25327
822.709	25422
822.849	25175
822.99	25156
823.13	25118
823.27	25000
823.41	24932
823.55	24985
823.69	24989
823.83	24985
823.97	24829
824.11	24806
824.25	24795
824.389	24730
824.529	24795
824.669	24764
824.809	24924
824.949	24905
825.089	24875
825.228	24863
825.368	24703
825.508	24661
825.648	24612
825.787	24669
825.927	24863
826.067	24601
826.206	24639
826.346	24688
826.485	24734
826.625	24665
826.765	24612
826.904	24753
827.044	24399
827.183	24467
827.323	24315
827.462	24464
827.601	24391
827.741	24388
827.88	24361
828.02	24289
828.159	24407
828.298	24384
828.437	24460
828.577	24350
828.716	24483
828.855	24296
828.994	24068
829.134	23984
829.273	24121
829.412	24003
829.551	23988
829.69	24129
829.829	24053
829.968	24102
830.107	24022
830.246	23977
830.385	24091
830.524	24049
830.663	23965
830.802	23809
830.941	23737
831.08	23680
831.219	23813
831.357	23897
831.496	23961
831.635	23699
831.774	23649
831.913	23699
832.051	23520
832.19	23406
832.329	23501
832.467	23360
832.606	23269
832.744	23288
832.883	23337
833.022	23231
833.16	23349
833.299	23360
833.437	23551
833.576	23474
833.714	23436
833.852	23463
833.991	23490
834.129	23531
834.267	23471
834.406	23455
834.544	23493
834.682	23410
834.821	23615
834.959	23486
835.097	23455
835.235	23516
835.373	23509
835.511	23379
835.65	23379
835.788	23246
835.926	23246
836.064	23170
836.202	23181
836.34	23296
836.478	23269
836.615	23246
836.753	23326
836.891	23421
837.029	23360
837.167	23258
837.305	23166
837.443	23136
837.58	23200
837.718	23280
837.856	23143
837.993	23143
838.131	23060
838.269	22934
838.406	23052
838.544	23041
838.681	22889
838.819	22771
838.956	22660
839.094	22660
839.231	22759
839.369	22828
839.506	23064
839.643	22873
839.781	22675
839.918	22626
840.055	22557
840.193	22683
840.33	22512
840.467	22565
840.604	22550
840.742	23022
840.879	22493
841.016	22584
841.153	22451
841.29	22656
841.427	22508
841.564	22542
841.701	22615
841.838	22630
841.975	22512
842.112	22546
842.249	22569
842.385	22379
842.522	22554
842.659	22527
842.796	22356
842.933	22261
843.069	22291
843.206	22287
843.343	22440
843.479	22284
843.616	22341
843.752	22181
843.889	22143
844.025	22246
844.162	22070
844.298	22226
844.435	22097
844.571	22181
844.708	22105
844.844	22272
844.98	22268
845.117	22215
845.253	22112
845.389	22013
845.525	21949
845.661	22002
845.798	21922
845.934	21915
846.07	21816
846.206	21835
846.342	21998
846.478	21869
846.614	21713
846.75	21591
846.886	21583
847.022	21637
847.158	21576
847.294	21568
847.429	21705
847.565	21591
847.701	21850
847.837	21230
847.972	21344
848.108	21439
848.244	21351
848.379	21272
848.515	21032
848.65	21135
848.786	21310
848.921	21252
849.057	21211
849.192	21283
849.328	21123
849.463	21218
849.598	21180
849.734	21123
849.869	20960
850.004	20975
850.14	20994
850.275	21005
850.41	20963
850.545	20880
850.68	20921
850.815	21020
850.95	20910
851.085	21081
851.22	21131
851.355	21085
851.49	20891
851.625	20967
851.76	20845
851.895	20864
852.03	20887
852.165	20906
852.299	21028
852.434	20986
852.569	21013
852.703	21028
852.838	20979
852.973	21077
853.107	21093
853.242	20883
853.376	20902
853.511	20712
853.645	20765
853.78	20944
853.914	20716
854.048	20769
854.183	20716
854.317	20716
854.451	21104
854.585	20773
854.72	20872
854.854	20872
854.988	20682
855.122	20906
855.256	20640
855.39	20845
855.524	20788
855.658	20838
855.792	20853
855.926	20826
856.06	20914
856.194	20823
856.327	20655
856.461	20708
856.595	20754
856.729	20777
856.862	20895
856.996	20735
857.13	20765
857.263	20823
857.397	20887
857.53	20746
857.664	20800
857.797	20830
857.931	20815
858.064	20765
858.197	20921
858.331	20758
858.464	20640
858.597	20693
858.731	20807
858.864	20777
858.997	20697
859.13	20769
859.263	20800
859.396	20849
859.529	20777
859.662	20697
859.795	20720
859.928	20861
860.061	20990
860.194	20948
860.327	20872
860.46	20754
860.592	20979
860.725	20986
860.858	20948
860.99	20674
861.123	20758
861.256	20655
861.388	20773
861.521	21359
861.653	20659
861.786	20575
861.918	20678
862.05	20785
862.183	20689
862.315	20705
862.447	20689
862.58	20594
862.712	20461
862.844	20434
862.976	20670
863.108	20609
863.24	20944
863.372	20446
863.504	20400
863.636	20370
863.768	20560
863.9	20480
864.032	20431
864.164	20469
864.296	20457
864.428	20636
864.559	20564
864.691	20518
864.823	20518
864.954	20419
865.086	20583
865.217	20530
865.349	20324
865.48	20385
865.612	20457
865.743	20537
865.875	20328
866.006	20400
866.137	20374
866.269	20370
866.4	20404
866.531	20393
866.662	20366
866.793	20385
866.924	20301
867.055	20400
867.186	20404
867.317	20225
867.448	20237
867.579	20267
867.71	20305
867.841	20328
867.972	20324
868.103	20393
868.233	20263
868.364	20339
868.495	20469
868.625	20609
868.756	20750
868.886	20583
869.017	20537
869.147	20724
869.278	20682
869.408	20579
869.539	20545
869.669	20727
869.799	20552
869.929	20686
870.06	20602
870.19	20933
870.32	20883
870.45	20925
870.58	21074
870.71	21051
870.84	20998
870.97	20979
871.1	20956
871.23	21157
871.36	21165
871.489	21093
871.619	21112
871.749	21138
871.879	21176
872.008	21195
872.138	21100
872.267	21268
872.397	21062
872.526	20998
872.656	21051
872.785	20975
872.915	21112
873.044	21264
873.173	21237
873.303	21291
873.432	21249
873.561	21401
873.69	21264
873.819	21100
873.948	21165
874.077	21195
874.206	21119
874.335	21188
874.464	21428
874.593	21458
874.722	21473
874.851	21481
874.979	21534
875.108	21568
875.237	21416
875.365	21264
875.494	21397
875.623	21568
875.751	21466
875.88	21351
876.008	21561
876.136	21701
876.265	21998
876.393	21949
876.521	21968
876.65	21922
876.778	21911
876.906	21759
877.034	21743
877.162	21778
877.29	21781
877.418	21854
877.546	21720
877.674	21812
877.802	21747
877.93	21793
878.058	21766
878.185	21591
878.313	21713
878.441	21770
878.568	21606
878.696	21800
878.824	21838
878.951	21907
879.079	21968
879.206	22116
879.333	21926
879.461	21888
879.588	21876
879.715	21975
879.842	22090
879.97	21915
880.097	21690
880.224	21599
880.351	21583
880.478	21660
880.605	21625
880.732	21667
880.859	21812
880.986	21717
881.112	21652
881.239	21488
881.366	21287
881.493	21279
881.619	21249
881.746	21184
881.872	21184
881.999	21249
882.125	21135
882.252	21230
882.378	21142
882.505	21306
882.631	21062
882.757	20925
882.883	20880
883.01	20899
883.136	20994
883.262	20800
883.388	20804
883.514	20834
883.64	20921
883.766	20853
883.892	20708
884.018	20758
884.143	20952
884.269	20925
884.395	20746
884.52	20602
884.646	20575
884.772	20503
884.897	20492
885.023	20530
885.148	20724
885.274	20705
885.399	20716
885.524	20473
885.65	20560
885.775	20488
885.9	20469
886.025	20575
886.15	20609
886.275	20518
886.4	20408
886.525	20434
886.65	20362
886.775	20423
886.9	20590
887.025	20701
887.149	20503
887.274	20339
887.399	20313
887.523	20294
887.648	20332
887.773	20317
887.897	20389
888.021	20355
888.146	20343
888.27	20465
888.395	20454
888.519	20286
888.643	20305
888.767	20355
888.891	20183
889.015	20237
889.139	20183
889.263	20199
889.387	20149
889.511	20385
889.635	20187
889.759	20065
889.883	20073
890.006	20214
890.13	20161
890.254	20111
890.377	20119
890.501	19944
890.624	19875
890.748	19978
890.871	19788
890.995	19708
891.118	19677
891.241	19689
891.364	19651
891.488	19860
891.611	19715
891.734	19681
891.857	19704
891.98	19731
892.103	19780
892.226	19723
892.349	19635
892.471	19499
892.594	19700
892.717	19613
892.839	19556
892.962	19567
893.085	19681
893.207	19635
893.33	19506
893.452	19609
893.575	19597
893.697	19616
893.819	19811
893.941	19883
894.064	19757
894.186	19647
894.308	19521
894.43	19685
894.552	19753
894.674	19677
894.796	19559
894.918	19556
895.04	19540
895.161	19784
895.283	19601
895.405	19502
895.526	19723
895.648	19670
895.769	19613
895.891	19750
896.012	19586
896.134	19674
896.255	19635
896.376	19575
896.498	19613
896.619	19693
896.74	19643
896.861	19567
896.982	20005
897.103	20103
897.224	19970
897.345	19921
897.466	19807
897.587	19852
897.708	19989
897.828	19898
897.949	19784
898.07	19658
898.19	19769
898.311	19928
898.431	19849
898.552	19803
898.672	19814
898.792	19932
898.913	19879
899.033	19849
899.153	19696
899.273	19544
899.393	19567
899.513	19578
899.633	19594
899.753	19575
899.873	19537
899.993	19544
900.113	19609
900.232	19628
900.352	19480
900.472	19632
900.591	19362
900.711	19407
900.83	19350
900.95	19403
901.069	19426
901.189	19354
901.308	19072
901.427	18996
901.546	19091
901.665	19023
901.784	18924
901.904	18840
902.023	18795
902.141	18650
902.26	18441
902.379	18574
902.498	18570
902.617	18384
902.735	18486
902.854	18532
902.973	18365
903.091	18186
903.21	18144
903.328	18136
903.446	18076
903.565	17977
903.683	17912
903.801	17783
903.919	17927
904.038	17954
904.156	17718
904.274	17901
904.392	17828
904.51	17748
904.627	17805
904.745	17779
904.863	17764
904.981	17532
905.098	17448
905.216	17429
905.334	17505
905.451	17429
905.569	17353
905.686	17421
905.803	17387
905.921	17315
906.038	17273
906.155	17193
906.272	17132
906.389	17071
906.506	17037
906.623	16984
906.74	16987
906.857	16911
906.974	17014
907.091	17014
907.208	17155
907.324	16987
907.441	16771
907.557	16725
907.674	16786
907.79	16653
907.907	16763
908.023	16755
908.139	16713
908.256	16645
908.372	16626
908.488	16493
908.604	16455
908.72	16428
908.836	16512
908.952	16459
909.068	16424
909.184	16481
909.3	16523
909.415	16413
909.531	16459
909.647	16246
909.762	16120
909.878	16128
909.993	16169
910.108	16116
910.224	16169
910.339	16177
910.454	16013
910.57	15953
910.685	15903
910.8	16173
910.915	16105
911.03	15968
911.145	15842
911.259	15770
911.374	15755
911.489	15774
911.604	15652
911.718	15485
911.833	15454
911.947	15435
912.062	15393
912.176	15625
912.291	15557
912.405	15488
912.519	15701
912.633	15720
912.748	15614
912.862	15435
912.976	15313
913.09	15279
913.204	15310
913.318	15359
913.431	15439
913.545	15367
913.659	15389
913.772	15325
913.886	15252
914	15154
914.113	15245
914.226	15226
914.34	15241
914.453	15028
914.566	15127
914.68	14960
914.793	15005
914.906	14769
915.019	14682
915.132	14697
915.245	14773
915.358	14724
915.47	14762
915.583	14815
915.696	14834
915.809	14933
915.921	14796
916.034	14594
916.146	14731
916.259	14598
916.371	14785
916.483	14689
916.595	14663
916.708	14651
916.82	14629
916.932	14514
917.044	14499
917.156	14507
917.268	14461
917.38	14362
917.491	14492
917.603	14396
917.715	14412
917.826	14476
917.938	14442
918.049	14381
918.161	14393
918.272	14461
918.384	14549
918.495	14374
918.606	14218
918.717	14195
918.828	14225
918.939	14229
919.05	14046
919.161	14111
919.272	14050
919.383	14096
919.494	14153
919.604	14362
919.715	14157
919.826	14092
919.936	14149
920.047	14221
920.157	14111
920.267	14301
920.378	14195
920.488	14058
920.598	14256
920.708	14480
920.818	14267
920.928	14267
921.038	14461
921.148	14370
921.258	14069
921.368	14062
921.477	13997
921.587	13784
921.697	13780
921.806	13982
921.916	13780
922.025	13632
922.134	13575
922.244	13518
922.353	13559
922.462	13384
922.571	13441
922.68	13316
922.789	13225
922.898	13175
923.007	13126
923.116	13236
923.224	13179
923.333	13110
923.442	13072
923.55	13031
923.659	13122
923.767	13156
923.876	13057
923.984	13061
924.092	12970
924.201	12943
924.309	13008
924.417	13008
924.525	12768
924.633	12776
924.741	13837
924.849	12612
924.956	12783
925.064	12700
925.172	12612
925.279	12608
925.387	12726
925.494	12658
925.602	12825
925.709	12665
925.816	12540
925.924	12635
926.031	12688
926.138	12544
926.245	12544
926.352	12540
926.459	12601
926.566	12669
926.673	12460
926.779	12395
926.886	12369
926.993	12277
927.099	12251
927.206	12144
927.312	12152
927.419	12220
927.525	12190
927.631	12213
927.737	12095
927.843	12060
927.95	11984
928.056	11980
928.162	12064
928.267	12121
928.373	12555
928.479	12140
928.585	11885
928.69	11977
928.796	12045
928.901	11916
929.007	11726
929.112	11961
929.218	11904
929.323	11817
929.428	11741
929.533	11874
929.638	11688
929.743	11855
929.848	11817
929.953	11653
930.058	11630
930.163	11452
930.267	11433
930.372	11600
930.477	11440
930.581	11646
930.685	11512
930.79	11341
930.894	11349
930.998	11299
931.103	11364
931.207	11151
931.311	11029
931.415	10930
931.519	10721
931.623	10778
