Data from test_V78500241_374.txt Node
Date: Fri Mar 25 15:12:27 CST 2022
User: usil
Spectrometer: V785-0024
Trigger mode: 0
Integration Time (sec): 4.000000E-1
Scans to average: 1
Nonlinearity correction enabled: false
Boxcar width: 0
Storing dark spectrum: false
XAxis mode: Wavelengths
Number of Pixels in Spectrum: 1024
>>>>>Begin Spectral Data<<<<<
801.071	26899
801.214	26971
801.356	26632
801.499	26682
801.641	26408
801.783	26499
801.926	26693
802.068	26511
802.211	26473
802.353	26301
802.496	26328
802.638	26126
802.78	26221
802.923	26035
803.065	26046
803.208	26001
803.35	26195
803.492	26157
803.635	26214
803.777	26267
803.919	26313
804.061	26533
804.204	26305
804.346	26103
804.488	26172
804.63	26240
804.773	26195
804.915	26294
805.057	26305
805.199	26256
805.341	26286
805.483	26457
805.626	26313
805.768	26256
805.91	26294
806.052	26336
806.194	26404
806.336	26530
806.478	26446
806.62	26408
806.762	26453
806.904	26735
807.046	26921
807.188	26807
807.33	26746
807.472	26834
807.614	26796
807.756	26804
807.898	26686
808.04	26492
808.182	26617
808.324	26655
808.465	26640
808.607	26746
808.749	26845
808.891	27020
809.033	27154
809.174	27093
809.316	27066
809.458	26956
809.6	26857
809.741	27131
809.883	27028
810.025	27256
810.166	27287
810.308	27138
810.45	27249
810.591	27165
810.733	27074
810.875	27028
811.016	26853
811.158	26785
811.299	27032
811.441	26994
811.582	27081
811.724	26792
811.865	26811
812.007	26937
812.148	26944
812.29	26937
812.431	27108
812.573	27260
812.714	27370
812.855	27454
812.997	27534
813.138	27648
813.279	27485
813.421	27534
813.562	27374
813.703	27241
813.845	27313
813.986	26826
814.127	26864
814.268	26678
814.41	26575
814.551	26587
814.692	26762
814.833	26488
814.974	26552
815.115	26659
815.256	26374
815.397	26503
815.539	26389
815.68	26427
815.821	26358
815.962	26511
816.103	26294
816.244	26282
816.385	26115
816.526	26050
816.666	26031
816.807	25860
816.948	25978
817.089	25879
817.23	25970
817.371	25746
817.512	25826
817.653	25955
817.793	25875
817.934	25845
818.075	25845
818.216	25955
818.356	25811
818.497	25811
818.638	25540
818.778	25616
818.919	25567
819.06	25620
819.2	25738
819.341	25746
819.481	25868
819.622	25909
819.762	26202
819.903	26058
820.043	26035
820.184	26012
820.324	26065
820.465	26092
820.605	26020
820.746	25928
820.886	25879
821.026	25955
821.167	25738
821.307	25928
821.447	25944
821.588	25712
821.728	25632
821.868	25441
822.008	25308
822.149	25263
822.289	25228
822.429	25126
822.569	25053
822.709	25103
822.849	24878
822.99	24798
823.13	24882
823.27	24840
823.41	24654
823.55	24578
823.69	24654
823.83	24665
823.97	24483
824.11	24395
824.25	24418
824.389	24536
824.529	24445
824.669	24494
824.809	24517
824.949	24445
825.089	24490
825.228	24559
825.368	24315
825.508	24304
825.648	24380
825.787	24369
825.927	24254
826.067	24178
826.206	24270
826.346	24380
826.485	24254
826.625	24357
826.765	24467
826.904	24315
827.044	24174
827.183	24182
827.323	23935
827.462	24060
827.601	24068
827.741	23973
827.88	24129
828.02	23851
828.159	24076
828.298	24087
828.437	24038
828.577	23904
828.716	24136
828.855	23999
828.994	23710
829.134	23756
829.273	23718
829.412	23783
829.551	23752
829.69	23802
829.829	23691
829.968	23889
830.107	23901
830.246	23771
830.385	23680
830.524	23672
830.663	23547
830.802	23665
830.941	23383
831.08	23235
831.219	23372
831.357	23501
831.496	23566
831.635	23459
831.774	23296
831.913	23288
832.051	23250
832.19	23124
832.329	23197
832.467	23147
832.606	23029
832.744	23124
832.883	23022
833.022	22911
833.16	23083
833.299	23136
833.437	23014
833.576	23204
833.714	23132
833.852	23166
833.991	23265
834.129	23185
834.267	23261
834.406	23136
834.544	23181
834.682	23212
834.821	23098
834.959	23299
835.097	23029
835.235	23132
835.373	23094
835.511	23124
835.65	23018
835.788	23060
835.926	22824
836.064	22774
836.202	22820
836.34	22923
836.478	23105
836.615	22801
836.753	22972
836.891	23071
837.029	23037
837.167	22976
837.305	22866
837.443	22911
837.58	22767
837.718	22858
837.856	22869
837.993	22835
838.131	22889
838.269	22679
838.406	22759
838.544	22691
838.681	22519
838.819	22481
838.956	22314
839.094	22280
839.231	22352
839.369	22409
839.506	22824
839.643	22592
839.781	22318
839.918	22284
840.055	22341
840.193	22257
840.33	22287
840.467	22242
840.604	22272
840.742	22466
840.879	22207
841.016	22169
841.153	22040
841.29	22299
841.427	22223
841.564	22344
841.701	22310
841.838	22238
841.975	22230
842.112	22223
842.249	22109
842.385	22059
842.522	22200
842.659	21979
842.796	21964
842.933	21857
843.069	21972
843.206	21991
843.343	22120
843.479	21953
843.616	21979
843.752	21850
843.889	21701
844.025	21934
844.162	21755
844.298	21865
844.435	21865
844.571	21736
844.708	21907
844.844	21975
844.98	21800
845.117	21876
845.253	21717
845.389	21625
845.525	21713
845.661	21603
845.798	21481
845.934	21713
846.07	21500
846.206	21435
846.342	21648
846.478	21523
846.614	21416
846.75	21218
846.886	21359
847.022	21279
847.158	21302
847.294	21222
847.429	21359
847.565	21294
847.701	21439
847.837	21070
847.972	21077
848.108	21138
848.244	21055
848.379	20979
848.515	20826
848.65	20811
848.786	20891
848.921	20982
849.057	20918
849.192	20899
849.328	20986
849.463	20921
849.598	20895
849.734	20708
849.869	20807
850.004	20651
850.14	20648
850.275	20625
850.41	20518
850.545	20571
850.68	20533
850.815	20659
850.95	20587
851.085	20762
851.22	20750
851.355	20556
851.49	20564
851.625	20644
851.76	20530
851.895	20442
852.03	20598
852.165	20659
852.299	20705
852.434	20731
852.569	20613
852.703	20594
852.838	20594
852.973	20670
853.107	20819
853.242	20648
853.376	20408
853.511	20313
853.645	20400
853.78	20625
853.914	20552
854.048	20393
854.183	20415
854.317	20465
854.451	20712
854.585	20507
854.72	20427
854.854	20503
854.988	20457
855.122	20450
855.256	20423
855.39	20450
855.524	20522
855.658	20511
855.792	20480
855.926	20465
856.06	20499
856.194	20621
856.327	20427
856.461	20438
856.595	20412
856.729	20541
856.862	20708
856.996	20454
857.13	20568
857.263	20545
857.397	20587
857.53	20446
857.664	20545
857.797	20545
857.931	20602
858.064	20526
858.197	20461
858.331	20336
858.464	20431
858.597	20423
858.731	20575
858.864	20332
858.997	20427
859.13	20469
859.263	20530
859.396	20522
859.529	20495
859.662	20522
859.795	20396
859.928	20457
860.061	20602
860.194	20670
860.327	20423
860.46	20514
860.592	20571
860.725	20587
860.858	20609
860.99	20549
861.123	20385
861.256	20298
861.388	20507
861.521	21036
861.653	20267
861.786	20263
861.918	20377
862.05	20355
862.183	20358
862.315	20320
862.447	20324
862.58	20275
862.712	20221
862.844	20172
862.976	20161
863.108	20202
863.24	20705
863.372	20084
863.504	20164
863.636	20065
863.768	20164
863.9	20172
864.032	20096
864.164	20115
864.296	20145
864.428	20187
864.559	20259
864.691	20164
864.823	20168
864.954	20180
865.086	20237
865.217	20027
865.349	20126
865.48	20122
865.612	20088
865.743	20298
865.875	20077
866.006	20001
866.137	20100
866.269	20111
866.4	19955
866.531	20088
866.662	20008
866.793	19959
866.924	19947
867.055	20005
867.186	20062
867.317	20012
867.448	19951
867.579	20138
867.71	19879
867.841	19986
867.972	20043
868.103	19974
868.233	20046
868.364	19970
868.495	20138
868.625	20252
868.756	20271
868.886	20206
869.017	20240
869.147	20503
869.278	20457
869.408	20286
869.539	20237
869.669	20294
869.799	20366
869.929	20507
870.06	20328
870.19	20514
870.32	20473
870.45	20609
870.58	20686
870.71	20834
870.84	20754
870.97	20606
871.1	20689
871.23	20933
871.36	20804
871.489	20834
871.619	20834
871.749	20773
871.879	20910
872.008	21123
872.138	20906
872.267	20845
872.397	20693
872.526	20583
872.656	20678
872.785	20781
872.915	20929
873.044	20971
873.173	20998
873.303	20921
873.432	20933
873.561	21047
873.69	20876
873.819	20918
873.948	21047
874.077	20883
874.206	20769
874.335	20944
874.464	21020
874.593	21230
874.722	21116
874.851	21146
874.979	21294
875.108	21218
875.237	21184
875.365	21173
875.494	21100
875.623	21218
875.751	21138
875.88	21081
876.008	21157
876.136	21340
876.265	21485
876.393	21671
876.521	21667
876.65	21545
876.778	21435
876.906	21424
877.034	21389
877.162	21458
877.29	21549
877.418	21466
877.546	21458
877.674	21496
877.802	21458
877.93	21538
878.058	21473
878.185	21279
878.313	21424
878.441	21447
878.568	21241
878.696	21416
878.824	21538
878.951	21526
879.079	21751
879.206	21762
879.333	21641
879.461	21488
879.588	21519
879.715	21644
879.842	21755
879.97	21576
880.097	21306
880.224	21310
880.351	21424
880.478	21401
880.605	21268
880.732	21188
880.859	21496
880.986	21218
881.112	21287
881.239	21173
881.366	21108
881.493	20944
881.619	20765
881.746	20925
881.872	20963
881.999	20842
882.125	20842
882.252	20982
882.378	20864
882.505	21150
882.631	20830
882.757	20644
882.883	20727
883.01	20667
883.136	20530
883.262	20522
883.388	20484
883.514	20682
883.64	20724
883.766	20629
883.892	20343
884.018	20404
884.143	20583
884.269	20560
884.395	20214
884.52	20233
884.646	20317
884.772	20138
884.897	20168
885.023	20370
885.148	20385
885.274	20427
885.399	20374
885.524	20282
885.65	20267
885.775	20263
885.9	20221
886.025	20294
886.15	20317
886.275	20237
886.4	20130
886.525	20290
886.65	20092
886.775	20282
886.9	20374
887.025	20461
887.149	20153
887.274	19978
887.399	20142
887.523	20073
887.648	20077
887.773	19993
887.897	20092
888.021	20016
888.146	19902
888.27	20206
888.395	20263
888.519	20115
888.643	20001
888.767	20115
888.891	20103
889.015	19986
889.139	19913
889.263	19913
889.387	20043
889.511	20142
889.635	20024
889.759	19746
889.883	19849
890.006	19879
890.13	20005
890.254	19780
890.377	19852
890.501	19647
890.624	19601
890.748	19578
890.871	19510
890.995	19441
891.118	19392
891.241	19552
891.364	19464
891.488	19533
891.611	19407
891.734	19563
891.857	19540
891.98	19525
892.103	19552
892.226	19464
892.349	19365
892.471	19316
892.594	19495
892.717	19499
892.839	19419
892.962	19381
893.085	19384
893.207	19476
893.33	19278
893.452	19289
893.575	19491
893.697	19388
893.819	19422
893.941	19502
894.064	19491
894.186	19327
894.308	19194
894.43	19514
894.552	19567
894.674	19384
894.796	19255
894.918	19221
895.04	19426
895.161	19514
895.283	19415
895.405	19301
895.526	19411
895.648	19400
895.769	19472
895.891	19499
896.012	19419
896.134	19506
896.255	19335
896.376	19343
896.498	19434
896.619	19354
896.74	19415
896.861	19548
896.982	19731
897.103	19818
897.224	19658
897.345	19441
897.466	19651
897.587	19666
897.708	19799
897.828	19712
897.949	19563
898.07	19544
898.19	19495
898.311	19677
898.431	19582
898.552	19571
898.672	19662
898.792	19635
898.913	19567
899.033	19533
899.153	19415
899.273	19354
899.393	19430
899.513	19316
899.633	19365
899.753	19426
899.873	19346
899.993	19480
900.113	19400
900.232	19377
900.352	19396
900.472	19069
900.591	19209
900.711	19164
900.83	19076
900.95	19331
901.069	19168
901.189	19061
901.308	18837
901.427	18772
901.546	18825
901.665	18810
901.784	18791
901.904	18658
902.023	18509
902.141	18376
902.26	18224
902.379	18395
902.498	18270
902.617	18224
902.735	18391
902.854	18270
902.973	18152
903.091	18007
903.21	17927
903.328	17893
903.446	17809
903.565	17733
903.683	17863
903.801	17687
903.919	17699
904.038	17786
904.156	17501
904.274	17653
904.392	17547
904.51	17433
904.627	17486
904.745	17680
904.863	17596
904.981	17349
905.098	17166
905.216	17269
905.334	17334
905.451	17273
905.569	17204
905.686	17261
905.803	17364
905.921	16961
906.038	17200
906.155	17128
906.272	16953
906.389	16877
906.506	16790
906.623	16782
906.74	16759
906.857	16645
906.974	16622
907.091	16824
907.208	16942
907.324	16869
907.441	16698
907.557	16474
907.674	16565
907.79	16466
907.907	16432
908.023	16485
908.139	16580
908.256	16382
908.372	16310
908.488	16398
908.604	16291
908.72	16211
908.836	16337
908.952	16246
909.068	16196
909.184	16284
909.3	16196
909.415	16181
909.531	16181
909.647	15979
909.762	15968
909.878	15884
909.993	15941
910.108	15865
910.224	15918
910.339	15850
910.454	15728
910.57	15808
910.685	15629
910.8	15934
910.915	15850
911.03	15694
911.145	15526
911.259	15580
911.374	15564
911.489	15386
911.604	15488
911.718	15302
911.833	15420
911.947	15199
912.062	14994
912.176	15184
912.291	15245
912.405	15264
912.519	15477
912.633	15450
912.748	15340
912.862	15184
912.976	15157
913.09	14925
913.204	14994
913.318	15176
913.431	15192
913.545	15112
913.659	15302
913.772	15104
913.886	15028
914	14899
914.113	14948
914.226	14986
914.34	14994
914.453	14819
914.566	14948
914.68	14792
914.793	14716
914.906	14575
915.019	14587
915.132	14568
915.245	14533
915.358	14640
915.47	14503
915.583	14613
915.696	14499
915.809	14670
915.921	14613
916.034	14454
916.146	14446
916.259	14431
916.371	14571
916.483	14560
916.595	14343
916.708	14339
916.82	14374
916.932	14206
917.044	14385
917.156	14343
917.268	14134
917.38	14187
917.491	14142
917.603	14202
917.715	14298
917.826	14248
917.938	14176
918.049	14081
918.161	14180
918.272	14358
918.384	14286
918.495	14149
918.606	14081
918.717	13902
918.828	14005
918.939	13989
919.05	13936
919.161	13883
919.272	13845
919.383	13769
919.494	13989
919.604	14142
919.715	13974
919.826	13898
919.936	13993
920.047	13932
920.157	14001
920.267	14123
920.378	13978
920.488	13830
920.598	14229
920.708	14199
920.818	14088
920.928	14157
921.038	14210
921.148	14180
921.258	13936
921.368	13826
921.477	13803
921.587	13715
921.697	13537
921.806	13738
921.916	13510
922.025	13449
922.134	13365
922.244	13282
922.353	13373
922.462	13202
922.571	13236
922.68	13031
922.789	12989
922.898	13034
923.007	12966
923.116	12928
923.224	12993
923.333	13004
923.442	12916
923.55	12867
923.659	12882
923.767	12947
923.876	12871
923.984	12837
924.092	12749
924.201	12856
924.309	12722
924.417	12795
924.525	12741
924.633	12711
924.741	13480
924.849	12483
924.956	12593
925.064	12525
925.172	12414
925.279	12467
925.387	12559
925.494	12471
925.602	12578
925.709	12517
925.816	12353
925.924	12422
926.031	12395
926.138	12327
926.245	12464
926.352	12369
926.459	12441
926.566	12509
926.673	12426
926.779	12273
926.886	12243
926.993	12064
927.099	12034
927.206	12011
927.312	11988
927.419	12068
927.525	12026
927.631	12079
927.737	11977
927.843	11851
927.95	11733
928.056	11897
928.162	11866
928.267	11863
928.373	12559
928.479	11939
928.585	11729
928.69	11790
928.796	11878
928.901	11809
929.007	11615
929.112	11748
929.218	11752
929.323	11630
929.428	11615
929.533	11756
929.638	11573
929.743	11611
929.848	11634
929.953	11509
930.058	11505
930.163	11379
930.267	11269
930.372	11395
930.477	11250
930.581	11512
930.685	11433
930.79	11227
930.894	11220
930.998	11151
931.103	11258
931.207	10927
931.311	10866
931.415	10801
931.519	10603
931.623	10618
