Data from test_V78500241_2514.txt Node
Date: Fri Mar 25 15:27:21 CST 2022
User: usil
Spectrometer: V785-0024
Trigger mode: 0
Integration Time (sec): 4.000000E-1
Scans to average: 1
Nonlinearity correction enabled: false
Boxcar width: 0
Storing dark spectrum: false
XAxis mode: Wavelengths
Number of Pixels in Spectrum: 1024
>>>>>Begin Spectral Data<<<<<
801.071	27146
801.214	27051
801.356	26826
801.499	26868
801.641	26708
801.783	26511
801.926	26716
802.068	26602
802.211	26575
802.353	26438
802.496	26305
802.638	26214
802.78	26286
802.923	26343
803.065	26252
803.208	26187
803.35	26317
803.492	26484
803.635	26370
803.777	26355
803.919	26351
804.061	26762
804.204	26571
804.346	26442
804.488	26362
804.63	26332
804.773	26298
804.915	26514
805.057	26594
805.199	26305
805.341	26526
805.483	26537
805.626	26469
805.768	26317
805.91	26564
806.052	26560
806.194	26442
806.336	26708
806.478	26568
806.62	26461
806.762	26537
806.904	26773
807.046	26929
807.188	26921
807.33	27047
807.472	26956
807.614	26895
807.756	26872
807.898	26762
808.04	26708
808.182	26735
808.324	26807
808.465	26807
808.607	26986
808.749	27066
808.891	27214
809.033	27256
809.174	27192
809.316	26963
809.458	27024
809.6	27058
809.741	27150
809.883	27272
810.025	27401
810.166	27363
810.308	27435
810.45	27268
810.591	27416
810.733	27150
810.875	27066
811.016	26986
811.158	27123
811.299	27211
811.441	27298
811.582	27211
811.724	27268
811.865	26967
812.007	27096
812.148	27009
812.29	27146
812.431	27275
812.573	27348
812.714	27504
812.855	27488
812.997	27667
813.138	27941
813.279	27793
813.421	27530
813.562	27401
813.703	27340
813.845	27173
813.986	27169
814.127	26777
814.268	26792
814.41	26781
814.551	26746
814.692	26750
814.833	26743
814.974	26632
815.115	26967
815.256	26621
815.397	26644
815.539	26552
815.68	26453
815.821	26442
815.962	26453
816.103	26412
816.244	26389
816.385	26290
816.526	26290
816.666	26218
816.807	26122
816.948	26073
817.089	26054
817.23	26008
817.371	26084
817.512	25879
817.653	25982
817.793	25902
817.934	26027
818.075	26084
818.216	25993
818.356	26027
818.497	25955
818.638	25647
818.778	25742
818.919	25708
819.06	25788
819.2	25864
819.341	26050
819.481	25959
819.622	26126
819.762	26324
819.903	26138
820.043	26225
820.184	25887
820.324	26161
820.465	26096
820.605	26233
820.746	26043
820.886	25879
821.026	25955
821.167	25986
821.307	26191
821.447	26027
821.588	25902
821.728	25727
821.868	25601
822.008	25540
822.149	25582
822.289	25518
822.429	25164
822.569	25156
822.709	25225
822.849	24977
822.99	25084
823.13	24928
823.27	24897
823.41	24844
823.55	24749
823.69	24764
823.83	24749
823.97	24658
824.11	24578
824.25	24525
824.389	24582
824.529	24616
824.669	24650
824.809	24677
824.949	24654
825.089	24730
825.228	24722
825.368	24555
825.508	24532
825.648	24498
825.787	24585
825.927	24536
826.067	24361
826.206	24563
826.346	24570
826.485	24551
826.625	24395
826.765	24616
826.904	24642
827.044	24323
827.183	24372
827.323	24270
827.462	24273
827.601	24311
827.741	24125
827.88	24057
828.02	24041
828.159	24144
828.298	24190
828.437	24311
828.577	24087
828.716	24251
828.855	24155
828.994	23889
829.134	23904
829.273	23920
829.412	23954
829.551	23824
829.69	23999
829.829	23935
829.968	23912
830.107	23977
830.246	23950
830.385	24057
830.524	23722
830.663	23832
830.802	23520
830.941	23512
831.08	23509
831.219	23600
831.357	23665
831.496	23668
831.635	23577
831.774	23486
831.913	23429
832.051	23425
832.19	23273
832.329	23280
832.467	23155
832.606	23151
832.744	23113
832.883	23178
833.022	23155
833.16	23151
833.299	23212
833.437	23181
833.576	23254
833.714	23322
833.852	23334
833.991	23337
834.129	23265
834.267	23410
834.406	23254
834.544	23414
834.682	23318
834.821	23273
834.959	23372
835.097	23299
835.235	23376
835.373	23360
835.511	23178
835.65	23147
835.788	23200
835.926	22991
836.064	22881
836.202	22972
836.34	23098
836.478	23193
836.615	23014
836.753	23231
836.891	23162
837.029	23216
837.167	23086
837.305	23041
837.443	22953
837.58	23079
837.718	22984
837.856	22957
837.993	22881
838.131	23075
838.269	22927
838.406	22858
838.544	22786
838.681	22721
838.819	22626
838.956	22527
839.094	22443
839.231	22546
839.369	22626
839.506	22854
839.643	22702
839.781	22424
839.918	22478
840.055	22371
840.193	22474
840.33	22398
840.467	22516
840.604	22462
840.742	22774
840.879	22268
841.016	22375
841.153	22272
841.29	22592
841.427	22405
841.564	22306
841.701	22318
841.838	22440
841.975	22295
842.112	22310
842.249	22325
842.385	22291
842.522	22417
842.659	22322
842.796	22276
842.933	22181
843.069	22230
843.206	22013
843.343	22169
843.479	22131
843.616	22200
843.752	21949
843.889	22017
844.025	22230
844.162	22025
844.298	22044
844.435	21895
844.571	21953
844.708	21975
844.844	22082
844.98	22086
845.117	22105
845.253	21945
845.389	21774
845.525	21869
845.661	21869
845.798	21610
845.934	21675
846.07	21671
846.206	21766
846.342	21709
846.478	21603
846.614	21439
846.75	21511
846.886	21412
847.022	21515
847.158	21454
847.294	21443
847.429	21428
847.565	21386
847.701	21603
847.837	21085
847.972	21214
848.108	21165
848.244	21222
848.379	21017
848.515	20937
848.65	20979
848.786	21074
848.921	21001
849.057	21116
849.192	21135
849.328	20944
849.463	21013
849.598	20895
849.734	20918
849.869	20811
850.004	20640
850.14	20823
850.275	20804
850.41	20788
850.545	20762
850.68	20651
850.815	20876
850.95	20735
851.085	21036
851.22	20891
851.355	20788
851.49	20697
851.625	20708
851.76	20796
851.895	20777
852.03	20712
852.165	20788
852.299	20800
852.434	20800
852.569	20804
852.703	20883
852.838	20800
852.973	20819
853.107	20944
853.242	20689
853.376	20568
853.511	20473
853.645	20583
853.78	20720
853.914	20575
854.048	20632
854.183	20556
854.317	20533
854.451	20750
854.585	20606
854.72	20530
854.854	20621
854.988	20579
855.122	20609
855.256	20590
855.39	20602
855.524	20682
855.658	20568
855.792	20568
855.926	20556
856.06	20571
856.194	20727
856.327	20613
856.461	20522
856.595	20476
856.729	20598
856.862	20636
856.996	20564
857.13	20560
857.263	20693
857.397	20678
857.53	20541
857.664	20625
857.797	20678
857.931	20594
858.064	20632
858.197	20716
858.331	20712
858.464	20511
858.597	20419
858.731	20537
858.864	20564
858.997	20549
859.13	20655
859.263	20701
859.396	20701
859.529	20549
859.662	20606
859.795	20575
859.928	20613
860.061	20792
860.194	20762
860.327	20621
860.46	20735
860.592	20743
860.725	20632
860.858	20659
860.99	20731
861.123	20488
861.256	20514
861.388	20617
861.521	21142
861.653	20526
861.786	20419
861.918	20396
862.05	20564
862.183	20503
862.315	20590
862.447	20549
862.58	20556
862.712	20317
862.844	20336
862.976	20461
863.108	20400
863.24	20743
863.372	20278
863.504	20336
863.636	20358
863.768	20396
863.9	20244
864.032	20240
864.164	20275
864.296	20358
864.428	20457
864.559	20313
864.691	20324
864.823	20298
864.954	20396
865.086	20237
865.217	20183
865.349	20149
865.48	20225
865.612	20320
865.743	20389
865.875	20168
866.006	20195
866.137	20214
866.269	20134
866.4	20168
866.531	20180
866.662	20088
866.793	20092
866.924	20111
867.055	20111
867.186	20069
867.317	20119
867.448	20050
867.579	20248
867.71	20077
867.841	20149
867.972	20126
868.103	20069
868.233	20142
868.364	20138
868.495	20214
868.625	20377
868.756	20469
868.886	20374
869.017	20415
869.147	20613
869.278	20537
869.408	20499
869.539	20381
869.669	20377
869.799	20434
869.929	20564
870.06	20625
870.19	20727
870.32	20644
870.45	20754
870.58	20746
870.71	20929
870.84	20906
870.97	20758
871.1	20819
871.23	21009
871.36	21005
871.489	20925
871.619	21051
871.749	20925
871.879	21028
872.008	21173
872.138	21146
872.267	20960
872.397	20845
872.526	20796
872.656	20910
872.785	20902
872.915	21085
873.044	21112
873.173	21096
873.303	21001
873.432	21146
873.561	21047
873.69	20967
873.819	21024
873.948	21161
874.077	21028
874.206	20933
874.335	21081
874.464	21123
874.593	21332
874.722	21173
874.851	21340
874.979	21287
875.108	21279
875.237	21146
875.365	21169
875.494	21195
875.623	21313
875.751	21207
875.88	21306
876.008	21420
876.136	21435
876.265	21717
876.393	21861
876.521	21717
876.65	21751
876.778	21755
876.906	21720
877.034	21701
877.162	21675
877.29	21515
877.418	21739
877.546	21591
877.674	21656
877.802	21591
877.93	21656
878.058	21473
878.185	21504
878.313	21587
878.441	21572
878.568	21511
878.696	21583
878.824	21671
878.951	21591
879.079	21793
879.206	21823
879.333	21736
879.461	21694
879.588	21675
879.715	21846
879.842	21804
879.97	21732
880.097	21412
880.224	21500
880.351	21454
880.478	21485
880.605	21405
880.732	21485
880.859	21755
880.986	21401
881.112	21477
881.239	21386
881.366	21188
881.493	21020
881.619	21085
881.746	21112
881.872	21009
881.999	20990
882.125	20979
882.252	20933
882.378	20986
882.505	21074
882.631	20910
882.757	20731
882.883	20842
883.01	20769
883.136	20682
883.262	20659
883.388	20598
883.514	20769
883.64	20777
883.766	20724
883.892	20507
884.018	20530
884.143	20811
884.269	20830
884.395	20492
884.52	20385
884.646	20339
884.772	20396
884.897	20256
885.023	20374
885.148	20438
885.274	20598
885.399	20545
885.524	20313
885.65	20469
885.775	20434
885.9	20385
886.025	20465
886.15	20393
886.275	20374
886.4	20305
886.525	20423
886.65	20336
886.775	20263
886.9	20450
887.025	20511
887.149	20248
887.274	20210
887.399	20103
887.523	20332
887.648	20126
887.773	20157
887.897	20309
888.021	20058
888.146	20142
888.27	20339
888.395	20271
888.519	20229
888.643	20233
888.767	20122
888.891	20027
889.015	19909
889.139	20016
889.263	20058
889.387	20084
889.511	20244
889.635	19997
889.759	20035
889.883	19982
890.006	19978
890.13	19932
890.254	19826
890.377	19898
890.501	19712
890.624	19639
890.748	19715
890.871	19518
890.995	19563
891.118	19628
891.241	19616
891.364	19552
891.488	19586
891.611	19590
891.734	19647
891.857	19483
891.98	19499
892.103	19594
892.226	19575
892.349	19552
892.471	19392
892.594	19392
892.717	19521
892.839	19453
892.962	19506
893.085	19510
893.207	19415
893.33	19331
893.452	19407
893.575	19628
893.697	19407
893.819	19590
893.941	19655
894.064	19616
894.186	19434
894.308	19346
894.43	19514
894.552	19757
894.674	19590
894.796	19373
894.918	19476
895.04	19392
895.161	19518
895.283	19518
895.405	19453
895.526	19499
895.648	19358
895.769	19632
895.891	19506
896.012	19635
896.134	19521
896.255	19499
896.376	19400
896.498	19491
896.619	19529
896.74	19457
896.861	19556
896.982	19906
897.103	19986
897.224	19780
897.345	19750
897.466	19605
897.587	19609
897.708	19772
897.828	19811
897.949	19677
898.07	19590
898.19	19700
898.311	19841
898.431	19723
898.552	19651
898.672	19883
898.792	19738
898.913	19753
899.033	19590
899.153	19495
899.273	19453
899.393	19563
899.513	19552
899.633	19518
899.753	19510
899.873	19495
899.993	19453
900.113	19453
900.232	19483
900.352	19392
900.472	19381
900.591	19244
900.711	19232
900.83	19217
900.95	19400
901.069	19407
901.189	19240
901.308	18863
901.427	18817
901.546	18973
901.665	18852
901.784	18928
901.904	18760
902.023	18563
902.141	18479
902.26	18319
902.379	18506
902.498	18448
902.617	18353
902.735	18525
902.854	18228
902.973	18235
903.091	18026
903.21	18148
903.328	18049
903.446	18034
903.565	17870
903.683	17977
903.801	17897
903.919	17863
904.038	17779
904.156	17672
904.274	17691
904.392	17630
904.51	17623
904.627	17596
904.745	17653
904.863	17756
904.981	17383
905.098	17326
905.216	17330
905.334	17398
905.451	17322
905.569	17242
905.686	17379
905.803	17395
905.921	17052
906.038	17140
906.155	17075
906.272	16987
906.389	17094
906.506	16904
906.623	16911
906.74	16752
906.857	16713
906.974	16748
907.091	16908
907.208	16991
907.324	16957
907.441	16603
907.557	16603
907.674	16645
907.79	16489
907.907	16497
908.023	16599
908.139	16558
908.256	16500
908.372	16421
908.488	16363
908.604	16341
908.72	16261
908.836	16310
908.952	16284
909.068	16242
909.184	16447
909.3	16303
909.415	16360
909.531	16306
909.647	16063
909.762	16055
909.878	16032
909.993	16006
910.108	16006
910.224	15930
910.339	15926
910.454	15819
910.57	15781
910.685	15759
910.8	15983
910.915	16063
911.03	15823
911.145	15622
911.259	15606
911.374	15595
911.489	15618
911.604	15481
911.718	15389
911.833	15412
911.947	15397
912.062	15363
912.176	15462
912.291	15397
912.405	15511
912.519	15614
912.633	15622
912.748	15496
912.862	15401
912.976	15249
913.09	15097
913.204	15199
913.318	15207
913.431	15367
913.545	15218
913.659	15268
913.772	15173
913.886	15020
914	15047
914.113	14975
914.226	15108
914.34	14998
914.453	14910
914.566	15028
914.68	14887
914.793	14834
914.906	14697
915.019	14537
915.132	14636
915.245	14720
915.358	14602
915.47	14655
915.583	14686
915.696	14560
915.809	14720
915.921	14849
916.034	14670
916.146	14465
916.259	14419
916.371	14629
916.483	14632
916.595	14389
916.708	14389
916.82	14465
916.932	14423
917.044	14434
917.156	14389
917.268	14263
917.38	14343
917.491	14233
917.603	14294
917.715	14244
917.826	14393
917.938	14210
918.049	14058
918.161	14161
918.272	14332
918.384	14343
918.495	14240
918.606	14084
918.717	13986
918.828	13978
918.939	14084
919.05	13982
919.161	13974
919.272	13742
919.383	13909
919.494	14123
919.604	14267
919.715	14035
919.826	14024
919.936	13936
920.047	13982
920.157	14123
920.267	14240
920.378	14115
920.488	13967
920.598	14168
920.708	14317
920.818	14107
920.928	14111
921.038	14347
921.148	14313
921.258	13967
921.368	13913
921.477	13765
921.587	13700
921.697	13624
921.806	13784
921.916	13616
922.025	13400
922.134	13472
922.244	13434
922.353	13460
922.462	13369
922.571	13232
922.68	13198
922.789	13076
922.898	13076
923.007	13057
923.116	13053
923.224	13065
923.333	13095
923.442	12939
923.55	12920
923.659	12909
923.767	12993
923.876	12817
923.984	12916
924.092	12856
924.201	12848
924.309	12779
924.417	12829
924.525	12688
924.633	12814
924.741	13628
924.849	12601
924.956	12654
925.064	12517
925.172	12426
925.279	12525
925.387	12521
925.494	12464
925.602	12582
925.709	12597
925.816	12407
925.924	12490
926.031	12635
926.138	12471
926.245	12544
926.352	12460
926.459	12517
926.566	12506
926.673	12399
926.779	12270
926.886	12266
926.993	12121
927.099	12106
927.206	12049
927.312	12022
927.419	12117
927.525	12152
927.631	12136
927.737	11988
927.843	11931
927.95	11866
928.056	11916
928.162	11901
928.267	11916
928.373	12551
928.479	11969
928.585	11859
928.69	11977
928.796	11897
928.901	11775
929.007	11600
929.112	11798
929.218	11676
929.323	11642
929.428	11657
929.533	11802
929.638	11600
929.743	11532
929.848	11672
929.953	11623
930.058	11482
930.163	11292
930.267	11436
930.372	11402
930.477	11356
930.581	11661
930.685	11345
930.79	11265
930.894	11311
930.998	11159
931.103	11296
931.207	11010
931.311	10961
931.415	10771
931.519	10660
931.623	10615
