Data from test_V78500241_1416.txt Node
Date: Fri Mar 25 15:19:43 CST 2022
User: usil
Spectrometer: V785-0024
Trigger mode: 0
Integration Time (sec): 4.000000E-1
Scans to average: 1
Nonlinearity correction enabled: false
Boxcar width: 0
Storing dark spectrum: false
XAxis mode: Wavelengths
Number of Pixels in Spectrum: 1024
>>>>>Begin Spectral Data<<<<<
801.071	28044
801.214	28059
801.356	27774
801.499	27660
801.641	27618
801.783	27739
801.926	27686
802.068	27838
802.211	27519
802.353	27481
802.496	27367
802.638	27367
802.78	27245
802.923	27279
803.065	27112
803.208	27302
803.35	27226
803.492	27504
803.635	27500
803.777	27431
803.919	27466
804.061	27831
804.204	27469
804.346	27538
804.488	27519
804.63	27439
804.773	27336
804.915	27523
805.057	27545
805.199	27485
805.341	27644
805.483	27637
805.626	27717
805.768	27454
805.91	27553
806.052	27622
806.194	27591
806.336	27831
806.478	27797
806.62	27599
806.762	27937
806.904	27869
807.046	28147
807.188	28044
807.33	28139
807.472	28192
807.614	28006
807.756	28086
807.898	27819
808.04	28112
808.182	27812
808.324	28032
808.465	27968
808.607	28169
808.749	28223
808.891	28314
809.033	28512
809.174	28440
809.316	28196
809.458	28314
809.6	28242
809.741	28500
809.883	28333
810.025	28687
810.166	28634
810.308	28497
810.45	28386
810.591	28409
810.733	28348
810.875	28375
811.016	28219
811.158	28158
811.299	28360
811.441	28462
811.582	28500
811.724	28272
811.865	28246
812.007	28344
812.148	28306
812.29	28352
812.431	28424
812.573	28706
812.714	28733
812.855	28930
812.997	28923
813.138	29181
813.279	28972
813.421	28923
813.562	28900
813.703	28615
813.845	28519
813.986	28177
814.127	28116
814.268	28116
814.41	28025
814.551	28051
814.692	28116
814.833	27926
814.974	28036
815.115	28055
815.256	27812
815.397	27762
815.539	27823
815.68	27850
815.821	27667
815.962	27797
816.103	27766
816.244	27694
816.385	27534
816.526	27587
816.666	27454
816.807	27291
816.948	27405
817.089	27462
817.23	27393
817.371	27268
817.512	27294
817.653	27241
817.793	27150
817.934	27264
818.075	27294
818.216	27325
818.356	27237
818.497	27226
818.638	26979
818.778	27028
818.919	27055
819.06	27119
819.2	27389
819.341	27218
819.481	27313
819.622	27473
819.762	27637
819.903	27561
820.043	27439
820.184	27466
820.324	27370
820.465	27469
820.605	27344
820.746	27298
820.886	27245
821.026	27340
821.167	27367
821.307	27355
821.447	27214
821.588	27173
821.728	27055
821.868	26937
822.008	26739
822.149	26613
822.289	26773
822.429	26537
822.569	26324
822.709	26404
822.849	26183
822.99	26180
823.13	26164
823.27	26218
823.41	26077
823.55	26020
823.69	26122
823.83	26073
823.97	25940
824.11	25852
824.25	25765
824.389	25898
824.529	25974
824.669	26001
824.809	26043
824.949	25978
825.089	25902
825.228	25966
825.368	25719
825.508	25746
825.648	25761
825.787	25750
825.927	25856
826.067	25731
826.206	25681
826.346	25757
826.485	25860
826.625	25799
826.765	25894
826.904	25795
827.044	25567
827.183	25537
827.323	25301
827.462	25518
827.601	25377
827.741	25411
827.88	25411
828.02	25369
828.159	25594
828.298	25453
828.437	25548
828.577	25381
828.716	25441
828.855	25415
828.994	25190
829.134	25137
829.273	25160
829.412	25137
829.551	25156
829.69	25126
829.829	25187
829.968	25217
830.107	25175
830.246	25084
830.385	25038
830.524	25122
830.663	25012
830.802	24970
830.941	24837
831.08	24749
831.219	24992
831.357	24886
831.496	25103
831.635	24711
831.774	24798
831.913	24608
832.051	24570
832.19	24563
832.329	24521
832.467	24521
832.606	24540
832.744	24395
832.883	24414
833.022	24410
833.16	24479
833.299	24517
833.437	24441
833.576	24616
833.714	24467
833.852	24525
833.991	24380
834.129	24532
834.267	24646
834.406	24532
834.544	24589
834.682	24597
834.821	24502
834.959	24700
835.097	24502
835.235	24631
835.373	24574
835.511	24426
835.65	24235
835.788	24285
835.926	24220
836.064	24129
836.202	24129
836.34	24281
836.478	24361
836.615	24262
836.753	24266
836.891	24467
837.029	24426
837.167	24258
837.305	24251
837.443	24308
837.58	24182
837.718	24239
837.856	24136
837.993	24098
838.131	24171
838.269	24083
838.406	24098
838.544	23901
838.681	23737
838.819	23760
838.956	23630
839.094	23680
839.231	23657
839.369	23824
839.506	23954
839.643	23695
839.781	23668
839.918	23630
840.055	23760
840.193	23653
840.33	23509
840.467	23619
840.604	23535
840.742	23809
840.879	23368
841.016	23471
841.153	23604
841.29	23619
841.427	23562
841.564	23524
841.701	23505
841.838	23417
841.975	23406
842.112	23318
842.249	23299
842.385	23322
842.522	23383
842.659	23425
842.796	23410
842.933	23387
843.069	23318
843.206	23337
843.343	23406
843.479	23200
843.616	23273
843.752	23124
843.889	23098
844.025	23170
844.162	23117
844.298	23136
844.435	23090
844.571	23090
844.708	23162
844.844	23204
844.98	23162
845.117	23151
845.253	22995
845.389	22976
845.525	23041
845.661	22858
845.798	22759
845.934	22782
846.07	22892
846.206	22801
846.342	22942
846.478	22774
846.614	22535
846.75	22428
846.886	22626
847.022	22656
847.158	22596
847.294	22538
847.429	22603
847.565	22478
847.701	22717
847.837	22192
847.972	22268
848.108	22303
848.244	22204
848.379	22234
848.515	22082
848.65	22181
848.786	22105
848.921	22059
849.057	22299
849.192	22139
849.328	22063
849.463	22158
849.598	22025
849.734	22048
849.869	21975
850.004	21934
850.14	21903
850.275	21945
850.41	21899
850.545	21831
850.68	21827
850.815	21800
850.95	21953
851.085	22082
851.22	22029
851.355	21781
851.49	21838
851.625	21778
851.76	22013
851.895	21850
852.03	21770
852.165	21949
852.299	21842
852.434	21937
852.569	21857
852.703	21755
852.838	21865
852.973	21934
853.107	21888
853.242	21846
853.376	21675
853.511	21454
853.645	21694
853.78	21774
853.914	21759
854.048	21736
854.183	21648
854.317	21736
854.451	21838
854.585	21618
854.72	21728
854.854	21675
854.988	21682
855.122	21625
855.256	21530
855.39	21587
855.524	21736
855.658	21800
855.792	21705
855.926	21679
856.06	21717
856.194	21762
856.327	21808
856.461	21686
856.595	21694
856.729	21720
856.862	21720
856.996	21667
857.13	21892
857.263	21637
857.397	21747
857.53	21701
857.664	21663
857.797	21793
857.931	21781
858.064	21743
858.197	21850
858.331	21671
858.464	21580
858.597	21591
858.731	21625
858.864	21671
858.997	21667
859.13	21572
859.263	21633
859.396	21869
859.529	21686
859.662	21637
859.795	21720
859.928	21724
860.061	21774
860.194	21812
860.327	21785
860.46	21660
860.592	21743
860.725	21854
860.858	21789
860.99	21667
861.123	21507
861.256	21606
861.388	21781
861.521	22185
861.653	21610
861.786	21485
861.918	21576
862.05	21549
862.183	21637
862.315	21637
862.447	21720
862.58	21515
862.712	21420
862.844	21252
862.976	21504
863.108	21477
863.24	21641
863.372	21317
863.504	21374
863.636	21359
863.768	21348
863.9	21416
864.032	21389
864.164	21344
864.296	21336
864.428	21538
864.559	21439
864.691	21492
864.823	21443
864.954	21348
865.086	21450
865.217	21294
865.349	21195
865.48	21325
865.612	21165
865.743	21386
865.875	21310
866.006	21252
866.137	21192
866.269	21237
866.4	21218
866.531	21302
866.662	21252
866.793	21127
866.924	21218
867.055	21173
867.186	21192
867.317	21222
867.448	21058
867.579	21287
867.71	21214
867.841	21066
867.972	21214
868.103	21294
868.233	21222
868.364	21070
868.495	21420
868.625	21447
868.756	21675
868.886	21370
869.017	21469
869.147	21595
869.278	21545
869.408	21473
869.539	21553
869.669	21466
869.799	21625
869.929	21515
870.06	21568
870.19	21671
870.32	21698
870.45	21728
870.58	21876
870.71	21915
870.84	21972
870.97	21922
871.1	21808
871.23	22055
871.36	22063
871.489	22025
871.619	21941
871.749	22093
871.879	21918
872.008	22177
872.138	22097
872.267	22006
872.397	21915
872.526	21831
872.656	21975
872.785	21816
872.915	22173
873.044	22173
873.173	22120
873.303	22078
873.432	22131
873.561	22116
873.69	22021
873.819	22192
873.948	22158
874.077	22166
874.206	21983
874.335	22021
874.464	22188
874.593	22310
874.722	22230
874.851	22314
874.979	22314
875.108	22379
875.237	22215
875.365	22078
875.494	22280
875.623	22360
875.751	22257
875.88	22325
876.008	22405
876.136	22474
876.265	22656
876.393	22858
876.521	22694
876.65	22725
876.778	22645
876.906	22577
877.034	22611
877.162	22824
877.29	22557
877.418	22618
877.546	22679
877.674	22755
877.802	22573
877.93	22660
878.058	22649
878.185	22618
878.313	22546
878.441	22683
878.568	22497
878.696	22618
878.824	22596
878.951	22763
879.079	22824
879.206	22934
879.333	22702
879.461	22618
879.588	22828
879.715	22923
879.842	22927
879.97	22645
880.097	22394
880.224	22386
880.351	22493
880.478	22459
880.605	22459
880.732	22440
880.859	22588
880.986	22405
881.112	22481
881.239	22356
881.366	22143
881.493	21975
881.619	22032
881.746	21960
881.872	22025
881.999	22048
882.125	21915
882.252	22097
882.378	22021
882.505	22070
882.631	21930
882.757	21690
882.883	21857
883.01	21671
883.136	21614
883.262	21652
883.388	21538
883.514	21804
883.64	21709
883.766	21641
883.892	21515
884.018	21534
884.143	21705
884.269	21724
884.395	21450
884.52	21294
884.646	21272
884.772	21313
884.897	21287
885.023	21329
885.148	21435
885.274	21454
885.399	21393
885.524	21374
885.65	21336
885.775	21351
885.9	21298
886.025	21526
886.15	21405
886.275	21249
886.4	21256
886.525	21256
886.65	21127
886.775	21112
886.9	21447
887.025	21526
887.149	21329
887.274	21116
887.399	21116
887.523	21104
887.648	20994
887.773	21127
887.897	21237
888.021	21169
888.146	21093
888.27	21214
888.395	21325
888.519	21165
888.643	21157
888.767	21146
888.891	20914
889.015	20868
889.139	21017
889.263	20971
889.387	21043
889.511	21142
889.635	21043
889.759	20918
889.883	20842
890.006	20910
890.13	20986
890.254	20834
890.377	20857
890.501	20716
890.624	20697
890.748	20720
890.871	20651
890.995	20503
891.118	20370
891.241	20606
891.364	20564
891.488	20590
891.611	20518
891.734	20507
891.857	20571
891.98	20564
892.103	20495
892.226	20473
892.349	20377
892.471	20298
892.594	20343
892.717	20446
892.839	20229
892.962	20389
893.085	20446
893.207	20480
893.33	20313
893.452	20267
893.575	20404
893.697	20282
893.819	20514
893.941	20511
894.064	20594
894.186	20381
894.308	20252
894.43	20423
894.552	20530
894.674	20442
894.796	20237
894.918	20317
895.04	20381
895.161	20465
895.283	20396
895.405	20214
895.526	20332
895.648	20309
895.769	20343
895.891	20454
896.012	20533
896.134	20317
896.255	20267
896.376	20301
896.498	20278
896.619	20412
896.74	20412
896.861	20423
896.982	20682
897.103	20857
897.224	20659
897.345	20575
897.466	20590
897.587	20621
897.708	20697
897.828	20625
897.949	20480
898.07	20370
898.19	20446
898.311	20686
898.431	20587
898.552	20617
898.672	20636
898.792	20575
898.913	20640
899.033	20484
899.153	20374
899.273	20351
899.393	20393
899.513	20438
899.633	20237
899.753	20438
899.873	20313
899.993	20324
900.113	20301
900.232	20294
900.352	20256
900.472	20187
900.591	20065
900.711	20005
900.83	20058
900.95	20199
901.069	20206
901.189	20001
901.308	19677
901.427	19670
901.546	19693
901.665	19632
901.784	19750
901.904	19552
902.023	19430
902.141	19225
902.26	19183
902.379	19270
902.498	19236
902.617	19084
902.735	19129
902.854	19247
902.973	19061
903.091	18909
903.21	18745
903.328	18821
903.446	18730
903.565	18787
903.683	18681
903.801	18646
903.919	18658
904.038	18669
904.156	18494
904.274	18490
904.392	18494
904.51	18311
904.627	18467
904.745	18570
904.863	18391
904.981	18262
905.098	18076
905.216	17999
905.334	18117
905.451	17992
905.569	18076
905.686	18117
905.803	18102
905.921	17916
906.038	17916
906.155	17904
906.272	17756
906.389	17783
906.506	17642
906.623	17687
906.74	17627
906.857	17509
906.974	17535
907.091	17699
907.208	17611
907.324	17592
907.441	17532
907.557	17330
907.674	17459
907.79	17360
907.907	17322
908.023	17356
908.139	17364
908.256	17379
908.372	17273
908.488	17178
908.604	17010
908.72	16999
908.836	17147
908.952	16965
909.068	17064
909.184	17048
909.3	17037
909.415	17048
909.531	17124
909.647	16824
909.762	16790
909.878	16835
909.993	16805
910.108	16733
910.224	16706
910.339	16694
910.454	16710
910.57	16584
910.685	16622
910.8	16843
910.915	16744
911.03	16527
911.145	16329
911.259	16348
911.374	16459
911.489	16204
911.604	16287
911.718	16116
911.833	16147
911.947	15979
912.062	15953
912.176	16200
912.291	16101
912.405	15960
912.519	16147
912.633	16356
912.748	16109
912.862	15960
912.976	15949
913.09	15743
913.204	15846
913.318	15972
913.431	16025
913.545	16010
913.659	16010
913.772	15911
913.886	15736
914	15747
914.113	15724
914.226	15880
914.34	15850
914.453	15656
914.566	15751
914.68	15580
914.793	15462
914.906	15351
915.019	15264
915.132	15230
915.245	15302
915.358	15401
915.47	15359
915.583	15317
915.696	15336
915.809	15367
915.921	15386
916.034	15176
916.146	15150
916.259	15165
916.371	15268
916.483	15199
916.595	15127
916.708	15161
916.82	15207
916.932	15116
917.044	15188
917.156	15062
917.268	14906
917.38	15017
917.491	14899
917.603	14956
917.715	14986
917.826	14998
917.938	14853
918.049	14788
918.161	14891
918.272	15093
918.384	15089
918.495	14933
918.606	14819
918.717	14636
918.828	14724
918.939	14800
919.05	14632
919.161	14773
919.272	14537
919.383	14575
919.494	14758
919.604	14906
919.715	14640
919.826	14560
919.936	14686
920.047	14701
920.157	14674
920.267	14857
920.378	14739
920.488	14583
920.598	14819
920.708	14971
920.818	14815
920.928	14765
921.038	14986
921.148	14899
921.258	14552
921.368	14457
921.477	14541
921.587	14336
921.697	14233
921.806	14450
921.916	14214
922.025	14092
922.134	14054
922.244	14005
922.353	14008
922.462	13917
922.571	13814
922.68	13662
922.789	13719
922.898	13734
923.007	13620
923.116	13651
923.224	13681
923.333	13677
923.442	13590
923.55	13480
923.659	13491
923.767	13571
923.876	13464
923.984	13518
924.092	13365
924.201	13552
924.309	13392
924.417	13426
924.525	13419
924.633	13396
924.741	14176
924.849	13145
924.956	13301
925.064	13160
925.172	13023
925.279	13069
925.387	13091
925.494	13141
925.602	13213
925.709	13179
925.816	13012
925.924	13107
926.031	13137
926.138	13034
926.245	13012
926.352	12947
926.459	13042
926.566	13217
926.673	12970
926.779	12878
926.886	12814
926.993	12677
927.099	12673
927.206	12700
927.312	12582
927.419	12646
927.525	12631
927.631	12719
927.737	12536
927.843	12506
927.95	12422
928.056	12471
928.162	12525
928.267	12532
928.373	13152
928.479	12582
928.585	12243
928.69	12384
928.796	12467
928.901	12319
929.007	12262
929.112	12315
929.218	12251
929.323	12243
929.428	12171
929.533	12395
929.638	12072
929.743	12114
929.848	12232
929.953	12148
930.058	12064
930.163	11889
930.267	11874
930.372	12030
930.477	11798
930.581	12060
930.685	11946
930.79	11779
930.894	11752
930.998	11726
931.103	11882
931.207	11509
931.311	11391
931.415	11330
931.519	11143
931.623	11121
