Data from test_V78500241_737.txt Node
Date: Fri Mar 25 15:14:59 CST 2022
User: usil
Spectrometer: V785-0024
Trigger mode: 0
Integration Time (sec): 4.000000E-1
Scans to average: 1
Nonlinearity correction enabled: false
Boxcar width: 0
Storing dark spectrum: false
XAxis mode: Wavelengths
Number of Pixels in Spectrum: 1024
>>>>>Begin Spectral Data<<<<<
801.071	27778
801.214	27747
801.356	27595
801.499	27511
801.641	27370
801.783	27412
801.926	27435
802.068	27359
802.211	27188
802.353	27298
802.496	27020
802.638	27093
802.78	27154
802.923	26979
803.065	26982
803.208	27024
803.35	27104
803.492	27096
803.635	27184
803.777	27047
803.919	27260
804.061	27469
804.204	27279
804.346	27374
804.488	27154
804.63	27264
804.773	27096
804.915	27165
805.057	27397
805.199	27211
805.341	27367
805.483	27359
805.626	27382
805.768	27233
805.91	27233
806.052	27313
806.194	27397
806.336	27603
806.478	27583
806.62	27405
806.762	27523
806.904	27568
807.046	27907
807.188	27907
807.33	27751
807.472	27865
807.614	27743
807.756	27713
807.898	27747
808.04	27580
808.182	27755
808.324	27618
808.465	27743
808.607	27728
808.749	27964
808.891	27964
809.033	28135
809.174	28070
809.316	28044
809.458	27968
809.6	27930
809.741	28200
809.883	28166
810.025	28322
810.166	28386
810.308	28272
810.45	28249
810.591	28375
810.733	28139
810.875	28135
811.016	27918
811.158	27892
811.299	28135
811.441	28063
811.582	28051
811.724	28086
811.865	27892
812.007	27960
812.148	27914
812.29	28067
812.431	28128
812.573	28322
812.714	28599
812.855	28725
812.997	28618
813.138	28786
813.279	28816
813.421	28592
813.562	28527
813.703	28451
813.845	28295
813.986	27934
814.127	27983
814.268	27770
814.41	27766
814.551	27743
814.692	27831
814.833	27732
814.974	27701
815.115	27629
815.256	27686
815.397	27667
815.539	27561
815.68	27466
815.821	27492
815.962	27393
816.103	27450
816.244	27317
816.385	27332
816.526	27336
816.666	27085
816.807	27013
816.948	27154
817.089	27188
817.23	27100
817.371	26994
817.512	26929
817.653	27017
817.793	26998
817.934	27036
818.075	26982
818.216	27017
818.356	26937
818.497	26899
818.638	26796
818.778	26796
818.919	26724
819.06	26849
819.2	26857
819.341	26921
819.481	27024
819.622	27150
819.762	27443
819.903	27325
820.043	27138
820.184	27195
820.324	27131
820.465	27256
820.605	27131
820.746	27142
820.886	27009
821.026	27131
821.167	27024
821.307	27173
821.447	27032
821.588	26876
821.728	26887
821.868	26712
822.008	26541
822.149	26541
822.289	26583
822.429	26278
822.569	26142
822.709	26172
822.849	26020
822.99	25978
823.13	26073
823.27	25879
823.41	25784
823.55	25700
823.69	25811
823.83	25799
823.97	25780
824.11	25537
824.25	25506
824.389	25502
824.529	25651
824.669	25616
824.809	25814
824.949	25613
825.089	25734
825.228	25693
825.368	25556
825.508	25506
825.648	25521
825.787	25563
825.927	25628
826.067	25518
826.206	25403
826.346	25464
826.485	25525
826.625	25400
826.765	25639
826.904	25609
827.044	25255
827.183	25183
827.323	25251
827.462	25278
827.601	25038
827.741	25278
827.88	25190
828.02	25053
828.159	25148
828.298	25266
828.437	25327
828.577	25072
828.716	25270
828.855	24928
828.994	25038
829.134	24954
829.273	25031
829.412	24787
829.551	24924
829.69	24916
829.829	24909
829.968	25107
830.107	24932
830.246	24894
830.385	24810
830.524	24669
830.663	24578
830.802	24601
830.941	24566
831.08	24574
831.219	24597
831.357	24608
831.496	24753
831.635	24532
831.774	24448
831.913	24391
832.051	24338
832.19	24330
832.329	24357
832.467	24178
832.606	24068
832.744	24171
832.883	24110
833.022	23996
833.16	24102
833.299	24216
833.437	24300
833.576	24266
833.714	24376
833.852	24346
833.991	24376
834.129	24311
834.267	24327
834.406	24079
834.544	24228
834.682	24289
834.821	24239
834.959	24467
835.097	24060
835.235	24407
835.373	24330
835.511	24266
835.65	24144
835.788	24064
835.926	23969
836.064	23859
836.202	23897
836.34	24152
836.478	24220
836.615	24133
836.753	23977
836.891	24114
837.029	24087
837.167	24003
837.305	23904
837.443	23946
837.58	23851
837.718	23996
837.856	23946
837.993	23843
838.131	23901
838.269	23756
838.406	23767
838.544	23661
838.681	23611
838.819	23417
838.956	23486
839.094	23429
839.231	23448
839.369	23448
839.506	23691
839.643	23665
839.781	23318
839.918	23204
840.055	23280
840.193	23402
840.33	23296
840.467	23292
840.604	23334
840.742	23585
840.879	23200
841.016	23147
841.153	23162
841.29	23345
841.427	23353
841.564	23387
841.701	23235
841.838	23197
841.975	23178
842.112	23220
842.249	22995
842.385	23014
842.522	23124
842.659	22957
842.796	23022
842.933	23052
843.069	23018
843.206	22850
843.343	23280
843.479	23094
843.616	23052
843.752	22839
843.889	22820
844.025	23018
844.162	22782
844.298	22919
844.435	22812
844.571	22733
844.708	22965
844.844	22881
844.98	22991
845.117	22847
845.253	22778
845.389	22687
845.525	22752
845.661	22675
845.798	22489
845.934	22588
846.07	22580
846.206	22656
846.342	22584
846.478	22569
846.614	22333
846.75	22173
846.886	22276
847.022	22325
847.158	22299
847.294	22322
847.429	22363
847.565	22325
847.701	22523
847.837	22067
847.972	22059
848.108	22074
848.244	22070
848.379	21892
848.515	21850
848.65	21857
848.786	21846
848.921	21991
849.057	22051
849.192	22059
849.328	21960
849.463	21857
849.598	21781
849.734	21797
849.869	21747
850.004	21625
850.14	21682
850.275	21698
850.41	21473
850.545	21572
850.68	21679
850.815	21660
850.95	21538
851.085	21835
851.22	21884
851.355	21644
851.49	21580
851.625	21618
851.76	21644
851.895	21557
852.03	21568
852.165	21557
852.299	21766
852.434	21675
852.569	21671
852.703	21732
852.838	21663
852.973	21759
853.107	21876
853.242	21572
853.376	21553
853.511	21359
853.645	21408
853.78	21576
853.914	21542
854.048	21428
854.183	21526
854.317	21431
854.451	21648
854.585	21492
854.72	21401
854.854	21511
854.988	21378
855.122	21355
855.256	21405
855.39	21412
855.524	21515
855.658	21412
855.792	21454
855.926	21504
856.06	21519
856.194	21545
856.327	21370
856.461	21344
856.595	21443
856.729	21374
856.862	21526
856.996	21458
857.13	21587
857.263	21485
857.397	21515
857.53	21428
857.664	21572
857.797	21435
857.931	21492
858.064	21416
858.197	21496
858.331	21485
858.464	21500
858.597	21401
858.731	21397
858.864	21450
858.997	21466
859.13	21523
859.263	21424
859.396	21500
859.529	21428
859.662	21340
859.795	21321
859.928	21504
860.061	21595
860.194	21549
860.327	21519
860.46	21397
860.592	21530
860.725	21466
860.858	21542
860.99	21507
861.123	21378
861.256	21389
861.388	21534
861.521	22200
861.653	21325
861.786	21336
861.918	21294
862.05	21325
862.183	21329
862.315	21302
862.447	21488
862.58	21447
862.712	21157
862.844	21146
862.976	21287
863.108	21199
863.24	21515
863.372	21180
863.504	21131
863.636	21127
863.768	21195
863.9	21264
864.032	20986
864.164	21112
864.296	21260
864.428	21268
864.559	21214
864.691	21313
864.823	21272
864.954	21142
865.086	21123
865.217	20944
865.349	20872
865.48	21028
865.612	21055
865.743	21093
865.875	21081
866.006	20986
866.137	21017
866.269	21032
866.4	21100
866.531	21005
866.662	20979
866.793	21005
866.924	20982
867.055	20979
867.186	21020
867.317	20944
867.448	20933
867.579	21001
867.71	20921
867.841	20887
867.972	21020
868.103	20963
868.233	20941
868.364	21104
868.495	21142
868.625	21161
868.756	21195
868.886	21222
869.017	21287
869.147	21496
869.278	21294
869.408	21256
869.539	21241
869.669	21268
869.799	21245
869.929	21447
870.06	21306
870.19	21587
870.32	21515
870.45	21526
870.58	21485
870.71	21694
870.84	21762
870.97	21625
871.1	21671
871.23	21778
871.36	21934
871.489	21732
871.619	21732
871.749	21838
871.879	21816
872.008	21888
872.138	21823
872.267	21766
872.397	21698
872.526	21667
872.656	21644
872.785	21644
872.915	21861
873.044	21949
873.173	21854
873.303	21816
873.432	21800
873.561	21895
873.69	21842
873.819	21804
873.948	21869
874.077	21899
874.206	21732
874.335	21869
874.464	21937
874.593	21991
874.722	22055
874.851	22067
874.979	22147
875.108	22036
875.237	21998
875.365	22078
875.494	22067
875.623	22154
875.751	21991
875.88	22029
876.008	22230
876.136	22291
876.265	22466
876.393	22634
876.521	22538
876.65	22497
876.778	22508
876.906	22363
877.034	22356
877.162	22398
877.29	22398
877.418	22424
877.546	22371
877.674	22478
877.802	22417
877.93	22356
878.058	22382
878.185	22215
878.313	22413
878.441	22474
878.568	22253
878.696	22344
878.824	22375
878.951	22516
879.079	22550
879.206	22733
879.333	22630
879.461	22466
879.588	22485
879.715	22569
879.842	22603
879.97	22421
880.097	22226
880.224	22192
880.351	22185
880.478	22169
880.605	22257
880.732	22211
880.859	22527
880.986	22200
881.112	22284
881.239	22025
881.366	21949
881.493	21968
881.619	21854
881.746	21804
881.872	21823
881.999	21759
882.125	21800
882.252	21850
882.378	21766
882.505	21926
882.631	21690
882.757	21500
882.883	21568
883.01	21557
883.136	21526
883.262	21355
883.388	21397
883.514	21515
883.64	21511
883.766	21367
883.892	21363
884.018	21199
884.143	21492
884.269	21370
884.395	21245
884.52	21077
884.646	21104
884.772	21058
884.897	21066
885.023	21180
885.148	21264
885.274	21321
885.399	21180
885.524	21222
885.65	21176
885.775	21089
885.9	21047
886.025	21199
886.15	21252
886.275	21116
886.4	21024
886.525	21226
886.65	21104
886.775	21089
886.9	21203
887.025	21310
887.149	21123
887.274	20853
887.399	20933
887.523	20883
887.648	20941
887.773	20735
887.897	20880
888.021	20815
888.146	20796
888.27	21047
888.395	21058
888.519	21001
888.643	20899
888.767	20975
888.891	20750
889.015	20682
889.139	20731
889.263	20651
889.387	20564
889.511	20941
889.635	20906
889.759	20804
889.883	20629
890.006	20697
890.13	20872
890.254	20678
890.377	20629
890.501	20526
890.624	20370
890.748	20552
890.871	20351
890.995	20164
891.118	20195
891.241	20267
891.364	20259
891.488	20377
891.611	20317
891.734	20183
891.857	20408
891.98	20294
892.103	20389
892.226	20286
892.349	20301
892.471	20107
892.594	20271
892.717	20237
892.839	20229
892.962	20248
893.085	20229
893.207	20092
893.33	20100
893.452	20119
893.575	20199
893.697	20271
893.819	20427
893.941	20362
894.064	20252
894.186	20168
894.308	20012
894.43	20202
894.552	20313
894.674	20119
894.796	19963
894.918	20164
895.04	20202
895.161	20214
895.283	20122
895.405	20115
895.526	20187
895.648	20088
895.769	20145
895.891	20157
896.012	20328
896.134	20202
896.255	20153
896.376	20138
896.498	20218
896.619	20195
896.74	20054
896.861	20187
896.982	20389
897.103	20636
897.224	20347
897.345	20317
897.466	20351
897.587	20442
897.708	20446
897.828	20396
897.949	20267
898.07	20157
898.19	20415
898.311	20621
898.431	20282
898.552	20366
898.672	20343
898.792	20499
898.913	20423
899.033	20278
899.153	20142
899.273	20149
899.393	19989
899.513	20103
899.633	20237
899.753	20199
899.873	20069
899.993	20172
900.113	20050
900.232	20077
900.352	20024
900.472	19989
900.591	19887
900.711	19997
900.83	19883
900.95	19947
901.069	19974
901.189	19837
901.308	19567
901.427	19514
901.546	19495
901.665	19521
901.784	19624
901.904	19285
902.023	19377
902.141	19198
902.26	19076
902.379	19206
902.498	19000
902.617	18939
902.735	19057
902.854	19042
902.973	18947
903.091	18658
903.21	18688
903.328	18692
903.446	18589
903.565	18608
903.683	18509
903.801	18467
903.919	18414
904.038	18384
904.156	18323
904.274	18243
904.392	18239
904.51	18201
904.627	18197
904.745	18323
904.863	18361
904.981	18110
905.098	18019
905.216	17878
905.334	17912
905.451	17973
905.569	17878
905.686	18030
905.803	17882
905.921	17687
906.038	17741
906.155	17653
906.272	17646
906.389	17691
906.506	17505
906.623	17444
906.74	17463
906.857	17395
906.974	17330
907.091	17512
907.208	17589
907.324	17512
907.441	17448
907.557	17193
907.674	17155
907.79	17147
907.907	17174
908.023	17178
908.139	17170
908.256	17174
908.372	17010
908.488	17094
908.604	16968
908.72	16927
908.836	16889
908.952	16934
909.068	16869
909.184	16915
909.3	16984
909.415	16980
909.531	16774
909.647	16622
909.762	16519
909.878	16558
909.993	16584
910.108	16470
910.224	16523
910.339	16535
910.454	16535
910.57	16402
910.685	16322
910.8	16641
910.915	16443
911.03	16348
911.145	16223
911.259	16162
911.374	16150
911.489	16078
911.604	15998
911.718	15892
911.833	15983
911.947	15797
912.062	15819
912.176	15903
912.291	15930
912.405	15842
912.519	16078
912.633	16139
912.748	16059
912.862	16029
912.976	15759
913.09	15599
913.204	15724
913.318	15797
913.431	15884
913.545	15892
913.659	15850
913.772	15717
913.886	15519
914	15625
914.113	15637
914.226	15713
914.34	15656
914.453	15439
914.566	15610
914.68	15401
914.793	15435
914.906	15249
915.019	15131
915.132	15161
915.245	15154
915.358	15226
915.47	15161
915.583	15161
915.696	15127
915.809	15173
915.921	15211
916.034	15024
916.146	15089
916.259	14994
916.371	15058
916.483	15024
916.595	14937
916.708	14948
916.82	14971
916.932	14948
917.044	15077
917.156	14967
917.268	14796
917.38	14830
917.491	14746
917.603	14735
917.715	14857
917.826	14982
917.938	14708
918.049	14575
918.161	14762
918.272	14857
918.384	14872
918.495	14754
918.606	14556
918.717	14492
918.828	14644
918.939	14674
919.05	14492
919.161	14537
919.272	14400
919.383	14454
919.494	14533
919.604	14811
919.715	14518
919.826	14488
919.936	14545
920.047	14579
920.157	14469
920.267	14765
920.378	14492
920.488	14488
920.598	14651
920.708	14857
920.818	14693
920.928	14594
921.038	14876
921.148	14746
921.258	14377
921.368	14377
921.477	14290
921.587	14202
921.697	14100
921.806	14393
921.916	14123
922.025	13997
922.134	14005
922.244	13833
922.353	13849
922.462	13841
922.571	13780
922.68	13533
922.789	13537
922.898	13616
923.007	13575
923.116	13586
923.224	13613
923.333	13480
923.442	13403
923.55	13312
923.659	13255
923.767	13362
923.876	13388
923.984	13415
924.092	13274
924.201	13308
924.309	13270
924.417	13312
924.525	13285
924.633	13137
924.741	13875
924.849	13000
924.956	13095
925.064	12962
925.172	12882
925.279	12954
925.387	12981
925.494	13015
925.602	13129
925.709	12966
925.816	12928
925.924	12966
926.031	12932
926.138	12875
926.245	12905
926.352	12772
926.459	12905
926.566	12951
926.673	12916
926.779	12688
926.886	12627
926.993	12593
927.099	12593
927.206	12479
927.312	12426
927.419	12627
927.525	12441
927.631	12578
927.737	12437
927.843	12361
927.95	12315
928.056	12334
928.162	12403
928.267	12460
928.373	13019
928.479	12395
928.585	12209
928.69	12289
928.796	12296
928.901	12216
929.007	11992
929.112	12251
929.218	12136
929.323	12026
929.428	12045
929.533	12148
929.638	12011
929.743	12091
929.848	12057
929.953	12144
930.058	11935
930.163	11756
930.267	11783
930.372	11824
930.477	11676
930.581	11977
930.685	11802
930.79	11627
930.894	11748
930.998	11619
931.103	11824
931.207	11429
931.311	11356
931.415	11273
931.519	11079
931.623	11029
