Data from test_V78500241_1679.txt Node
Date: Fri Mar 25 15:21:32 CST 2022
User: usil
Spectrometer: V785-0024
Trigger mode: 0
Integration Time (sec): 4.000000E-1
Scans to average: 1
Nonlinearity correction enabled: false
Boxcar width: 0
Storing dark spectrum: false
XAxis mode: Wavelengths
Number of Pixels in Spectrum: 1024
>>>>>Begin Spectral Data<<<<<
801.071	28131
801.214	27835
801.356	27827
801.499	27701
801.641	27397
801.783	27622
801.926	27572
802.068	27515
802.211	27439
802.353	27370
802.496	27249
802.638	27176
802.78	27203
802.923	27230
803.065	27051
803.208	27169
803.35	27275
803.492	27287
803.635	27291
803.777	27237
803.919	27557
804.061	27671
804.204	27526
804.346	27348
804.488	27203
804.63	27477
804.773	27176
804.915	27481
805.057	27629
805.199	27408
805.341	27504
805.483	27557
805.626	27682
805.768	27466
805.91	27553
806.052	27591
806.194	27469
806.336	27732
806.478	27728
806.62	27603
806.762	27663
806.904	27622
807.046	27983
807.188	27930
807.33	27895
807.472	28078
807.614	27907
807.756	27827
807.898	27922
808.04	27762
808.182	27812
808.324	27755
808.465	27945
808.607	28135
808.749	28238
808.891	28188
809.033	28318
809.174	28333
809.316	28215
809.458	28143
809.6	28219
809.741	28295
809.883	28352
810.025	28546
810.166	28455
810.308	28451
810.45	28367
810.591	28314
810.733	28150
810.875	28329
811.016	28093
811.158	27987
811.299	28276
811.441	28249
811.582	28234
811.724	28310
811.865	28067
812.007	28128
812.148	28128
812.29	28204
812.431	28246
812.573	28413
812.714	28478
812.855	28759
812.997	28900
813.138	28862
813.279	28820
813.421	28626
813.562	28550
813.703	28557
813.845	28424
813.986	28025
814.127	27994
814.268	27831
814.41	27888
814.551	27869
814.692	27926
814.833	27732
814.974	27876
815.115	27956
815.256	27797
815.397	27759
815.539	27785
815.68	27629
815.821	27686
815.962	27679
816.103	27713
816.244	27572
816.385	27378
816.526	27481
816.666	27203
816.807	27119
816.948	27241
817.089	27199
817.23	27070
817.371	27028
817.512	27173
817.653	27184
817.793	26982
817.934	27020
818.075	27222
818.216	27203
818.356	27203
818.497	27039
818.638	26891
818.778	26921
818.919	26963
819.06	26940
819.2	26925
819.341	27245
819.481	27154
819.622	27302
819.762	27431
819.903	27447
820.043	27302
820.184	27367
820.324	27412
820.465	27291
820.605	27192
820.746	27241
820.886	27195
821.026	27260
821.167	27241
821.307	27310
821.447	27252
821.588	27077
821.728	26937
821.868	26754
822.008	26644
822.149	26602
822.289	26511
822.429	26351
822.569	26336
822.709	26259
822.849	26058
822.99	26172
823.13	26282
823.27	26020
823.41	26008
823.55	25951
823.69	25970
823.83	26134
823.97	25814
824.11	25696
824.25	25670
824.389	25791
824.529	25909
824.669	25784
824.809	25944
824.949	25822
825.089	25887
825.228	25936
825.368	25575
825.508	25742
825.648	25704
825.787	25723
825.927	25708
826.067	25613
826.206	25719
826.346	25799
826.485	25624
826.625	25719
826.765	25803
826.904	25795
827.044	25400
827.183	25533
827.323	25403
827.462	25499
827.601	25339
827.741	25403
827.88	25407
828.02	25194
828.159	25362
828.298	25312
828.437	25388
828.577	25285
828.716	25510
828.855	25183
828.994	25225
829.134	25118
829.273	25057
829.412	24916
829.551	24973
829.69	24981
829.829	25187
829.968	25156
830.107	25164
830.246	25183
830.385	24954
830.524	24958
830.663	24932
830.802	24730
830.941	24795
831.08	24779
831.219	24795
831.357	24890
831.496	24924
831.635	24688
831.774	24738
831.913	24631
832.051	24486
832.19	24475
832.329	24456
832.467	24334
832.606	24254
832.744	24433
832.883	24319
833.022	24388
833.16	24311
833.299	24445
833.437	24395
833.576	24513
833.714	24563
833.852	24426
833.991	24376
834.129	24490
834.267	24544
834.406	24350
834.544	24616
834.682	24475
834.821	24445
834.959	24642
835.097	24330
835.235	24483
835.373	24483
835.511	24285
835.65	24315
835.788	24285
835.926	24060
836.064	24155
836.202	24186
836.34	24315
836.478	24376
836.615	24285
836.753	24300
836.891	24433
837.029	24338
837.167	24171
837.305	24197
837.443	24049
837.58	24095
837.718	24228
837.856	24117
837.993	23950
838.131	24136
838.269	24007
838.406	23942
838.544	23954
838.681	23752
838.819	23653
838.956	23501
839.094	23684
839.231	23608
839.369	23665
839.506	24041
839.643	23840
839.781	23512
839.918	23566
840.055	23592
840.193	23600
840.33	23474
840.467	23512
840.604	23425
840.742	23695
840.879	23372
841.016	23459
841.153	23311
841.29	23687
841.427	23448
841.564	23471
841.701	23410
841.838	23452
841.975	23326
842.112	23376
842.249	23330
842.385	23261
842.522	23379
842.659	23292
842.796	23296
842.933	23242
843.069	23246
843.206	23162
843.343	23330
843.479	23345
843.616	23277
843.752	22976
843.889	23079
844.025	23189
844.162	22987
844.298	23140
844.435	22980
844.571	23075
844.708	22976
844.844	23102
844.98	23128
845.117	23200
845.253	22938
845.389	22877
845.525	22991
845.661	22904
845.798	22816
845.934	22866
846.07	22740
846.206	22816
846.342	22900
846.478	22637
846.614	22592
846.75	22455
846.886	22542
847.022	22637
847.158	22474
847.294	22443
847.429	22516
847.565	22402
847.701	22679
847.837	22215
847.972	22188
848.108	22291
848.244	22341
848.379	22143
848.515	22143
848.65	21998
848.786	22093
848.921	22131
849.057	22192
849.192	22169
849.328	22097
849.463	22219
849.598	21998
849.734	22036
849.869	21823
850.004	21930
850.14	21816
850.275	21778
850.41	21705
850.545	21922
850.68	21808
850.815	21964
850.95	21880
851.085	21857
851.22	21979
851.355	21785
851.49	21808
851.625	21915
851.76	21854
851.895	21804
852.03	21873
852.165	21869
852.299	21770
852.434	21838
852.569	21812
852.703	21812
852.838	21964
852.973	22002
853.107	21979
853.242	21808
853.376	21644
853.511	21561
853.645	21530
853.78	21816
853.914	21739
854.048	21538
854.183	21633
854.317	21743
854.451	21819
854.585	21705
854.72	21675
854.854	21728
854.988	21728
855.122	21553
855.256	21549
855.39	21667
855.524	21797
855.658	21701
855.792	21701
855.926	21701
856.06	21827
856.194	21789
856.327	21622
856.461	21606
856.595	21610
856.729	21454
856.862	21736
856.996	21698
857.13	21690
857.263	21686
857.397	21892
857.53	21907
857.664	21694
857.797	21686
857.931	21831
858.064	21652
858.197	21660
858.331	21720
858.464	21652
858.597	21583
858.731	21610
858.864	21603
858.997	21671
859.13	21682
859.263	21656
859.396	21789
859.529	21667
859.662	21618
859.795	21633
859.928	21694
860.061	21888
860.194	21850
860.327	21644
860.46	21720
860.592	21736
860.725	21823
860.858	21873
860.99	21705
861.123	21549
861.256	21606
861.388	21534
861.521	22284
861.653	21549
861.786	21374
861.918	21450
862.05	21530
862.183	21599
862.315	21561
862.447	21564
862.58	21526
862.712	21412
862.844	21389
862.976	21622
863.108	21439
863.24	21800
863.372	21450
863.504	21481
863.636	21382
863.768	21420
863.9	21317
864.032	21275
864.164	21340
864.296	21386
864.428	21530
864.559	21428
864.691	21416
864.823	21473
864.954	21291
865.086	21329
865.217	21260
865.349	21184
865.48	21108
865.612	21302
865.743	21382
865.875	21291
866.006	21226
866.137	21287
866.269	21184
866.4	21283
866.531	21173
866.662	21233
866.793	21207
866.924	21161
867.055	21294
867.186	21393
867.317	21062
867.448	21173
867.579	21188
867.71	21104
867.841	21150
867.972	21085
868.103	21192
868.233	21241
868.364	21256
868.495	21325
868.625	21447
868.756	21576
868.886	21279
869.017	21408
869.147	21648
869.278	21534
869.408	21469
869.539	21405
869.669	21538
869.799	21374
869.929	21519
870.06	21538
870.19	21793
870.32	21679
870.45	21762
870.58	21895
870.71	22032
870.84	21819
870.97	21800
871.1	21793
871.23	21975
871.36	22059
871.489	21892
871.619	21956
871.749	22036
871.879	21994
872.008	22055
872.138	22051
872.267	22017
872.397	21953
872.526	21751
872.656	21903
872.785	21956
872.915	22101
873.044	22169
873.173	22048
873.303	22017
873.432	21998
873.561	22204
873.69	22097
873.819	21945
873.948	22192
874.077	22010
874.206	21941
874.335	21975
874.464	22013
874.593	22166
874.722	22299
874.851	22322
874.979	22310
875.108	22371
875.237	22101
875.365	22234
875.494	22226
875.623	22200
875.751	22162
875.88	22280
876.008	22348
876.136	22485
876.265	22641
876.393	22938
876.521	22824
876.65	22786
876.778	22596
876.906	22489
877.034	22470
877.162	22717
877.29	22451
877.418	22519
877.546	22630
877.674	22656
877.802	22656
877.93	22588
878.058	22588
878.185	22584
878.313	22637
878.441	22653
878.568	22470
878.696	22584
878.824	22500
878.951	22729
879.079	22866
879.206	22953
879.333	22687
879.461	22634
879.588	22580
879.715	22869
879.842	22885
879.97	22683
880.097	22527
880.224	22470
880.351	22443
880.478	22516
880.605	22474
880.732	22417
880.859	22599
880.986	22371
881.112	22417
881.239	22261
881.366	22192
881.493	22143
881.619	21991
881.746	22040
881.872	22105
881.999	21945
882.125	22006
882.252	22097
882.378	22029
882.505	22143
882.631	21899
882.757	21637
882.883	21743
883.01	21679
883.136	21739
883.262	21576
883.388	21603
883.514	21762
883.64	21663
883.766	21648
883.892	21587
884.018	21466
884.143	21622
884.269	21717
884.395	21530
884.52	21321
884.646	21428
884.772	21283
884.897	21112
885.023	21329
885.148	21515
885.274	21481
885.399	21363
885.524	21313
885.65	21393
885.775	21264
885.9	21245
886.025	21408
886.15	21466
886.275	21310
886.4	21222
886.525	21298
886.65	21298
886.775	21176
886.9	21405
887.025	21431
887.149	21218
887.274	21188
887.399	21184
887.523	21074
887.648	20975
887.773	20963
887.897	21131
888.021	21074
888.146	21081
888.27	21096
888.395	21127
888.519	21081
888.643	21093
888.767	21104
888.891	21013
889.015	20914
889.139	20960
889.263	20918
889.387	20960
889.511	21051
889.635	20971
889.759	20975
889.883	20880
890.006	20883
890.13	21043
890.254	20781
890.377	20864
890.501	20674
890.624	20613
890.748	20609
890.871	20602
890.995	20556
891.118	20324
891.241	20404
891.364	20442
891.488	20545
891.611	20526
891.734	20522
891.857	20495
891.98	20488
892.103	20469
892.226	20389
892.349	20389
892.471	20233
892.594	20305
892.717	20290
892.839	20199
892.962	20324
893.085	20389
893.207	20313
893.33	20278
893.452	20374
893.575	20381
893.697	20343
893.819	20583
893.941	20480
894.064	20419
894.186	20214
894.308	20343
894.43	20454
894.552	20457
894.674	20503
894.796	20233
894.918	20332
895.04	20298
895.161	20461
895.283	20328
895.405	20301
895.526	20305
895.648	20298
895.769	20358
895.891	20336
896.012	20457
896.134	20366
896.255	20385
896.376	20301
896.498	20438
896.619	20423
896.74	20362
896.861	20431
896.982	20712
897.103	20800
897.224	20617
897.345	20575
897.466	20366
897.587	20648
897.708	20686
897.828	20678
897.949	20473
898.07	20377
898.19	20507
898.311	20655
898.431	20465
898.552	20533
898.672	20663
898.792	20571
898.913	20655
899.033	20415
899.153	20366
899.273	20317
899.393	20362
899.513	20355
899.633	20278
899.753	20320
899.873	20202
899.993	20427
900.113	20377
900.232	20256
900.352	20119
900.472	20138
900.591	20084
900.711	20096
900.83	20050
900.95	20100
901.069	20077
901.189	19993
901.308	19906
901.427	19685
901.546	19616
901.665	19635
901.784	19635
901.904	19647
902.023	19403
902.141	19168
902.26	19183
902.379	19285
902.498	19129
902.617	19179
902.735	19179
902.854	19209
902.973	18947
903.091	18951
903.21	18878
903.328	18806
903.446	18810
903.565	18673
903.683	18677
903.801	18536
903.919	18642
904.038	18559
904.156	18311
904.274	18403
904.392	18353
904.51	18346
904.627	18395
904.745	18464
904.863	18418
904.981	18106
905.098	18019
905.216	18053
905.334	18049
905.451	18152
905.569	18060
905.686	18144
905.803	18068
905.921	17821
906.038	17935
906.155	17969
906.272	17722
906.389	17859
906.506	17623
906.623	17509
906.74	17665
906.857	17482
906.974	17474
907.091	17745
907.208	17729
907.324	17646
907.441	17528
907.557	17246
907.674	17322
907.79	17235
907.907	17216
908.023	17414
908.139	17318
908.256	17284
908.372	17220
908.488	17269
908.604	17094
908.72	16934
908.836	17090
908.952	16980
909.068	16987
909.184	17223
909.3	17090
909.415	17003
909.531	17056
909.647	16793
909.762	16679
909.878	16771
909.993	16843
910.108	16771
910.224	16656
910.339	16706
910.454	16641
910.57	16546
910.685	16470
910.8	16809
910.915	16679
911.03	16527
911.145	16367
911.259	16348
911.374	16306
911.489	16261
911.604	16188
911.718	16120
911.833	16013
911.947	15972
912.062	15846
912.176	16128
912.291	15994
912.405	16112
912.519	16253
912.633	16143
912.748	15994
912.862	15994
912.976	15857
913.09	15827
913.204	15854
913.318	15945
913.431	15983
913.545	15922
913.659	15911
913.772	15823
913.886	15629
914	15705
914.113	15762
914.226	15789
914.34	15785
914.453	15511
914.566	15717
914.68	15568
914.793	15557
914.906	15363
915.019	15275
915.132	15268
915.245	15184
915.358	15279
915.47	15340
915.583	15306
915.696	15302
915.809	15363
915.921	15386
916.034	15237
916.146	15184
916.259	15161
916.371	15169
916.483	15150
916.595	15154
916.708	15123
916.82	15081
916.932	15036
917.044	15051
917.156	14941
917.268	14902
917.38	14918
917.491	14872
917.603	14918
917.715	14975
917.826	14990
917.938	14830
918.049	14788
918.161	14921
918.272	15043
918.384	14891
918.495	14895
918.606	14621
918.717	14678
918.828	14712
918.939	14693
919.05	14571
919.161	14693
919.272	14469
919.383	14511
919.494	14655
919.604	14842
919.715	14693
919.826	14621
919.936	14648
920.047	14720
920.157	14625
920.267	14796
920.378	14663
920.488	14571
920.598	14731
920.708	14925
920.818	14693
920.928	14788
921.038	14914
921.148	14788
921.258	14697
921.368	14434
921.477	14434
921.587	14305
921.697	14320
921.806	14389
921.916	14191
922.025	14073
922.134	14058
922.244	13993
922.353	14016
922.462	13913
922.571	13913
922.68	13700
922.789	13674
922.898	13674
923.007	13624
923.116	13670
923.224	13655
923.333	13597
923.442	13605
923.55	13441
923.659	13529
923.767	13563
923.876	13449
923.984	13544
924.092	13441
924.201	13468
924.309	13411
924.417	13339
924.525	13335
924.633	13308
924.741	14031
924.849	13099
924.956	13236
925.064	13141
925.172	13031
925.279	12977
925.387	13126
925.494	13099
925.602	13160
925.709	13122
925.816	12947
925.924	13042
926.031	13164
926.138	12958
926.245	13053
926.352	12920
926.459	13072
926.566	13118
926.673	13004
926.779	12871
926.886	12901
926.993	12684
927.099	12662
927.206	12662
927.312	12528
927.419	12646
927.525	12589
927.631	12601
927.737	12593
927.843	12479
927.95	12361
928.056	12376
928.162	12399
928.267	12563
928.373	12996
928.479	12509
928.585	12289
928.69	12437
928.796	12452
928.901	12239
929.007	12087
929.112	12292
929.218	12304
929.323	12125
929.428	12205
929.533	12304
929.638	12148
929.743	12068
929.848	12205
929.953	12041
930.058	11977
930.163	11874
930.267	11931
930.372	12019
930.477	11790
930.581	12057
930.685	11954
930.79	11748
930.894	11745
930.998	11733
931.103	11832
931.207	11486
931.311	11387
931.415	11349
931.519	11197
931.623	11052
