Data from test_V78500241_1506.txt Node
Date: Fri Mar 25 15:20:20 CST 2022
User: usil
Spectrometer: V785-0024
Trigger mode: 0
Integration Time (sec): 4.000000E-1
Scans to average: 1
Nonlinearity correction enabled: false
Boxcar width: 0
Storing dark spectrum: false
XAxis mode: Wavelengths
Number of Pixels in Spectrum: 1024
>>>>>Begin Spectral Data<<<<<
801.071	28067
801.214	28017
801.356	27800
801.499	27743
801.641	27648
801.783	27614
801.926	27572
802.068	27618
802.211	27511
802.353	27519
802.496	27264
802.638	27176
802.78	27272
802.923	27108
803.065	27241
803.208	27180
803.35	27184
803.492	27382
803.635	27382
803.777	27272
803.919	27515
804.061	27785
804.204	27553
804.346	27405
804.488	27492
804.63	27511
804.773	27424
804.915	27587
805.057	27705
805.199	27462
805.341	27675
805.483	27667
805.626	27595
805.768	27447
805.91	27663
806.052	27808
806.194	27679
806.336	27812
806.478	27606
806.62	27701
806.762	27751
806.904	27861
807.046	28040
807.188	28185
807.33	28135
807.472	28211
807.614	28002
807.756	28048
807.898	27827
808.04	27899
808.182	27827
808.324	27953
808.465	27869
808.607	28162
808.749	28314
808.891	28455
809.033	28375
809.174	28352
809.316	28246
809.458	28352
809.6	28287
809.741	28413
809.883	28367
810.025	28664
810.166	28630
810.308	28531
810.45	28508
810.591	28459
810.733	28318
810.875	28173
811.016	28131
811.158	28204
811.299	28230
811.441	28489
811.582	28318
811.724	28268
811.865	28219
812.007	28341
812.148	28257
812.29	28280
812.431	28436
812.573	28634
812.714	28710
812.855	28839
812.997	28968
813.138	29022
813.279	29064
813.421	28790
813.562	28862
813.703	28733
813.845	28569
813.986	28196
814.127	28006
814.268	28032
814.41	28025
814.551	27850
814.692	28109
814.833	27842
814.974	28078
815.115	27914
815.256	27762
815.397	27869
815.539	27873
815.68	27793
815.821	27823
815.962	27888
816.103	27762
816.244	27629
816.385	27564
816.526	27557
816.666	27397
816.807	27173
816.948	27370
817.089	27363
817.23	27374
817.371	27249
817.512	27355
817.653	27230
817.793	27161
817.934	27287
818.075	27310
818.216	27351
818.356	27116
818.497	27222
818.638	27104
818.778	26952
818.919	27032
819.06	27119
819.2	27264
819.341	27207
819.481	27142
819.622	27504
819.762	27660
819.903	27477
820.043	27420
820.184	27427
820.324	27363
820.465	27496
820.605	27507
820.746	27374
820.886	27188
821.026	27275
821.167	27336
821.307	27306
821.447	27165
821.588	27313
821.728	27036
821.868	26887
822.008	26746
822.149	26686
822.289	26701
822.429	26530
822.569	26484
822.709	26514
822.849	26221
822.99	26324
823.13	26267
823.27	26229
823.41	26096
823.55	25951
823.69	26126
823.83	26103
823.97	25963
824.11	25795
824.25	25921
824.389	25830
824.529	25947
824.669	25883
824.809	26058
824.949	26001
825.089	25974
825.228	26020
825.368	25731
825.508	25712
825.648	25693
825.787	25795
825.927	25727
826.067	25651
826.206	25761
826.346	25780
826.485	25723
826.625	25685
826.765	25833
826.904	25803
827.044	25449
827.183	25597
827.323	25601
827.462	25445
827.601	25468
827.741	25479
827.88	25297
828.02	25335
828.159	25457
828.298	25582
828.437	25559
828.577	25506
828.716	25590
828.855	25316
828.994	25145
829.134	25050
829.273	25080
829.412	25183
829.551	25221
829.69	25156
829.829	25160
829.968	25168
830.107	25213
830.246	25183
830.385	25057
830.524	25080
830.663	24973
830.802	24768
830.941	24738
831.08	24681
831.219	24909
831.357	24916
831.496	24913
831.635	24745
831.774	24749
831.913	24627
832.051	24654
832.19	24658
832.329	24684
832.467	24445
832.606	24437
832.744	24292
832.883	24429
833.022	24422
833.16	24429
833.299	24475
833.437	24585
833.576	24544
833.714	24483
833.852	24494
833.991	24486
834.129	24635
834.267	24688
834.406	24456
834.544	24563
834.682	24456
834.821	24399
834.959	24582
835.097	24521
835.235	24597
835.373	24486
835.511	24483
835.65	24410
835.788	24315
835.926	24277
836.064	24114
836.202	24114
836.34	24350
836.478	24285
836.615	24243
836.753	24334
836.891	24437
837.029	24414
837.167	24247
837.305	24296
837.443	24205
837.58	24205
837.718	24182
837.856	24182
837.993	24064
838.131	24011
838.269	24053
838.406	23992
838.544	24018
838.681	23748
838.819	23794
838.956	23627
839.094	23623
839.231	23611
839.369	23680
839.506	23927
839.643	23767
839.781	23551
839.918	23623
840.055	23661
840.193	23608
840.33	23512
840.467	23505
840.604	23474
840.742	23611
840.879	23341
841.016	23376
841.153	23383
841.29	23524
841.427	23444
841.564	23539
841.701	23531
841.838	23379
841.975	23410
842.112	23547
842.249	23398
842.385	23318
842.522	23528
842.659	23345
842.796	23349
842.933	23364
843.069	23246
843.206	23299
843.343	23391
843.479	23311
843.616	23261
843.752	23075
843.889	23018
844.025	23140
844.162	22984
844.298	23220
844.435	23052
844.571	22984
844.708	23003
844.844	23136
844.98	23212
845.117	23132
845.253	23143
845.389	22961
845.525	23025
845.661	22915
845.798	22694
845.934	22930
846.07	22801
846.206	22831
846.342	22961
846.478	22873
846.614	22596
846.75	22394
846.886	22402
847.022	22466
847.158	22588
847.294	22561
847.429	22504
847.565	22504
847.701	22778
847.837	22188
847.972	22070
848.108	22455
848.244	22325
848.379	22101
848.515	22162
848.65	22093
848.786	22158
848.921	22109
849.057	22261
849.192	22154
849.328	22097
849.463	22128
849.598	21903
849.734	22021
849.869	21888
850.004	21998
850.14	21759
850.275	21762
850.41	21903
850.545	21835
850.68	21816
850.815	21812
850.95	21827
851.085	21975
851.22	22021
851.355	21789
851.49	21869
851.625	21968
851.76	21819
851.895	21663
852.03	21778
852.165	21880
852.299	21876
852.434	21945
852.569	21854
852.703	21869
852.838	21934
852.973	22086
853.107	21911
853.242	21705
853.376	21690
853.511	21538
853.645	21568
853.78	21797
853.914	21736
854.048	21739
854.183	21564
854.317	21648
854.451	21869
854.585	21785
854.72	21679
854.854	21785
854.988	21595
855.122	21690
855.256	21564
855.39	21713
855.524	21724
855.658	21819
855.792	21751
855.926	21618
856.06	21713
856.194	21793
856.327	21656
856.461	21633
856.595	21675
856.729	21656
856.862	21789
856.996	21709
857.13	21580
857.263	21717
857.397	21660
857.53	21644
857.664	21781
857.797	21717
857.931	21800
858.064	21759
858.197	21819
858.331	21713
858.464	21549
858.597	21690
858.731	21526
858.864	21587
858.997	21728
859.13	21717
859.263	21720
859.396	21717
859.529	21572
859.662	21663
859.795	21660
859.928	21641
860.061	21762
860.194	21804
860.327	21701
860.46	21686
860.592	21804
860.725	21884
860.858	21819
860.99	21698
861.123	21622
861.256	21660
861.388	21751
861.521	22246
861.653	21583
861.786	21477
861.918	21507
862.05	21553
862.183	21576
862.315	21686
862.447	21831
862.58	21610
862.712	21298
862.844	21325
862.976	21408
863.108	21443
863.24	21781
863.372	21306
863.504	21367
863.636	21443
863.768	21428
863.9	21378
864.032	21294
864.164	21306
864.296	21386
864.428	21511
864.559	21572
864.691	21370
864.823	21428
864.954	21378
865.086	21534
865.217	21405
865.349	21176
865.48	21287
865.612	21230
865.743	21412
865.875	21336
866.006	21302
866.137	21291
866.269	21386
866.4	21279
866.531	21218
866.662	21199
866.793	21161
866.924	21207
867.055	21241
867.186	21119
867.317	21173
867.448	21116
867.579	21154
867.71	21127
867.841	21188
867.972	21279
868.103	21077
868.233	21165
868.364	21241
868.495	21310
868.625	21450
868.756	21526
868.886	21344
869.017	21420
869.147	21572
869.278	21561
869.408	21374
869.539	21439
869.669	21564
869.799	21610
869.929	21542
870.06	21435
870.19	21732
870.32	21648
870.45	21808
870.58	21873
870.71	21991
870.84	21953
870.97	21922
871.1	21903
871.23	21979
871.36	21953
871.489	21911
871.619	21991
871.749	22021
871.879	22074
872.008	22169
872.138	22006
872.267	22029
872.397	21949
872.526	21743
872.656	22002
872.785	21827
872.915	21991
873.044	22135
873.173	22135
873.303	22078
873.432	22040
873.561	22169
873.69	22070
873.819	22021
873.948	22013
874.077	22082
874.206	22010
874.335	22078
874.464	22211
874.593	22306
874.722	22207
874.851	22318
874.979	22261
875.108	22421
875.237	22192
875.365	22120
875.494	22249
875.623	22257
875.751	22230
875.88	22306
876.008	22405
876.136	22466
876.265	22721
876.393	22782
876.521	22793
876.65	22698
876.778	22691
876.906	22618
877.034	22626
877.162	22622
877.29	22550
877.418	22744
877.546	22664
877.674	22706
877.802	22607
877.93	22668
878.058	22588
878.185	22451
878.313	22577
878.441	22523
878.568	22538
878.696	22523
878.824	22634
878.951	22645
879.079	22801
879.206	22946
879.333	22809
879.461	22691
879.588	22611
879.715	22748
879.842	22862
879.97	22698
880.097	22329
880.224	22398
880.351	22447
880.478	22344
880.605	22451
880.732	22363
880.859	22672
880.986	22478
881.112	22561
881.239	22329
881.366	22253
881.493	22169
881.619	22048
881.746	22055
881.872	22112
881.999	21926
882.125	21903
882.252	22097
882.378	22074
882.505	22082
882.631	21861
882.757	21656
882.883	21751
883.01	21675
883.136	21591
883.262	21705
883.388	21526
883.514	21690
883.64	21789
883.766	21698
883.892	21412
884.018	21473
884.143	21660
884.269	21690
884.395	21450
884.52	21386
884.646	21378
884.772	21298
884.897	21252
885.023	21233
885.148	21325
885.274	21412
885.399	21291
885.524	21313
885.65	21420
885.775	21378
885.9	21443
886.025	21466
886.15	21348
886.275	21192
886.4	21268
886.525	21279
886.65	21233
886.775	21283
886.9	21374
887.025	21412
887.149	21325
887.274	21214
887.399	21036
887.523	21119
887.648	21020
887.773	21017
887.897	21051
888.021	21173
888.146	21150
888.27	21207
888.395	21165
888.519	21214
888.643	21066
888.767	21131
888.891	21009
889.015	20864
889.139	20990
889.263	20906
889.387	21028
889.511	21154
889.635	20960
889.759	20971
889.883	21001
890.006	20857
890.13	20864
890.254	20788
890.377	20842
890.501	20693
890.624	20609
890.748	20796
890.871	20503
890.995	20518
891.118	20450
891.241	20488
891.364	20469
891.488	20579
891.611	20499
891.734	20564
891.857	20583
891.98	20499
892.103	20518
892.226	20431
892.349	20298
892.471	20290
892.594	20469
892.717	20400
892.839	20256
892.962	20415
893.085	20434
893.207	20377
893.33	20305
893.452	20187
893.575	20480
893.697	20328
893.819	20514
893.941	20499
894.064	20533
894.186	20202
894.308	20240
894.43	20351
894.552	20476
894.674	20492
894.796	20366
894.918	20252
895.04	20351
895.161	20381
895.283	20484
895.405	20259
895.526	20317
895.648	20442
895.769	20351
895.891	20438
896.012	20400
896.134	20438
896.255	20233
896.376	20278
896.498	20305
896.619	20336
896.74	20332
896.861	20492
896.982	20750
897.103	20750
897.224	20636
897.345	20545
897.466	20530
897.587	20541
897.708	20697
897.828	20533
897.949	20556
898.07	20377
898.19	20442
898.311	20518
898.431	20492
898.552	20533
898.672	20670
898.792	20564
898.913	20625
899.033	20374
899.153	20381
899.273	20404
899.393	20336
899.513	20252
899.633	20317
899.753	20317
899.873	20301
899.993	20336
900.113	20275
900.232	20229
900.352	20183
900.472	20122
900.591	20069
900.711	20168
900.83	19940
900.95	20286
901.069	20229
901.189	19936
901.308	19719
901.427	19708
901.546	19700
901.665	19677
901.784	19651
901.904	19575
902.023	19403
902.141	19293
902.26	19259
902.379	19362
902.498	19175
902.617	19141
902.735	19137
902.854	19114
902.973	19046
903.091	18821
903.21	18829
903.328	18871
903.446	18783
903.565	18700
903.683	18677
903.801	18555
903.919	18604
904.038	18547
904.156	18407
904.274	18483
904.392	18513
904.51	18429
904.627	18509
904.745	18422
904.863	18570
904.981	18125
905.098	17946
905.216	18178
905.334	18117
905.451	18152
905.569	18049
905.686	18091
905.803	18163
905.921	17847
906.038	17950
906.155	17950
906.272	17760
906.389	17767
906.506	17604
906.623	17585
906.74	17535
906.857	17547
906.974	17589
907.091	17748
907.208	17783
907.324	17649
907.441	17543
907.557	17368
907.674	17322
907.79	17356
907.907	17288
908.023	17307
908.139	17307
908.256	17254
908.372	17147
908.488	17284
908.604	17086
908.72	17064
908.836	17086
908.952	17048
909.068	17147
909.184	17124
909.3	17048
909.415	17075
909.531	16930
909.647	16843
909.762	16805
909.878	16729
909.993	16843
910.108	16698
910.224	16752
910.339	16729
910.454	16592
910.57	16626
910.685	16527
910.8	16774
910.915	16641
911.03	16641
911.145	16348
911.259	16314
911.374	16352
911.489	16303
911.604	16257
911.718	16059
911.833	16109
911.947	16010
912.062	15895
912.176	16074
912.291	16063
912.405	16032
912.519	16253
912.633	16261
912.748	16074
912.862	16055
912.976	15869
913.09	15869
913.204	15903
913.318	15892
913.431	16036
913.545	15968
913.659	15934
913.772	15819
913.886	15667
914	15637
914.113	15819
914.226	15743
914.34	15785
914.453	15622
914.566	15762
914.68	15599
914.793	15568
914.906	15355
915.019	15218
915.132	15241
915.245	15313
915.358	15382
915.47	15348
915.583	15332
915.696	15344
915.809	15454
915.921	15523
916.034	15237
916.146	15150
916.259	15142
916.371	15195
916.483	15089
916.595	15119
916.708	15100
916.82	15169
916.932	15131
917.044	15043
917.156	15066
917.268	14880
917.38	14933
917.491	14941
917.603	15036
917.715	15047
917.826	15028
917.938	14994
918.049	14823
918.161	14895
918.272	15104
918.384	14948
918.495	14952
918.606	14629
918.717	14670
918.828	14705
918.939	14594
919.05	14613
919.161	14727
919.272	14446
919.383	14507
919.494	14678
919.604	14864
919.715	14792
919.826	14648
919.936	14712
920.047	14807
920.157	14697
920.267	14819
920.378	14636
920.488	14693
920.598	14895
920.708	14979
920.818	14724
920.928	14743
921.038	14941
921.148	14895
921.258	14678
921.368	14503
921.477	14419
921.587	14332
921.697	14286
921.806	14389
921.916	14305
922.025	14088
922.134	14024
922.244	14008
922.353	14001
922.462	13974
922.571	13875
922.68	13738
922.789	13639
922.898	13681
923.007	13700
923.116	13753
923.224	13719
923.333	13563
923.442	13575
923.55	13468
923.659	13499
923.767	13537
923.876	13460
923.984	13582
924.092	13365
924.201	13415
924.309	13407
924.417	13460
924.525	13274
924.633	13350
924.741	14107
924.849	13244
924.956	13270
925.064	13133
925.172	13110
925.279	13160
925.387	13171
925.494	13091
925.602	13285
925.709	13133
925.816	12973
925.924	13023
926.031	13160
926.138	13061
926.245	13061
926.352	12871
926.459	13072
926.566	13053
926.673	12886
926.779	12897
926.886	12848
926.993	12734
927.099	12707
927.206	12646
927.312	12574
927.419	12757
927.525	12665
927.631	12711
927.737	12540
927.843	12494
927.95	12327
928.056	12479
928.162	12498
928.267	12547
928.373	13160
928.479	12536
928.585	12300
928.69	12445
928.796	12521
928.901	12292
929.007	12251
929.112	12403
929.218	12319
929.323	12186
929.428	12228
929.533	12334
929.638	12095
929.743	12087
929.848	12213
929.953	12114
930.058	12003
930.163	11824
930.267	11882
930.372	12060
930.477	11843
930.581	12064
930.685	11851
930.79	11832
930.894	11733
930.998	11828
931.103	11756
931.207	11528
931.311	11383
931.415	11258
931.519	11128
931.623	11098
