Data from test_V78500241_2209.txt Node
Date: Fri Mar 25 15:25:14 CST 2022
User: usil
Spectrometer: V785-0024
Trigger mode: 0
Integration Time (sec): 4.000000E-1
Scans to average: 1
Nonlinearity correction enabled: false
Boxcar width: 0
Storing dark spectrum: false
XAxis mode: Wavelengths
Number of Pixels in Spectrum: 1024
>>>>>Begin Spectral Data<<<<<
801.071	27831
801.214	27629
801.356	27732
801.499	27583
801.641	27374
801.783	27370
801.926	27340
802.068	27340
802.211	27382
802.353	27264
802.496	27066
802.638	27081
802.78	27062
802.923	26937
803.065	26807
803.208	27039
803.35	27104
803.492	27203
803.635	27241
803.777	26979
803.919	27268
804.061	27759
804.204	27192
804.346	27199
804.488	27245
804.63	27173
804.773	27245
804.915	27218
805.057	27237
805.199	27203
805.341	27348
805.483	27462
805.626	27507
805.768	27302
805.91	27523
806.052	27367
806.194	27310
806.336	27686
806.478	27439
806.62	27313
806.762	27523
806.904	27519
807.046	27880
807.188	27857
807.33	27873
807.472	27941
807.614	27789
807.756	27686
807.898	27701
808.04	27568
808.182	27743
808.324	27800
808.465	27717
808.607	27831
808.749	27926
808.891	28158
809.033	28166
809.174	28055
809.316	28040
809.458	27956
809.6	28067
809.741	28048
809.883	28295
810.025	28116
810.166	28211
810.308	28325
810.45	28306
810.591	28196
810.733	28025
810.875	27880
811.016	28074
811.158	27998
811.299	27994
811.441	28101
811.582	28082
811.724	27926
811.865	28093
812.007	28082
812.148	27907
812.29	28025
812.431	28112
812.573	28363
812.714	28466
812.855	28481
812.997	28588
813.138	28793
813.279	28717
813.421	28569
813.562	28432
813.703	28497
813.845	28276
813.986	27892
814.127	27713
814.268	27785
814.41	27717
814.551	27595
814.692	27873
814.833	27530
814.974	27663
815.115	27743
815.256	27557
815.397	27614
815.539	27629
815.68	27511
815.821	27393
815.962	27386
816.103	27408
816.244	27355
816.385	27237
816.526	27272
816.666	27256
816.807	26967
816.948	27055
817.089	27077
817.23	26948
817.371	26933
817.512	26914
817.653	26921
817.793	26933
817.934	27100
818.075	27070
818.216	27001
818.356	26982
818.497	26796
818.638	26655
818.778	26697
818.919	26754
819.06	26777
819.2	26952
819.341	27093
819.481	26895
819.622	27237
819.762	27241
819.903	27157
820.043	27100
820.184	27085
820.324	26861
820.465	27230
820.605	27020
820.746	27074
820.886	26895
821.026	27051
821.167	26975
821.307	27135
821.447	27036
821.588	26861
821.728	26807
821.868	26518
822.008	26389
822.149	26343
822.289	26545
822.429	26221
822.569	26206
822.709	26164
822.849	25966
822.99	26027
823.13	25951
823.27	25932
823.41	25727
823.55	25742
823.69	25799
823.83	25791
823.97	25738
824.11	25567
824.25	25510
824.389	25544
824.529	25734
824.669	25525
824.809	25632
824.949	25655
825.089	25594
825.228	25563
825.368	25354
825.508	25392
825.648	25388
825.787	25460
825.927	25506
826.067	25381
826.206	25460
826.346	25521
826.485	25540
826.625	25483
826.765	25438
826.904	25339
827.044	25171
827.183	25107
827.323	25110
827.462	25084
827.601	25331
827.741	25091
827.88	25133
828.02	25019
828.159	25145
828.298	25126
828.437	25304
828.577	25118
828.716	25171
828.855	25038
828.994	24859
829.134	24981
829.273	24738
829.412	24856
829.551	24696
829.69	24764
829.829	24916
829.968	24909
830.107	25004
830.246	24711
830.385	24825
830.524	24658
830.663	24677
830.802	24525
830.941	24460
831.08	24437
831.219	24570
831.357	24627
831.496	24703
831.635	24574
831.774	24414
831.913	24300
832.051	24258
832.19	24300
832.329	24327
832.467	24220
832.606	24216
832.744	24121
832.883	24053
833.022	24163
833.16	24220
833.299	24155
833.437	24197
833.576	24197
833.714	24155
833.852	24300
833.991	24319
834.129	24273
834.267	24239
834.406	24273
834.544	24254
834.682	24167
834.821	24159
834.959	24300
835.097	24087
835.235	24224
835.373	24224
835.511	24087
835.65	24049
835.788	24022
835.926	23901
836.064	23764
836.202	23843
836.34	24041
836.478	24068
836.615	23961
836.753	24068
836.891	24125
837.029	23897
837.167	23927
837.305	23904
837.443	23805
837.58	23878
837.718	23901
837.856	23847
837.993	23885
838.131	23984
838.269	23718
838.406	23760
838.544	23608
838.681	23493
838.819	23505
838.956	23315
839.094	23292
839.231	23353
839.369	23600
839.506	23707
839.643	23585
839.781	23406
839.918	23250
840.055	23334
840.193	23117
840.33	23227
840.467	23299
840.604	23334
840.742	23505
840.879	23022
841.016	23181
841.153	23041
841.29	23212
841.427	23204
841.564	23246
841.701	23208
841.838	23147
841.975	23132
842.112	23170
842.249	22984
842.385	23041
842.522	23200
842.659	23022
842.796	22972
842.933	23102
843.069	22915
843.206	22816
843.343	23014
843.479	22843
843.616	23025
843.752	22763
843.889	22873
844.025	22866
844.162	22710
844.298	22904
844.435	22721
844.571	22656
844.708	22713
844.844	22850
844.98	22976
845.117	22976
845.253	22611
845.389	22535
845.525	22729
845.661	22603
845.798	22698
845.934	22535
846.07	22402
846.206	22596
846.342	22706
846.478	22493
846.614	22356
846.75	22234
846.886	22230
847.022	22226
847.158	22257
847.294	22238
847.429	22219
847.565	22185
847.701	22382
847.837	22059
847.972	21987
848.108	22040
848.244	21983
848.379	21953
848.515	21876
848.65	21823
848.786	21892
848.921	21816
849.057	21937
849.192	21827
849.328	21755
849.463	21854
849.598	21789
849.734	21759
849.869	21690
850.004	21568
850.14	21606
850.275	21614
850.41	21485
850.545	21431
850.68	21523
850.815	21599
850.95	21614
851.085	21888
851.22	21705
851.355	21553
851.49	21587
851.625	21428
851.76	21424
851.895	21538
852.03	21481
852.165	21542
852.299	21663
852.434	21614
852.569	21610
852.703	21614
852.838	21679
852.973	21622
853.107	21774
853.242	21576
853.376	21378
853.511	21252
853.645	21310
853.78	21549
853.914	21344
854.048	21370
854.183	21355
854.317	21367
854.451	21622
854.585	21466
854.72	21420
854.854	21435
854.988	21306
855.122	21370
855.256	21211
855.39	21298
855.524	21393
855.658	21469
855.792	21260
855.926	21302
856.06	21424
856.194	21504
856.327	21298
856.461	21317
856.595	21393
856.729	21393
856.862	21424
856.996	21363
857.13	21519
857.263	21526
857.397	21454
857.53	21405
857.664	21458
857.797	21363
857.931	21511
858.064	21393
858.197	21473
858.331	21405
858.464	21397
858.597	21348
858.731	21310
858.864	21325
858.997	21329
859.13	21233
859.263	21389
859.396	21374
859.529	21310
859.662	21287
859.795	21199
859.928	21374
860.061	21549
860.194	21606
860.327	21420
860.46	21492
860.592	21504
860.725	21526
860.858	21397
860.99	21348
861.123	21340
861.256	21291
861.388	21283
861.521	22147
861.653	21222
861.786	21256
861.918	21150
862.05	21233
862.183	21237
862.315	21252
862.447	21378
862.58	21393
862.712	21138
862.844	21066
862.976	21249
863.108	21211
863.24	21336
863.372	21070
863.504	21017
863.636	21085
863.768	21131
863.9	21116
864.032	21062
864.164	21058
864.296	21138
864.428	21245
864.559	21150
864.691	21096
864.823	21218
864.954	20998
865.086	21081
865.217	20982
865.349	21005
865.48	20952
865.612	21017
865.743	21123
865.875	21017
866.006	20944
866.137	20952
866.269	21032
866.4	20975
866.531	20876
866.662	20933
866.793	20826
866.924	20925
867.055	20883
867.186	20895
867.317	20845
867.448	20864
867.579	20849
867.71	20777
867.841	20971
867.972	20872
868.103	20800
868.233	20998
868.364	21043
868.495	20967
868.625	21165
868.756	21306
868.886	21051
869.017	21211
869.147	21332
869.278	21291
869.408	21173
869.539	21089
869.669	21291
869.799	21268
869.929	21389
870.06	21218
870.19	21469
870.32	21443
870.45	21458
870.58	21488
870.71	21553
870.84	21709
870.97	21534
871.1	21580
871.23	21633
871.36	21690
871.489	21663
871.619	21701
871.749	21701
871.879	21865
872.008	21835
872.138	21717
872.267	21838
872.397	21576
872.526	21481
872.656	21660
872.785	21709
872.915	21774
873.044	21838
873.173	21778
873.303	21781
873.432	21823
873.561	21846
873.69	21770
873.819	21701
873.948	21861
874.077	21713
874.206	21747
874.335	21797
874.464	21819
874.593	22044
874.722	21835
874.851	22044
874.979	22048
875.108	21960
875.237	21895
875.365	21861
875.494	21918
875.623	22010
875.751	21953
875.88	22093
876.008	22059
876.136	22116
876.265	22367
876.393	22554
876.521	22455
876.65	22497
876.778	22299
876.906	22352
877.034	22337
877.162	22360
877.29	22249
877.418	22375
877.546	22325
877.674	22348
877.802	22428
877.93	22303
878.058	22303
878.185	22219
878.313	22322
878.441	22322
878.568	22257
878.696	22261
878.824	22405
878.951	22284
879.079	22504
879.206	22535
879.333	22512
879.461	22417
879.588	22523
879.715	22577
879.842	22637
879.97	22363
880.097	22074
880.224	21998
880.351	22169
880.478	22200
880.605	21930
880.732	22181
880.859	22402
880.986	22063
881.112	22192
881.239	22158
881.366	21888
881.493	21766
881.619	21766
881.746	21835
881.872	21713
881.999	21698
882.125	21591
882.252	21713
882.378	21846
882.505	21789
882.631	21652
882.757	21435
882.883	21603
883.01	21473
883.136	21287
883.262	21272
883.388	21218
883.514	21435
883.64	21306
883.766	21389
883.892	21256
884.018	21332
884.143	21450
884.269	21412
884.395	21096
884.52	21119
884.646	21005
884.772	20933
884.897	21051
885.023	21062
885.148	21058
885.274	21241
885.399	21058
885.524	21085
885.65	21138
885.775	21135
885.9	21055
886.025	21226
886.15	21180
886.275	21020
886.4	20918
886.525	21116
886.65	20956
886.775	20967
886.9	21180
887.025	21188
887.149	21051
887.274	20849
887.399	20811
887.523	20826
887.648	20724
887.773	20781
887.897	20857
888.021	20891
888.146	20655
888.27	20857
888.395	20937
888.519	20906
888.643	20895
888.767	20895
888.891	20800
889.015	20590
889.139	20705
889.263	20503
889.387	20868
889.511	20830
889.635	20773
889.759	20629
889.883	20659
890.006	20716
890.13	20682
890.254	20621
890.377	20568
890.501	20404
890.624	20317
890.748	20442
890.871	20320
890.995	20233
891.118	20161
891.241	20210
891.364	20202
891.488	20259
891.611	20145
891.734	20309
891.857	20339
891.98	20237
892.103	20233
892.226	20237
892.349	20088
892.471	19978
892.594	20115
892.717	20134
892.839	20206
892.962	20191
893.085	20062
893.207	20050
893.33	20016
893.452	19913
893.575	20084
893.697	20077
893.819	20328
893.941	20275
894.064	20202
894.186	20138
894.308	19967
894.43	20084
894.552	20077
894.674	20317
894.796	19894
894.918	20134
895.04	20168
895.161	20096
895.283	20161
895.405	20054
895.526	20157
895.648	20103
895.769	20142
895.891	20138
896.012	20134
896.134	20157
896.255	20191
896.376	19978
896.498	20153
896.619	20282
896.74	20229
896.861	20126
896.982	20492
897.103	20537
897.224	20374
897.345	20259
897.466	20294
897.587	20366
897.708	20431
897.828	20465
897.949	20358
898.07	20218
898.19	20256
898.311	20492
898.431	20305
898.552	20419
898.672	20336
898.792	20469
898.913	20377
899.033	20248
899.153	20229
899.273	20020
899.393	20134
899.513	20142
899.633	20100
899.753	20046
899.873	20065
899.993	20107
900.113	19944
900.232	20126
900.352	20012
900.472	19970
900.591	19803
900.711	19826
900.83	19803
900.95	20012
901.069	19898
901.189	19864
901.308	19540
901.427	19377
901.546	19453
901.665	19525
901.784	19438
901.904	19362
902.023	19255
902.141	19015
902.26	19000
902.379	19118
902.498	18905
902.617	18882
902.735	18935
902.854	19015
902.973	18886
903.091	18745
903.21	18646
903.328	18650
903.446	18467
903.565	18464
903.683	18517
903.801	18292
903.919	18346
904.038	18433
904.156	18144
904.274	18201
904.392	18258
904.51	18174
904.627	18159
904.745	18323
904.863	18285
904.981	18049
905.098	17916
905.216	17821
905.334	17885
905.451	17885
905.569	17855
905.686	17897
905.803	17748
905.921	17623
906.038	17710
906.155	17646
906.272	17562
906.389	17668
906.506	17391
906.623	17501
906.74	17452
906.857	17315
906.974	17318
907.091	17383
907.208	17436
907.324	17448
907.441	17254
907.557	17079
907.674	17170
907.79	17113
907.907	17121
908.023	17235
908.139	16999
908.256	17006
908.372	17052
908.488	17022
908.604	16797
908.72	16835
908.836	16866
908.952	16866
909.068	16873
909.184	16892
909.3	16824
909.415	16786
909.531	16790
909.647	16584
909.762	16626
909.878	16451
909.993	16489
910.108	16474
910.224	16519
910.339	16500
910.454	16421
910.57	16272
910.685	16390
910.8	16546
910.915	16504
911.03	16402
911.145	16101
911.259	16124
911.374	16147
911.489	16097
911.604	16063
911.718	15842
911.833	15865
911.947	15762
912.062	15705
912.176	15819
912.291	15827
912.405	15789
912.519	15987
912.633	16147
912.748	15972
912.862	15774
912.976	15717
913.09	15519
913.204	15644
913.318	15675
913.431	15724
913.545	15774
913.659	15732
913.772	15679
913.886	15431
914	15481
914.113	15534
914.226	15584
914.34	15587
914.453	15348
914.566	15504
914.68	15367
914.793	15325
914.906	15211
915.019	15009
915.132	15081
915.245	15097
915.358	15097
915.47	15142
915.583	15066
915.696	15146
915.809	15279
915.921	15176
916.034	14967
916.146	15104
916.259	15009
916.371	15024
916.483	14986
916.595	14921
916.708	14971
916.82	14979
916.932	14887
917.044	14895
917.156	14853
917.268	14720
917.38	14823
917.491	14750
917.603	14777
917.715	14899
917.826	14758
917.938	14686
918.049	14644
918.161	14773
918.272	14800
918.384	14845
918.495	14697
918.606	14492
918.717	14457
918.828	14571
918.939	14670
919.05	14423
919.161	14545
919.272	14328
919.383	14294
919.494	14621
919.604	14689
919.715	14507
919.826	14377
919.936	14423
920.047	14568
920.157	14511
920.267	14613
920.378	14484
920.488	14317
920.598	14686
920.708	14750
920.818	14583
920.928	14648
921.038	14716
921.148	14655
921.258	14499
921.368	14404
921.477	14210
921.587	14161
921.697	14031
921.806	14210
921.916	14096
922.025	13898
922.134	13917
922.244	13814
922.353	13917
922.462	13727
922.571	13601
922.68	13514
922.789	13510
922.898	13594
923.007	13407
923.116	13540
923.224	13510
923.333	13487
923.442	13339
923.55	13304
923.659	13377
923.767	13339
923.876	13240
923.984	13346
924.092	13168
924.201	13263
924.309	13304
924.417	13270
924.525	13137
924.633	13244
924.741	13871
924.849	12989
924.956	13107
925.064	12989
925.172	12791
925.279	12829
925.387	12977
925.494	12916
925.602	13027
925.709	12981
925.816	12840
925.924	12856
926.031	12924
926.138	12890
926.245	12871
926.352	12753
926.459	12913
926.566	12913
926.673	12768
926.779	12662
926.886	12677
926.993	12433
927.099	12441
927.206	12467
927.312	12414
927.419	12544
927.525	12479
927.631	12448
927.737	12292
927.843	12243
927.95	12224
928.056	12273
928.162	12357
928.267	12296
928.373	12962
928.479	12407
928.585	12121
928.69	12270
928.796	12330
928.901	12220
929.007	12003
929.112	12201
929.218	12155
929.323	12060
929.428	12045
929.533	12152
929.638	11965
929.743	11817
929.848	12019
929.953	11961
930.058	11901
930.163	11756
930.267	11752
930.372	11863
930.477	11642
930.581	11904
930.685	11794
930.79	11539
930.894	11573
930.998	11528
931.103	11688
931.207	11395
931.311	11265
931.415	11318
931.519	11018
931.623	11025
