Data from test_V78500241_126.txt Node
Date: Fri Mar 25 15:10:44 CST 2022
User: usil
Spectrometer: V785-0024
Trigger mode: 0
Integration Time (sec): 4.000000E-1
Scans to average: 1
Nonlinearity correction enabled: false
Boxcar width: 0
Storing dark spectrum: false
XAxis mode: Wavelengths
Number of Pixels in Spectrum: 1024
>>>>>Begin Spectral Data<<<<<
801.071	28261
801.214	28063
801.356	27922
801.499	27926
801.641	27747
801.783	27701
801.926	27774
802.068	27797
802.211	27660
802.353	27720
802.496	27424
802.638	27412
802.78	27374
802.923	27199
803.065	27298
803.208	27359
803.35	27462
803.492	27492
803.635	27492
803.777	27454
803.919	27462
804.061	27751
804.204	27545
804.346	27332
804.488	27313
804.63	27405
804.773	27367
804.915	27424
805.057	27492
805.199	27321
805.341	27473
805.483	27481
805.626	27359
805.768	27427
805.91	27557
806.052	27507
806.194	27416
806.336	27648
806.478	27682
806.62	27466
806.762	27534
806.904	27705
807.046	27926
807.188	27793
807.33	27846
807.472	27994
807.614	27759
807.756	27679
807.898	27679
808.04	27781
808.182	27618
808.324	27720
808.465	27682
808.607	27857
808.749	27949
808.891	28188
809.033	28207
809.174	27903
809.316	28192
809.458	28048
809.6	28128
809.741	28128
809.883	28074
810.025	28207
810.166	28257
810.308	28215
810.45	28109
810.591	28059
810.733	27941
810.875	27998
811.016	27835
811.158	27865
811.299	27960
811.441	28109
811.582	28109
811.724	27979
811.865	27937
812.007	27968
812.148	28124
812.29	27937
812.431	28287
812.573	28303
812.714	28413
812.855	28478
812.997	28542
813.138	28455
813.279	28683
813.421	28287
813.562	28542
813.703	28204
813.845	28226
813.986	27827
814.127	27644
814.268	27682
814.41	27580
814.551	27561
814.692	27694
814.833	27496
814.974	27553
815.115	27629
815.256	27530
815.397	27481
815.539	27386
815.68	27355
815.821	27374
815.962	27363
816.103	27275
816.244	27070
816.385	26925
816.526	27066
816.666	26868
816.807	26746
816.948	26785
817.089	26750
817.23	26788
817.371	26716
817.512	26705
817.653	26731
817.793	26682
817.934	26754
818.075	26727
818.216	26693
818.356	26788
818.497	26590
818.638	26377
818.778	26370
818.919	26381
819.06	26583
819.2	26389
819.341	26552
819.481	26617
819.622	26697
819.762	26948
819.903	26849
820.043	26861
820.184	26743
820.324	26708
820.465	26880
820.605	26826
820.746	26701
820.886	26526
821.026	26693
821.167	26590
821.307	26724
821.447	26549
821.588	26587
821.728	26434
821.868	26290
822.008	26282
822.149	25966
822.289	26134
822.429	25769
822.569	25822
822.709	25849
822.849	25613
822.99	25647
823.13	25548
823.27	25521
823.41	25403
823.55	25293
823.69	25324
823.83	25282
823.97	25320
824.11	25145
824.25	25034
824.389	25148
824.529	25133
824.669	25080
824.809	25194
824.949	25221
825.089	25126
825.228	25217
825.368	25038
825.508	25046
825.648	25019
825.787	24913
825.927	24810
826.067	24844
826.206	24939
826.346	24985
826.485	25084
826.625	24886
826.765	25046
826.904	24954
827.044	24703
827.183	24760
827.323	24650
827.462	24654
827.601	24677
827.741	24623
827.88	24707
828.02	24369
828.159	24608
828.298	24650
828.437	24715
828.577	24597
828.716	24760
828.855	24475
828.994	24140
829.134	24410
829.273	24369
829.412	24289
829.551	24330
829.69	24186
829.829	24353
829.968	24388
830.107	24471
830.246	24361
830.385	24243
830.524	23977
830.663	24026
830.802	23908
830.941	23874
831.08	23870
831.219	23893
831.357	23969
831.496	24015
831.635	23897
831.774	23790
831.913	23680
832.051	23638
832.19	23676
832.329	23562
832.467	23558
832.606	23463
832.744	23455
832.883	23566
833.022	23543
833.16	23577
833.299	23535
833.437	23592
833.576	23573
833.714	23589
833.852	23573
833.991	23562
834.129	23699
834.267	23558
834.406	23577
834.544	23547
834.682	23627
834.821	23566
834.959	23680
835.097	23448
835.235	23566
835.373	23509
835.511	23463
835.65	23406
835.788	23220
835.926	23258
836.064	23178
836.202	23151
836.34	23318
836.478	23436
836.615	23261
836.753	23288
836.891	23406
837.029	23307
837.167	23239
837.305	23124
837.443	23318
837.58	23075
837.718	23250
837.856	23254
837.993	23155
838.131	23117
838.269	23064
838.406	23056
838.544	23094
838.681	22790
838.819	22748
838.956	22603
839.094	22626
839.231	22729
839.369	22752
839.506	22949
839.643	22885
839.781	22516
839.918	22580
840.055	22584
840.193	22592
840.33	22527
840.467	22599
840.604	22618
840.742	22637
840.879	22337
841.016	22470
841.153	22390
841.29	22611
841.427	22478
841.564	22451
841.701	22443
841.838	22512
841.975	22322
842.112	22405
842.249	22299
842.385	22257
842.522	22516
842.659	22356
842.796	22226
842.933	22253
843.069	22223
843.206	22055
843.343	22382
843.479	22246
843.616	22181
843.752	21953
843.889	21934
844.025	22082
844.162	21937
844.298	22158
844.435	22029
844.571	22032
844.708	21934
844.844	22147
844.98	22139
845.117	21994
845.253	21953
845.389	21751
845.525	21816
845.661	21781
845.798	21766
845.934	21743
846.07	21622
846.206	21743
846.342	21880
846.478	21656
846.614	21534
846.75	21389
846.886	21401
847.022	21500
847.158	21393
847.294	21336
847.429	21412
847.565	21386
847.701	21610
847.837	21074
847.972	21184
848.108	21424
848.244	21252
848.379	20941
848.515	20960
848.65	20941
848.786	21032
848.921	21066
849.057	21077
849.192	21043
849.328	21032
849.463	20906
849.598	20986
849.734	20960
849.869	20849
850.004	20842
850.14	20693
850.275	20765
850.41	20754
850.545	20579
850.68	20716
850.815	20560
850.95	20746
851.085	20902
851.22	20804
851.355	20777
851.49	20838
851.625	20629
851.76	20727
851.895	20590
852.03	20568
852.165	20617
852.299	20830
852.434	20914
852.569	20727
852.703	20621
852.838	20765
852.973	20819
853.107	20868
853.242	20560
853.376	20507
853.511	20381
853.645	20522
853.78	20727
853.914	20457
854.048	20533
854.183	20461
854.317	20568
854.451	20663
854.585	20465
854.72	20473
854.854	20617
854.988	20423
855.122	20503
855.256	20446
855.39	20533
855.524	20522
855.658	20514
855.792	20560
855.926	20492
856.06	20667
856.194	20526
856.327	20450
856.461	20503
856.595	20473
856.729	20400
856.862	20716
856.996	20454
857.13	20454
857.263	20541
857.397	20541
857.53	20461
857.664	20473
857.797	20590
857.931	20514
858.064	20530
858.197	20606
858.331	20457
858.464	20381
858.597	20218
858.731	20374
858.864	20408
858.997	20396
859.13	20400
859.263	20503
859.396	20537
859.529	20336
859.662	20518
859.795	20446
859.928	20469
860.061	20575
860.194	20686
860.327	20454
860.46	20419
860.592	20670
860.725	20678
860.858	20568
860.99	20473
861.123	20374
861.256	20393
861.388	20423
861.521	21157
861.653	20320
861.786	20358
861.918	20347
862.05	20423
862.183	20431
862.315	20457
862.447	20530
862.58	20385
862.712	20214
862.844	20122
862.976	20370
863.108	20248
863.24	20606
863.372	20221
863.504	20073
863.636	20100
863.768	20278
863.9	20149
864.032	20195
864.164	20100
864.296	20187
864.428	20058
864.559	20210
864.691	20149
864.823	20107
864.954	20161
865.086	20157
865.217	20069
865.349	20069
865.48	20043
865.612	20096
865.743	20157
865.875	20016
866.006	20069
866.137	20103
866.269	20035
866.4	20081
866.531	19940
866.662	20001
866.793	19974
866.924	19944
867.055	20077
867.186	20008
867.317	19947
867.448	19959
867.579	20142
867.71	19833
867.841	19959
867.972	19982
868.103	19967
868.233	19982
868.364	20084
868.495	20122
868.625	20225
868.756	20393
868.886	20191
869.017	20130
869.147	20355
869.278	20294
869.408	20320
869.539	20259
869.669	20252
869.799	20199
869.929	20328
870.06	20252
870.19	20621
870.32	20503
870.45	20667
870.58	20754
870.71	20739
870.84	20640
870.97	20533
871.1	20705
871.23	20796
871.36	20895
871.489	20697
871.619	20629
871.749	20781
871.879	20792
872.008	20910
872.138	20849
872.267	20785
872.397	20541
872.526	20461
872.656	20560
872.785	20617
872.915	20929
873.044	21017
873.173	20921
873.303	20765
873.432	20925
873.561	20910
873.69	20842
873.819	20811
873.948	20864
874.077	20796
874.206	20682
874.335	20956
874.464	20963
874.593	21135
874.722	21058
874.851	21184
874.979	21184
875.108	21116
875.237	21024
875.365	21051
875.494	20948
875.623	21085
875.751	21062
875.88	21157
876.008	21222
876.136	21363
876.265	21530
876.393	21641
876.521	21481
876.65	21492
876.778	21500
876.906	21329
877.034	21351
877.162	21511
877.29	21313
877.418	21416
877.546	21386
877.674	21439
877.802	21439
877.93	21481
878.058	21344
878.185	21313
878.313	21374
878.441	21374
878.568	21317
878.696	21378
878.824	21466
878.951	21701
879.079	21553
879.206	21743
879.333	21633
879.461	21553
879.588	21614
879.715	21599
879.842	21656
879.97	21610
880.097	21252
880.224	21123
880.351	21241
880.478	21222
880.605	21272
880.732	21161
880.859	21466
880.986	21237
881.112	21302
881.239	21249
881.366	21013
881.493	20963
881.619	20811
881.746	20910
881.872	20861
881.999	20876
882.125	20773
882.252	20868
882.378	20834
882.505	20982
882.631	20724
882.757	20632
882.883	20644
883.01	20743
883.136	20431
883.262	20385
883.388	20469
883.514	20530
883.64	20621
883.766	20499
883.892	20381
884.018	20552
884.143	20579
884.269	20663
884.395	20309
884.52	20210
884.646	20271
884.772	20267
884.897	20081
885.023	20229
885.148	20374
885.274	20374
885.399	20309
885.524	20343
885.65	20355
885.775	20164
885.9	20263
886.025	20400
886.15	20267
886.275	20088
886.4	20149
886.525	20275
886.65	20138
886.775	20290
886.9	20263
887.025	20499
887.149	20305
887.274	20046
887.399	20092
887.523	19993
887.648	19883
887.773	19936
887.897	20039
888.021	20164
888.146	19913
888.27	20054
888.395	20062
888.519	19978
888.643	20092
888.767	20005
888.891	19963
889.015	19784
889.139	19757
889.263	19647
889.387	19864
889.511	20039
889.635	19849
889.759	19772
889.883	19704
890.006	19647
890.13	19936
890.254	19681
890.377	19734
890.501	19590
890.624	19681
890.748	19525
890.871	19480
890.995	19346
891.118	19335
891.241	19346
891.364	19411
891.488	19358
891.611	19438
891.734	19422
891.857	19381
891.98	19331
892.103	19403
892.226	19331
892.349	19259
892.471	19236
892.594	19293
892.717	19400
892.839	19228
892.962	19483
893.085	19407
893.207	19297
893.33	19168
893.452	19236
893.575	19381
893.697	19190
893.819	19434
893.941	19430
894.064	19381
894.186	19209
894.308	19175
894.43	19285
894.552	19506
894.674	19384
894.796	19122
894.918	19274
895.04	19304
895.161	19438
895.283	19335
895.405	19160
895.526	19426
895.648	19289
895.769	19324
895.891	19434
896.012	19400
896.134	19362
896.255	19369
896.376	19240
896.498	19278
896.619	19289
896.74	19419
896.861	19453
896.982	19674
897.103	19776
897.224	19677
897.345	19643
897.466	19601
897.587	19518
897.708	19677
897.828	19605
897.949	19533
898.07	19312
898.19	19335
898.311	19552
898.431	19559
898.552	19335
898.672	19544
898.792	19582
898.913	19575
899.033	19327
899.153	19381
899.273	19293
899.393	19320
899.513	19274
899.633	19282
899.753	19320
899.873	19164
899.993	19289
900.113	19160
900.232	19339
900.352	19266
900.472	19110
900.591	19000
900.711	19091
900.83	18958
900.95	19160
901.069	19122
901.189	19137
901.308	18726
901.427	18703
901.546	18749
901.665	18707
901.784	18639
901.904	18544
902.023	18414
902.141	18194
902.26	18220
902.379	18197
902.498	18182
902.617	18102
902.735	18213
902.854	18182
902.973	18026
903.091	17954
903.21	17923
903.328	17874
903.446	17729
903.565	17585
903.683	17764
903.801	17452
903.919	17642
904.038	17532
904.156	17535
904.274	17448
904.392	17406
904.51	17425
904.627	17448
904.745	17417
904.863	17425
904.981	17246
905.098	17155
905.216	17105
905.334	17143
905.451	17155
905.569	17056
905.686	17185
905.803	17181
905.921	16889
906.038	17094
906.155	16858
906.272	16721
906.389	16843
906.506	16641
906.623	16660
906.74	16542
906.857	16497
906.974	16485
907.091	16668
907.208	16782
907.324	16733
907.441	16554
907.557	16341
907.674	16287
907.79	16185
907.907	16390
908.023	16322
908.139	16295
908.256	16379
908.372	16200
908.488	16265
908.604	16128
908.72	15975
908.836	16059
908.952	15899
909.068	16078
909.184	16135
909.3	16036
909.415	16078
909.531	16036
909.647	15827
909.762	15751
909.878	15633
909.993	15781
910.108	15739
910.224	15652
910.339	15728
910.454	15614
910.57	15534
910.685	15549
910.8	15679
910.915	15679
911.03	15481
911.145	15405
911.259	15374
911.374	15298
911.489	15188
911.604	15313
911.718	15036
911.833	15047
911.947	15047
912.062	14861
912.176	15032
912.291	15028
912.405	15032
912.519	15211
912.633	15188
912.748	15058
912.862	14986
912.976	14929
913.09	14739
913.204	14830
913.318	14876
913.431	14998
913.545	14883
913.659	14979
913.772	14842
913.886	14670
914	14670
914.113	14785
914.226	14899
914.34	14731
914.453	14587
914.566	14773
914.68	14552
914.793	14522
914.906	14351
915.019	14446
915.132	14233
915.245	14278
915.358	14259
915.47	14362
915.583	14347
915.696	14252
915.809	14404
915.921	14415
916.034	14278
916.146	14233
916.259	14248
916.371	14233
916.483	14210
916.595	14176
916.708	14244
916.82	14180
916.932	14092
917.044	14111
917.156	14077
917.268	14073
917.38	14035
917.491	13997
917.603	14001
917.715	14100
917.826	14058
917.938	13856
918.049	13871
918.161	13883
918.272	14069
918.384	14031
918.495	13932
918.606	13860
918.717	13753
918.828	13731
918.939	13769
919.05	13746
919.161	13822
919.272	13582
919.383	13632
919.494	13795
919.604	13970
919.715	13734
919.826	13723
919.936	13715
920.047	13883
920.157	13864
920.267	13883
920.378	13700
920.488	13704
920.598	13993
920.708	14043
920.818	13803
920.928	13837
921.038	14005
921.148	13902
921.258	13734
921.368	13540
921.477	13559
921.587	13369
921.697	13301
921.806	13518
921.916	13362
922.025	13156
922.134	13156
922.244	13126
922.353	13145
922.462	12875
922.571	12966
922.68	12757
922.789	12665
922.898	12715
923.007	12779
923.116	12753
923.224	12707
923.333	12837
923.442	12593
923.55	12623
923.659	12677
923.767	12658
923.876	12566
923.984	12612
924.092	12422
924.201	12528
924.309	12429
924.417	12544
924.525	12479
924.633	12509
924.741	13228
924.849	12224
924.956	12437
925.064	12330
925.172	12201
925.279	12266
925.387	12296
925.494	12251
925.602	12365
925.709	12266
925.816	12175
925.924	12175
926.031	12262
926.138	12194
926.245	12254
926.352	12072
926.459	12266
926.566	12292
926.673	12038
926.779	12007
926.886	11885
926.993	11893
927.099	11786
927.206	11764
927.312	11703
927.419	11878
927.525	11824
927.631	11802
927.737	11710
927.843	11722
927.95	11535
928.056	11573
928.162	11665
928.267	11634
928.373	12194
928.479	11733
928.585	11463
928.69	11615
928.796	11623
928.901	11600
929.007	11410
929.112	11539
929.218	11448
929.323	11421
929.428	11337
929.533	11589
929.638	11273
929.743	11391
929.848	11356
929.953	11356
930.058	11189
930.163	11079
930.267	11071
930.372	11258
930.477	11090
930.581	11360
930.685	11128
930.79	11029
930.894	10892
930.998	10900
931.103	11105
931.207	10767
931.311	10569
931.415	10504
931.519	10375
931.623	10303
