Data from test_V78500241_322.txt Node
Date: Fri Mar 25 15:12:06 CST 2022
User: usil
Spectrometer: V785-0024
Trigger mode: 0
Integration Time (sec): 4.000000E-1
Scans to average: 1
Nonlinearity correction enabled: false
Boxcar width: 0
Storing dark spectrum: false
XAxis mode: Wavelengths
Number of Pixels in Spectrum: 1024
>>>>>Begin Spectral Data<<<<<
801.071	27899
801.214	27812
801.356	27606
801.499	27439
801.641	27283
801.783	27401
801.926	27473
802.068	27374
802.211	27329
802.353	27313
802.496	27112
802.638	27001
802.78	27036
802.923	27039
803.065	26914
803.208	27058
803.35	26990
803.492	27116
803.635	27184
803.777	27017
803.919	27157
804.061	27462
804.204	27195
804.346	27051
804.488	26944
804.63	27165
804.773	27081
804.915	27165
805.057	27070
805.199	27192
805.341	27093
805.483	27192
805.626	27188
805.768	27131
805.91	27245
806.052	27260
806.194	27154
806.336	27397
806.478	27256
806.62	27252
806.762	27287
806.904	27405
807.046	27732
807.188	27568
807.33	27549
807.472	27724
807.614	27648
807.756	27587
807.898	27473
808.04	27393
808.182	27325
808.324	27397
808.465	27424
808.607	27690
808.749	27785
808.891	27846
809.033	28078
809.174	27892
809.316	27827
809.458	27838
809.6	27926
809.741	27907
809.883	27876
810.025	28021
810.166	28048
810.308	27903
810.45	28139
810.591	28006
810.733	27823
810.875	27755
811.016	27473
811.158	27576
811.299	27922
811.441	27895
811.582	27930
811.724	27766
811.865	27717
812.007	27873
812.148	27720
812.29	27937
812.431	27926
812.573	28074
812.714	28310
812.855	28367
812.997	28478
813.138	28645
813.279	28500
813.421	28382
813.562	28337
813.703	28207
813.845	28109
813.986	27599
814.127	27534
814.268	27564
814.41	27427
814.551	27427
814.692	27500
814.833	27363
814.974	27393
815.115	27580
815.256	27321
815.397	27321
815.539	27245
815.68	27260
815.821	27275
815.962	27355
816.103	27279
816.244	27085
816.385	26990
816.526	26952
816.666	26971
816.807	26590
816.948	26750
817.089	26891
817.23	26750
817.371	26758
817.512	26689
817.653	26746
817.793	26632
817.934	26545
818.075	26765
818.216	26746
818.356	26765
818.497	26602
818.638	26389
818.778	26275
818.919	26263
819.06	26415
819.2	26488
819.341	26651
819.481	26526
819.622	26758
819.762	27028
819.903	26891
820.043	26914
820.184	26876
820.324	26735
820.465	26895
820.605	26906
820.746	26735
820.886	26712
821.026	26697
821.167	26579
821.307	26655
821.447	26537
821.588	26541
821.728	26415
821.868	26343
822.008	26176
822.149	26149
822.289	25997
822.429	25947
822.569	25830
822.709	25742
822.849	25594
822.99	25601
823.13	25563
823.27	25567
823.41	25358
823.55	25282
823.69	25293
823.83	25495
823.97	25396
824.11	25152
824.25	25244
824.389	25213
824.529	25438
824.669	25400
824.809	25464
824.949	25445
825.089	25411
825.228	25350
825.368	25076
825.508	25046
825.648	25160
825.787	25118
825.927	25088
826.067	25088
826.206	25012
826.346	25183
826.485	25236
826.625	25076
826.765	25145
826.904	25160
827.044	24890
827.183	24890
827.323	24772
827.462	24825
827.601	24814
827.741	24726
827.88	24825
828.02	24730
828.159	24848
828.298	24779
828.437	25004
828.577	24738
828.716	24928
828.855	24738
828.994	24669
829.134	24452
829.273	24540
829.412	24517
829.551	24464
829.69	24460
829.829	24696
829.968	24608
830.107	24658
830.246	24559
830.385	24525
830.524	24494
830.663	24353
830.802	24194
830.941	24034
831.08	24098
831.219	24163
831.357	24235
831.496	24190
831.635	24095
831.774	24007
831.913	23954
832.051	23870
832.19	23904
832.329	23988
832.467	23863
832.606	23859
832.744	23756
832.883	23828
833.022	23878
833.16	23699
833.299	23920
833.437	23832
833.576	23958
833.714	23809
833.852	23779
833.991	23828
834.129	23920
834.267	23916
834.406	23767
834.544	23851
834.682	23756
834.821	23783
834.959	23912
835.097	23767
835.235	23798
835.373	23855
835.511	23680
835.65	23699
835.788	23718
835.926	23600
836.064	23509
836.202	23535
836.34	23653
836.478	23726
836.615	23741
836.753	23733
836.891	23798
837.029	23729
837.167	23528
837.305	23509
837.443	23600
837.58	23486
837.718	23531
837.856	23672
837.993	23444
838.131	23589
838.269	23414
838.406	23512
838.544	23356
838.681	23223
838.819	23098
838.956	22896
839.094	22976
839.231	23022
839.369	23105
839.506	23402
839.643	23227
839.781	23064
839.918	22923
840.055	23037
840.193	23025
840.33	22892
840.467	22938
840.604	22953
840.742	23178
840.879	22748
841.016	22828
841.153	22786
841.29	23018
841.427	22889
841.564	22946
841.701	22771
841.838	22869
841.975	22820
842.112	22828
842.249	22641
842.385	22641
842.522	22873
842.659	22721
842.796	22550
842.933	22664
843.069	22592
843.206	22660
843.343	22729
843.479	22554
843.616	22577
843.752	22474
843.889	22390
844.025	22668
844.162	22348
844.298	22451
844.435	22478
844.571	22371
844.708	22455
844.844	22516
844.98	22607
845.117	22554
845.253	22405
845.389	22234
845.525	22272
845.661	22242
845.798	22048
845.934	22223
846.07	22074
846.206	22021
846.342	22177
846.478	22173
846.614	21949
846.75	21781
846.886	21903
847.022	21968
847.158	21922
847.294	21865
847.429	21915
847.565	21778
847.701	22147
847.837	21606
847.972	21507
848.108	21660
848.244	21686
848.379	21500
848.515	21485
848.65	21378
848.786	21507
848.921	21515
849.057	21424
849.192	21572
849.328	21519
849.463	21439
849.598	21477
849.734	21336
849.869	21237
850.004	21146
850.14	21188
850.275	21119
850.41	21157
850.545	21348
850.68	21150
850.815	21306
850.95	21245
851.085	21401
851.22	21279
851.355	21260
851.49	21142
851.625	21180
851.76	21142
851.895	21032
852.03	20982
852.165	21161
852.299	21252
852.434	21313
852.569	21252
852.703	21142
852.838	21294
852.973	21408
853.107	21249
853.242	21222
853.376	20906
853.511	20941
853.645	20952
853.78	21093
853.914	21020
854.048	21020
854.183	20960
854.317	21062
854.451	21173
854.585	21062
854.72	20918
854.854	21017
854.988	20963
855.122	20956
855.256	20838
855.39	20811
855.524	21085
855.658	21077
855.792	20941
855.926	21005
856.06	21077
856.194	21005
856.327	20868
856.461	20914
856.595	20902
856.729	21051
856.862	21085
856.996	20941
857.13	21104
857.263	21043
857.397	21096
857.53	20948
857.664	21013
857.797	21058
857.931	21009
858.064	21024
858.197	21138
858.331	20979
858.464	20925
858.597	20769
858.731	20982
858.864	20891
858.997	20731
859.13	21013
859.263	21032
859.396	21032
859.529	20910
859.662	20899
859.795	20944
859.928	21070
860.061	21176
860.194	21173
860.327	21089
860.46	20956
860.592	21112
860.725	21104
860.858	21051
860.99	21051
861.123	20857
861.256	20929
861.388	20933
861.521	21644
861.653	20906
861.786	20864
861.918	20887
862.05	20891
862.183	20929
862.315	20963
862.447	20994
862.58	20838
862.712	20651
862.844	20632
862.976	20937
863.108	20788
863.24	21184
863.372	20640
863.504	20632
863.636	20530
863.768	20735
863.9	20667
864.032	20609
864.164	20594
864.296	20758
864.428	20746
864.559	20750
864.691	20842
864.823	20621
864.954	20689
865.086	20693
865.217	20533
865.349	20473
865.48	20514
865.612	20579
865.743	20716
865.875	20758
866.006	20488
866.137	20583
866.269	20625
866.4	20587
866.531	20541
866.662	20560
866.793	20571
866.924	20396
867.055	20621
867.186	20492
867.317	20408
867.448	20461
867.579	20503
867.71	20423
867.841	20404
867.972	20556
868.103	20492
868.233	20503
868.364	20514
868.495	20606
868.625	20705
868.756	20857
868.886	20629
869.017	20659
869.147	20804
869.278	20914
869.408	20773
869.539	20735
869.669	20883
869.799	20800
869.929	20842
870.06	20838
870.19	21081
870.32	21100
870.45	21036
870.58	21123
870.71	21241
870.84	21165
870.97	21119
871.1	21093
871.23	21363
871.36	21306
871.489	21264
871.619	21165
871.749	21370
871.879	21397
872.008	21481
872.138	21408
872.267	21256
872.397	21203
872.526	21211
872.656	21161
872.785	21218
872.915	21447
873.044	21405
873.173	21405
873.303	21454
873.432	21523
873.561	21477
873.69	21355
873.819	21420
873.948	21355
874.077	21412
874.206	21287
874.335	21416
874.464	21561
874.593	21671
874.722	21610
874.851	21610
874.979	21618
875.108	21743
875.237	21511
875.365	21515
875.494	21614
875.623	21660
875.751	21538
875.88	21557
876.008	21732
876.136	21785
876.265	21937
876.393	22215
876.521	22139
876.65	22166
876.778	21934
876.906	21903
877.034	22044
877.162	21915
877.29	21797
877.418	21937
877.546	21915
877.674	21865
877.802	21983
877.93	21903
878.058	21880
878.185	21755
878.313	21876
878.441	22017
878.568	21759
878.696	21880
878.824	21846
878.951	21994
879.079	22219
879.206	22238
879.333	22101
879.461	21911
879.588	22021
879.715	22059
879.842	22226
879.97	22082
880.097	21793
880.224	21770
880.351	21713
880.478	21804
880.605	21743
880.732	21751
880.859	22063
880.986	21865
881.112	21861
881.239	21663
881.366	21519
881.493	21408
881.619	21408
881.746	21359
881.872	21393
881.999	21260
882.125	21249
882.252	21367
882.378	21329
882.505	21416
882.631	21321
882.757	21100
882.883	21077
883.01	21146
883.136	21131
883.262	20902
883.388	20948
883.514	21024
883.64	21013
883.766	21005
883.892	20857
884.018	20857
884.143	20952
884.269	21077
884.395	20826
884.52	20693
884.646	20636
884.772	20811
884.897	20663
885.023	20716
885.148	20807
885.274	20864
885.399	20819
885.524	20720
885.65	20758
885.775	20670
885.9	20636
886.025	20823
886.15	20838
886.275	20663
886.4	20537
886.525	20629
886.65	20571
886.775	20590
886.9	20792
887.025	20838
887.149	20568
887.274	20480
887.399	20473
887.523	20473
887.648	20381
887.773	20431
887.897	20564
888.021	20568
888.146	20404
888.27	20571
888.395	20651
888.519	20511
888.643	20518
888.767	20629
888.891	20351
889.015	20275
889.139	20408
889.263	20366
889.387	20400
889.511	20457
889.635	20324
889.759	20271
889.883	20256
890.006	20275
890.13	20400
890.254	20229
890.377	20282
890.501	20142
890.624	19982
890.748	20100
890.871	19917
890.995	19864
891.118	19883
891.241	19921
891.364	19799
891.488	20031
891.611	19765
891.734	19841
891.857	19795
891.98	19791
892.103	19909
892.226	19845
892.349	19780
892.471	19472
892.594	19761
892.717	19845
892.839	19811
892.962	19731
893.085	19833
893.207	19693
893.33	19613
893.452	19693
893.575	19757
893.697	19651
893.819	19932
893.941	20001
894.064	19837
894.186	19693
894.308	19700
894.43	19871
894.552	19951
894.674	19807
894.796	19586
894.918	19719
895.04	19723
895.161	19799
895.283	19742
895.405	19715
895.526	19757
895.648	19727
895.769	19837
895.891	19845
896.012	19753
896.134	19780
896.255	19772
896.376	19662
896.498	19856
896.619	19837
896.74	19788
896.861	19799
896.982	20103
897.103	20237
897.224	20050
897.345	20031
897.466	20046
897.587	20035
897.708	20020
897.828	20069
897.949	19925
898.07	19818
898.19	19967
898.311	20016
898.431	19917
898.552	19917
898.672	20058
898.792	20050
898.913	19974
899.033	19951
899.153	19715
899.273	19742
899.393	19696
899.513	19727
899.633	19727
899.753	19734
899.873	19537
899.993	19765
900.113	19658
900.232	19651
900.352	19674
900.472	19567
900.591	19594
900.711	19647
900.83	19468
900.95	19639
901.069	19605
901.189	19407
901.308	19274
901.427	19080
901.546	19129
901.665	19187
901.784	19103
901.904	18897
902.023	18795
902.141	18719
902.26	18604
902.379	18654
902.498	18585
902.617	18631
902.735	18661
902.854	18506
902.973	18502
903.091	18296
903.21	18285
903.328	18277
903.446	18254
903.565	18133
903.683	18114
903.801	17882
903.919	17984
904.038	17950
904.156	17779
904.274	17946
904.392	17897
904.51	17870
904.627	17786
904.745	17923
904.863	17961
904.981	17707
905.098	17554
905.216	17600
905.334	17615
905.451	17543
905.569	17512
905.686	17528
905.803	17444
905.921	17322
906.038	17387
906.155	17387
906.272	17223
906.389	17280
906.506	17151
906.623	16995
906.74	16995
906.857	16911
906.974	16972
907.091	17124
907.208	17197
907.324	17079
907.441	17010
907.557	16850
907.674	16801
907.79	16767
907.907	16694
908.023	16774
908.139	16782
908.256	16660
908.372	16618
908.488	16618
908.604	16554
908.72	16447
908.836	16455
908.952	16394
909.068	16436
909.184	16531
909.3	16440
909.415	16493
909.531	16424
909.647	16348
909.762	16291
909.878	16204
909.993	16177
910.108	16177
910.224	16204
910.339	16143
910.454	16128
910.57	15994
910.685	15846
910.8	16181
910.915	16192
911.03	15911
911.145	15831
911.259	15880
911.374	15789
911.489	15755
911.604	15622
911.718	15587
911.833	15576
911.947	15466
912.062	15302
912.176	15523
912.291	15424
912.405	15523
912.519	15705
912.633	15709
912.748	15542
912.862	15523
912.976	15340
913.09	15283
913.204	15367
913.318	15412
913.431	15359
913.545	15355
913.659	15477
913.772	15260
913.886	15176
914	15154
914.113	15336
914.226	15264
914.34	15195
914.453	15020
914.566	15135
914.68	15047
914.793	14971
914.906	14853
915.019	14762
915.132	14667
915.245	14727
915.358	14826
915.47	14864
915.583	14697
915.696	14842
915.809	14792
915.921	14887
916.034	14663
916.146	14659
916.259	14705
916.371	14762
916.483	14762
916.595	14587
916.708	14701
916.82	14644
916.932	14602
917.044	14454
917.156	14598
917.268	14393
917.38	14396
917.491	14366
917.603	14332
917.715	14549
917.826	14427
917.938	14320
918.049	14309
918.161	14465
918.272	14495
918.384	14427
918.495	14412
918.606	14240
918.717	14134
918.828	14210
918.939	14191
919.05	14103
919.161	14134
919.272	13917
919.383	14050
919.494	14142
919.604	14370
919.715	14138
919.826	14180
919.936	14164
920.047	14248
920.157	14119
920.267	14385
920.378	14180
920.488	14164
920.598	14275
920.708	14396
920.818	14336
920.928	14233
921.038	14404
921.148	14396
921.258	14035
921.368	14081
921.477	13909
921.587	13936
921.697	13750
921.806	13845
921.916	13769
922.025	13613
922.134	13597
922.244	13495
922.353	13548
922.462	13426
922.571	13388
922.68	13183
922.789	13209
922.898	13225
923.007	13110
923.116	13278
923.224	13129
923.333	13110
923.442	13126
923.55	12981
923.659	13023
923.767	13069
923.876	12890
923.984	13072
924.092	12882
924.201	13031
924.309	13023
924.417	12962
924.525	12901
924.633	12825
924.741	13601
924.849	12681
924.956	12856
925.064	12639
925.172	12532
925.279	12620
925.387	12589
925.494	12627
925.602	12719
925.709	12597
925.816	12563
925.924	12601
926.031	12654
926.138	12642
926.245	12662
926.352	12540
926.459	12578
926.566	12604
926.673	12544
926.779	12319
926.886	12357
926.993	12323
927.099	12129
927.206	12060
927.312	12083
927.419	12296
927.525	12232
927.631	12178
927.737	12053
927.843	12064
927.95	11980
928.056	12079
928.162	11961
928.267	12007
928.373	12703
928.479	12045
928.585	11927
928.69	11931
928.796	12041
928.901	11908
929.007	11695
929.112	11908
929.218	11836
929.323	11729
929.428	11790
929.533	11950
929.638	11554
929.743	11726
929.848	11741
929.953	11737
930.058	11516
930.163	11417
930.267	11455
930.372	11604
930.477	11455
930.581	11634
930.685	11429
930.79	11280
930.894	11356
930.998	11341
931.103	11455
931.207	11128
931.311	10942
931.415	10965
931.519	10786
931.623	10660
