Data from test_V78500241_2355.txt Node
Date: Fri Mar 25 15:26:15 CST 2022
User: usil
Spectrometer: V785-0024
Trigger mode: 0
Integration Time (sec): 4.000000E-1
Scans to average: 1
Nonlinearity correction enabled: false
Boxcar width: 0
Storing dark spectrum: false
XAxis mode: Wavelengths
Number of Pixels in Spectrum: 1024
>>>>>Begin Spectral Data<<<<<
801.071	27355
801.214	27264
801.356	27131
801.499	27013
801.641	26876
801.783	26982
801.926	27066
802.068	26956
802.211	26929
802.353	26762
802.496	26594
802.638	26571
802.78	26541
802.923	26507
803.065	26480
803.208	26484
803.35	26549
803.492	26708
803.635	26880
803.777	26651
803.919	26792
804.061	27161
804.204	26807
804.346	26632
804.488	26644
804.63	26720
804.773	26697
804.915	26819
805.057	26857
805.199	26678
805.341	26682
805.483	26933
805.626	26826
805.768	26845
805.91	26838
806.052	27009
806.194	26765
806.336	27024
806.478	26731
806.62	26834
806.762	26861
806.904	27169
807.046	27367
807.188	27131
807.33	27146
807.472	27370
807.614	27245
807.756	27294
807.898	27070
808.04	27051
808.182	27104
808.324	27184
808.465	27195
808.607	27458
808.749	27458
808.891	27686
809.033	27492
809.174	27557
809.316	27469
809.458	27450
809.6	27401
809.741	27454
809.883	27622
810.025	27793
810.166	27804
810.308	27812
810.45	27641
810.591	27648
810.733	27439
810.875	27534
811.016	27313
811.158	27302
811.299	27587
811.441	27690
811.582	27633
811.724	27500
811.865	27363
812.007	27298
812.148	27507
812.29	27481
812.431	27660
812.573	27831
812.714	27800
812.855	27922
812.997	28013
813.138	28078
813.279	28173
813.421	27968
813.562	27964
813.703	27724
813.845	27667
813.986	27431
814.127	27176
814.268	27203
814.41	27230
814.551	27108
814.692	27192
814.833	27081
814.974	27066
815.115	27264
815.256	27081
815.397	26933
815.539	26960
815.68	26830
815.821	26807
815.962	26921
816.103	26918
816.244	26807
816.385	26758
816.526	26849
816.666	26431
816.807	26484
816.948	26442
817.089	26568
817.23	26446
817.371	26473
817.512	26450
817.653	26358
817.793	26355
817.934	26446
818.075	26347
818.216	26366
818.356	26298
818.497	26248
818.638	26252
818.778	26157
818.919	26225
819.06	26248
819.2	26180
819.341	26438
819.481	26347
819.622	26545
819.762	26708
819.903	26609
820.043	26545
820.184	26511
820.324	26400
820.465	26514
820.605	26594
820.746	26484
820.886	26298
821.026	26396
821.167	26549
821.307	26396
821.447	26484
821.588	26320
821.728	26229
821.868	26008
822.008	25814
822.149	25932
822.289	25868
822.429	25624
822.569	25544
822.709	25556
822.849	25472
822.99	25400
823.13	25403
823.27	25381
823.41	25221
823.55	25084
823.69	25217
823.83	25168
823.97	25122
824.11	24916
824.25	24814
824.389	24970
824.529	25031
824.669	24913
824.809	25103
824.949	25156
825.089	25171
825.228	25034
825.368	24829
825.508	24901
825.648	24973
825.787	24852
825.927	24905
826.067	24791
826.206	24753
826.346	24943
826.485	24856
826.625	24833
826.765	24962
826.904	24996
827.044	24639
827.183	24547
827.323	24559
827.462	24528
827.601	24642
827.741	24494
827.88	24604
828.02	24509
828.159	24540
828.298	24726
828.437	24661
828.577	24494
828.716	24726
828.855	24437
828.994	24296
829.134	24235
829.273	24350
829.412	24197
829.551	24251
829.69	24125
829.829	24258
829.968	24292
830.107	24338
830.246	24247
830.385	24178
830.524	24076
830.663	24034
830.802	24060
830.941	23885
831.08	23809
831.219	24057
831.357	23996
831.496	24076
831.635	23920
831.774	23828
831.913	23783
832.051	23661
832.19	23573
832.329	23794
832.467	23570
832.606	23448
832.744	23524
832.883	23531
833.022	23452
833.16	23493
833.299	23638
833.437	23657
833.576	23752
833.714	23680
833.852	23722
833.991	23718
834.129	23703
834.267	23672
834.406	23642
834.544	23562
834.682	23699
834.821	23653
834.959	23824
835.097	23482
835.235	23634
835.373	23646
835.511	23630
835.65	23596
835.788	23528
835.926	23292
836.064	23349
836.202	23356
836.34	23417
836.478	23531
836.615	23372
836.753	23543
836.891	23440
837.029	23436
837.167	23330
837.305	23303
837.443	23372
837.58	23288
837.718	23425
837.856	23337
837.993	23227
838.131	23421
838.269	23162
838.406	23174
838.544	23117
838.681	22980
838.819	22892
838.956	22797
839.094	22763
839.231	22782
839.369	22930
839.506	23022
839.643	23079
839.781	22801
839.918	22835
840.055	22748
840.193	22850
840.33	22691
840.467	22759
840.604	22740
840.742	23113
840.879	22588
841.016	22660
841.153	22626
841.29	22839
841.427	22744
841.564	22694
841.701	22740
841.838	22774
841.975	22653
842.112	22523
842.249	22554
842.385	22462
842.522	22637
842.659	22584
842.796	22417
842.933	22455
843.069	22428
843.206	22447
843.343	22607
843.479	22554
843.616	22615
843.752	22253
843.889	22253
844.025	22459
844.162	22139
844.298	22272
844.435	22226
844.571	22219
844.708	22207
844.844	22314
844.98	22284
845.117	22421
845.253	22169
845.389	22086
845.525	22303
845.661	22090
845.798	21968
845.934	22010
846.07	22044
846.206	21922
846.342	22006
846.478	22063
846.614	21816
846.75	21694
846.886	21835
847.022	21766
847.158	21705
847.294	21679
847.429	21682
847.565	21622
847.701	21926
847.837	21454
847.972	21336
848.108	21447
848.244	21580
848.379	21283
848.515	21374
848.65	21389
848.786	21344
848.921	21291
849.057	21473
849.192	21348
849.328	21310
849.463	21325
849.598	21340
849.734	21214
849.869	21112
850.004	21150
850.14	21173
850.275	21074
850.41	21070
850.545	21005
850.68	21032
850.815	21085
850.95	21150
851.085	21222
851.22	21199
851.355	21058
851.49	21150
851.625	21020
851.76	21032
851.895	21005
852.03	21051
852.165	21135
852.299	21135
852.434	21104
852.569	21119
852.703	21157
852.838	21074
852.973	21237
853.107	21264
853.242	21020
853.376	20937
853.511	20819
853.645	20921
853.78	20857
853.914	20880
854.048	20864
854.183	20686
854.317	20906
854.451	21127
854.585	20929
854.72	20948
854.854	20948
854.988	20868
855.122	21005
855.256	20872
855.39	20941
855.524	20914
855.658	20963
855.792	21039
855.926	20895
856.06	20971
856.194	20952
856.327	20743
856.461	20785
856.595	20849
856.729	20861
856.862	20914
856.996	20929
857.13	20807
857.263	20979
857.397	20944
857.53	20769
857.664	20979
857.797	20967
857.931	21009
858.064	20876
858.197	20849
858.331	20804
858.464	20864
858.597	20830
858.731	20944
858.864	20925
858.997	20906
859.13	20872
859.263	20845
859.396	20963
859.529	20853
859.662	20864
859.795	20788
859.928	20853
860.061	20990
860.194	21100
860.327	20853
860.46	20906
860.592	20979
860.725	21032
860.858	21036
860.99	20883
861.123	20838
861.256	20880
861.388	21005
861.521	21416
861.653	20807
861.786	20648
861.918	20830
862.05	20830
862.183	20811
862.315	20811
862.447	20864
862.58	20796
862.712	20670
862.844	20575
862.976	20804
863.108	20701
863.24	21009
863.372	20716
863.504	20598
863.636	20579
863.768	20705
863.9	20583
864.032	20457
864.164	20473
864.296	20697
864.428	20689
864.559	20625
864.691	20625
864.823	20765
864.954	20533
865.086	20571
865.217	20602
865.349	20488
865.48	20621
865.612	20503
865.743	20705
865.875	20484
866.006	20465
866.137	20587
866.269	20503
866.4	20454
866.531	20514
866.662	20454
866.793	20385
866.924	20347
867.055	20476
867.186	20564
867.317	20385
867.448	20370
867.579	20495
867.71	20370
867.841	20301
867.972	20442
868.103	20469
868.233	20408
868.364	20446
868.495	20511
868.625	20613
868.756	20895
868.886	20613
869.017	20636
869.147	20701
869.278	20807
869.408	20743
869.539	20708
869.669	20762
869.799	20785
869.929	20902
870.06	20861
870.19	20982
870.32	20975
870.45	21062
870.58	21077
870.71	21226
870.84	21207
870.97	21131
871.1	21077
871.23	21256
871.36	21173
871.489	21104
871.619	21176
871.749	21279
871.879	21416
872.008	21439
872.138	21294
872.267	21348
872.397	21161
872.526	21112
872.656	21161
872.785	21081
872.915	21279
873.044	21431
873.173	21344
873.303	21424
873.432	21310
873.561	21526
873.69	21287
873.819	21298
873.948	21321
874.077	21302
874.206	21233
874.335	21329
874.464	21348
874.593	21428
874.722	21530
874.851	21599
874.979	21393
875.108	21694
875.237	21488
875.365	21424
875.494	21511
875.623	21591
875.751	21606
875.88	21542
876.008	21629
876.136	21854
876.265	21895
876.393	22006
876.521	21975
876.65	22013
876.778	21998
876.906	21869
877.034	21941
877.162	21964
877.29	21857
877.418	21949
877.546	21945
877.674	21884
877.802	21774
877.93	21968
878.058	21884
878.185	21876
878.313	21895
878.441	21941
878.568	21865
878.696	21873
878.824	21907
878.951	21964
879.079	21991
879.206	22207
879.333	22082
879.461	21911
879.588	21956
879.715	22135
879.842	22063
879.97	22036
880.097	21808
880.224	21682
880.351	21793
880.478	21797
880.605	21587
880.732	21717
880.859	21895
880.986	21846
881.112	21842
881.239	21587
881.366	21492
881.493	21294
881.619	21321
881.746	21199
881.872	21340
881.999	21256
882.125	21336
882.252	21321
882.378	21287
882.505	21477
882.631	21173
882.757	20899
882.883	21119
883.01	21108
883.136	21009
883.262	20899
883.388	20891
883.514	20986
883.64	20975
883.766	20902
883.892	20682
884.018	20876
884.143	20948
884.269	21005
884.395	20697
884.52	20492
884.646	20701
884.772	20648
884.897	20575
885.023	20689
885.148	20739
885.274	20765
885.399	20701
885.524	20693
885.65	20617
885.775	20712
885.9	20644
886.025	20659
886.15	20773
886.275	20693
886.4	20541
886.525	20606
886.65	20438
886.775	20632
886.9	20773
887.025	20880
887.149	20492
887.274	20320
887.399	20492
887.523	20427
887.648	20419
887.773	20305
887.897	20511
888.021	20518
888.146	20393
888.27	20511
888.395	20575
888.519	20484
888.643	20484
888.767	20408
888.891	20408
889.015	20122
889.139	20305
889.263	20191
889.387	20286
889.511	20415
889.635	20446
889.759	20221
889.883	20263
890.006	20191
890.13	20419
890.254	20069
890.377	20225
890.501	20008
890.624	19993
890.748	19936
890.871	19947
890.995	19894
891.118	19765
891.241	19902
891.364	19803
891.488	19909
891.611	19811
891.734	19761
891.857	19845
891.98	19932
892.103	19814
892.226	19780
892.349	19811
892.471	19681
892.594	19795
892.717	19708
892.839	19769
892.962	19704
893.085	19871
893.207	19674
893.33	19616
893.452	19807
893.575	19772
893.697	19769
893.819	19757
893.941	19898
894.064	19913
894.186	19738
894.308	19750
894.43	19776
894.552	19784
894.674	19734
894.796	19670
894.918	19666
895.04	19753
895.161	19807
895.283	19780
895.405	19696
895.526	19822
895.648	19723
895.769	19738
895.891	19776
896.012	19803
896.134	19776
896.255	19639
896.376	19685
896.498	19753
896.619	19750
896.74	19807
896.861	19734
896.982	20115
897.103	20050
897.224	20065
897.345	19997
897.466	19940
897.587	20012
897.708	20058
897.828	19986
897.949	19890
898.07	19784
898.19	19868
898.311	19974
898.431	19951
898.552	20062
898.672	20001
898.792	19989
898.913	19989
899.033	19864
899.153	19803
899.273	19704
899.393	19795
899.513	19685
899.633	19723
899.753	19746
899.873	19635
899.993	19689
900.113	19719
900.232	19624
900.352	19704
900.472	19632
900.591	19377
900.711	19540
900.83	19354
900.95	19460
901.069	19544
901.189	19480
901.308	19168
901.427	19069
901.546	19209
901.665	19031
901.784	19061
901.904	18924
902.023	18871
902.141	18730
902.26	18639
902.379	18779
902.498	18597
902.617	18517
902.735	18627
902.854	18585
902.973	18395
903.091	18251
903.21	18235
903.328	18296
903.446	18136
903.565	18167
903.683	18117
903.801	18022
903.919	18022
904.038	18022
904.156	17942
904.274	17916
904.392	17752
904.51	17851
904.627	17904
904.745	17847
904.863	17912
904.981	17699
905.098	17551
905.216	17535
905.334	17554
905.451	17566
905.569	17505
905.686	17471
905.803	17478
905.921	17235
906.038	17452
906.155	17273
906.272	17277
906.389	17216
906.506	17048
906.623	17037
906.74	17010
906.857	16991
906.974	17033
907.091	17151
907.208	17174
907.324	17170
907.441	17048
907.557	16908
907.674	16812
907.79	16812
907.907	16744
908.023	16843
908.139	16797
908.256	16729
908.372	16668
908.488	16694
908.604	16489
908.72	16580
908.836	16580
908.952	16481
909.068	16569
909.184	16596
909.3	16569
909.415	16542
909.531	16596
909.647	16325
909.762	16173
909.878	16207
909.993	16253
910.108	16249
910.224	16150
910.339	16139
910.454	16105
910.57	16029
910.685	15987
910.8	16238
910.915	16223
911.03	15975
911.145	15968
911.259	15747
911.374	15907
911.489	15709
911.604	15717
911.718	15660
911.833	15682
911.947	15549
912.062	15458
912.176	15618
912.291	15561
912.405	15500
912.519	15800
912.633	15724
912.748	15561
912.862	15447
912.976	15386
913.09	15351
913.204	15408
913.318	15420
913.431	15496
913.545	15462
913.659	15431
913.772	15332
913.886	15230
914	15127
914.113	15135
914.226	15222
914.34	15165
914.453	15058
914.566	15226
914.68	14994
914.793	15066
914.906	14883
915.019	14902
915.132	14811
915.245	14769
915.358	14876
915.47	14777
915.583	14834
915.696	14788
915.809	14910
915.921	14925
916.034	14735
916.146	14678
916.259	14746
916.371	14914
916.483	14864
916.595	14674
916.708	14640
916.82	14648
916.932	14613
917.044	14667
917.156	14526
917.268	14511
917.38	14571
917.491	14431
917.603	14545
917.715	14526
917.826	14541
917.938	14389
918.049	14290
918.161	14355
918.272	14648
918.384	14492
918.495	14374
918.606	14267
918.717	14256
918.828	14221
918.939	14221
919.05	14164
919.161	14267
919.272	14073
919.383	14103
919.494	14267
919.604	14473
919.715	14309
919.826	14096
919.936	14103
920.047	14366
920.157	14103
920.267	14412
920.378	14195
920.488	14221
920.598	14389
920.708	14454
920.818	14324
920.928	14339
921.038	14518
921.148	14492
921.258	14161
921.368	14027
921.477	13967
921.587	13890
921.697	13788
921.806	14065
921.916	13826
922.025	13658
922.134	13586
922.244	13582
922.353	13658
922.462	13464
922.571	13400
922.68	13263
922.789	13183
922.898	13236
923.007	13236
923.116	13270
923.224	13179
923.333	13179
923.442	13050
923.55	13065
923.659	13050
923.767	13225
923.876	13012
923.984	13091
924.092	13042
924.201	13034
924.309	13080
924.417	13008
924.525	13042
924.633	12970
924.741	13917
924.849	12726
924.956	12825
925.064	12806
925.172	12646
925.279	12601
925.387	12719
925.494	12665
925.602	12768
925.709	12646
925.816	12593
925.924	12639
926.031	12730
926.138	12601
926.245	12673
926.352	12551
926.459	12612
926.566	12696
926.673	12627
926.779	12361
926.886	12418
926.993	12277
927.099	12365
927.206	12289
927.312	12247
927.419	12239
927.525	12213
927.631	12224
927.737	12239
927.843	12060
927.95	12019
928.056	12026
928.162	12079
928.267	12163
928.373	12639
928.479	12136
928.585	11920
928.69	12060
928.796	12060
928.901	11901
929.007	11798
929.112	11973
929.218	11920
929.323	11817
929.428	11847
929.533	11859
929.638	11775
929.743	11760
929.848	11760
929.953	11802
930.058	11634
930.163	11535
930.267	11543
930.372	11608
930.477	11463
930.581	11676
930.685	11554
930.79	11402
930.894	11455
930.998	11452
931.103	11528
931.207	11090
931.311	11022
931.415	10949
931.519	10793
931.623	10759
