Data from test_V78500241_2162.txt Node
Date: Fri Mar 25 15:24:54 CST 2022
User: usil
Spectrometer: V785-0024
Trigger mode: 0
Integration Time (sec): 4.000000E-1
Scans to average: 1
Nonlinearity correction enabled: false
Boxcar width: 0
Storing dark spectrum: false
XAxis mode: Wavelengths
Number of Pixels in Spectrum: 1024
>>>>>Begin Spectral Data<<<<<
801.071	27694
801.214	27690
801.356	27424
801.499	27275
801.641	27291
801.783	27169
801.926	27329
802.068	27192
802.211	27211
802.353	27127
802.496	27032
802.638	27005
802.78	26781
802.923	26842
803.065	26811
803.208	26899
803.35	26944
803.492	27017
803.635	27081
803.777	26994
803.919	27222
804.061	27572
804.204	27169
804.346	27207
804.488	27089
804.63	27112
804.773	27017
804.915	27173
805.057	27233
805.199	27146
805.341	27085
805.483	27237
805.626	27142
805.768	27169
805.91	27291
806.052	27329
806.194	27093
806.336	27367
806.478	27268
806.62	27203
806.762	27340
806.904	27526
807.046	27675
807.188	27534
807.33	27652
807.472	27667
807.614	27557
807.756	27526
807.898	27481
808.04	27439
808.182	27469
808.324	27564
808.465	27507
808.607	27793
808.749	27671
808.891	27827
809.033	28109
809.174	27994
809.316	27835
809.458	27907
809.6	27789
809.741	28082
809.883	28040
810.025	28177
810.166	28143
810.308	28143
810.45	28029
810.591	28059
810.733	27800
810.875	27816
811.016	27652
811.158	27606
811.299	27968
811.441	27835
811.582	27975
811.724	27774
811.865	27914
812.007	27747
812.148	27907
812.29	27869
812.431	27964
812.573	28143
812.714	28219
812.855	28242
812.997	28516
813.138	28611
813.279	28485
813.421	28421
813.562	28382
813.703	28173
813.845	28040
813.986	27717
814.127	27625
814.268	27583
814.41	27557
814.551	27488
814.692	27454
814.833	27538
814.974	27519
815.115	27606
815.256	27462
815.397	27534
815.539	27283
815.68	27306
815.821	27317
815.962	27378
816.103	27397
816.244	27135
816.385	27039
816.526	26982
816.666	26849
816.807	26876
816.948	26948
817.089	26895
817.23	26944
817.371	26971
817.512	26682
817.653	26777
817.793	26750
817.934	26682
818.075	26845
818.216	26921
818.356	26842
818.497	26670
818.638	26571
818.778	26568
818.919	26640
819.06	26648
819.2	26644
819.341	26815
819.481	26788
819.622	26921
819.762	27123
819.903	26952
820.043	26876
820.184	27024
820.324	26960
820.465	27203
820.605	26975
820.746	26804
820.886	26743
821.026	26895
821.167	26842
821.307	26887
821.447	26864
821.588	26796
821.728	26613
821.868	26427
822.008	26320
822.149	26336
822.289	26282
822.429	25978
822.569	25906
822.709	25944
822.849	25875
822.99	25917
823.13	25685
823.27	25776
823.41	25552
823.55	25544
823.69	25571
823.83	25662
823.97	25552
824.11	25479
824.25	25419
824.389	25358
824.529	25544
824.669	25316
824.809	25400
824.949	25559
825.089	25483
825.228	25388
825.368	25213
825.508	25282
825.648	25297
825.787	25244
825.927	25514
826.067	25324
826.206	25324
826.346	25392
826.485	25365
826.625	25209
826.765	25510
826.904	25285
827.044	25095
827.183	25145
827.323	25084
827.462	25171
827.601	25152
827.741	24985
827.88	25107
828.02	24806
828.159	24954
828.298	24958
828.437	25091
828.577	24970
828.716	25072
828.855	24943
828.994	24875
829.134	24768
829.273	24779
829.412	24840
829.551	24715
829.69	24677
829.829	24863
829.968	24791
830.107	24707
830.246	24681
830.385	24620
830.524	24787
830.663	24479
830.802	24441
830.941	24338
831.08	24167
831.219	24395
831.357	24369
831.496	24540
831.635	24391
831.774	24289
831.913	24205
832.051	24228
832.19	24136
832.329	23992
832.467	24007
832.606	24007
832.744	24041
832.883	23973
833.022	23950
833.16	23958
833.299	24117
833.437	23988
833.576	24030
833.714	23920
833.852	24076
833.991	24159
834.129	24171
834.267	24121
834.406	24034
834.544	24098
834.682	24007
834.821	24144
834.959	24380
835.097	23908
835.235	24091
835.373	23931
835.511	23984
835.65	23847
835.788	23893
835.926	23745
836.064	23562
836.202	23718
836.34	23866
836.478	23855
836.615	23809
836.753	23904
836.891	23832
837.029	23832
837.167	23809
837.305	23859
837.443	23821
837.58	23657
837.718	23855
837.856	23638
837.993	23589
838.131	23760
838.269	23570
838.406	23630
838.544	23581
838.681	23414
838.819	23383
838.956	23212
839.094	23174
839.231	23307
839.369	23467
839.506	23570
839.643	23455
839.781	23155
839.918	23086
840.055	23143
840.193	23121
840.33	23098
840.467	23159
840.604	23090
840.742	23288
840.879	22961
841.016	23071
841.153	23010
841.29	23193
841.427	23200
841.564	23151
841.701	23128
841.838	23086
841.975	22995
842.112	23056
842.249	22953
842.385	22839
842.522	22995
842.659	22923
842.796	22809
842.933	22866
843.069	22831
843.206	22774
843.343	22835
843.479	22850
843.616	22824
843.752	22717
843.889	22660
844.025	22839
844.162	22599
844.298	22691
844.435	22641
844.571	22554
844.708	22679
844.844	22725
844.98	22759
845.117	22668
845.253	22516
845.389	22500
845.525	22565
845.661	22599
845.798	22276
845.934	22561
846.07	22390
846.206	22348
846.342	22519
846.478	22375
846.614	22219
846.75	22086
846.886	21983
847.022	22093
847.158	22116
847.294	22128
847.429	22150
847.565	22040
847.701	22413
847.837	21827
847.972	21755
848.108	21892
848.244	21854
848.379	21804
848.515	21785
848.65	21736
848.786	21743
848.921	21812
849.057	21785
849.192	21724
849.328	21603
849.463	21793
849.598	21698
849.734	21591
849.869	21606
850.004	21545
850.14	21477
850.275	21481
850.41	21367
850.545	21408
850.68	21504
850.815	21488
850.95	21431
851.085	21587
851.22	21663
851.355	21485
851.49	21469
851.625	21355
851.76	21329
851.895	21272
852.03	21329
852.165	21466
852.299	21549
852.434	21526
852.569	21355
852.703	21416
852.838	21466
852.973	21599
853.107	21500
853.242	21397
853.376	21283
853.511	21214
853.645	21363
853.78	21370
853.914	21397
854.048	21348
854.183	21291
854.317	21389
854.451	21420
854.585	21279
854.72	21279
854.854	21393
854.988	21226
855.122	21203
855.256	21192
855.39	21340
855.524	21473
855.658	21302
855.792	21249
855.926	21264
856.06	21332
856.194	21511
856.327	21252
856.461	21313
856.595	21173
856.729	21268
856.862	21340
856.996	21310
857.13	21306
857.263	21458
857.397	21260
857.53	21188
857.664	21264
857.797	21233
857.931	21401
858.064	21336
858.197	21401
858.331	21302
858.464	21195
858.597	21176
858.731	21348
858.864	21157
858.997	21104
859.13	21298
859.263	21279
859.396	21370
859.529	21230
859.662	21272
859.795	21294
859.928	21252
860.061	21439
860.194	21473
860.327	21473
860.46	21275
860.592	21408
860.725	21412
860.858	21317
860.99	21313
861.123	21138
861.256	21100
861.388	21226
861.521	21972
861.653	21074
861.786	21089
861.918	21119
862.05	21169
862.183	21161
862.315	21241
862.447	21340
862.58	21195
862.712	20975
862.844	21001
862.976	21074
863.108	21074
863.24	21374
863.372	20857
863.504	21047
863.636	21013
863.768	21001
863.9	20933
864.032	20925
864.164	20975
864.296	20986
864.428	21077
864.559	20998
864.691	21093
864.823	21039
864.954	21001
865.086	20944
865.217	20891
865.349	20811
865.48	20918
865.612	20921
865.743	21036
865.875	20800
866.006	20842
866.137	20823
866.269	20929
866.4	20830
866.531	20762
866.662	20800
866.793	20765
866.924	20811
867.055	20956
867.186	20899
867.317	20868
867.448	20781
867.579	20781
867.71	20686
867.841	20651
867.972	20857
868.103	20948
868.233	20743
868.364	20720
868.495	21020
868.625	20929
868.756	21112
868.886	20952
869.017	20998
869.147	21203
869.278	21074
869.408	21081
869.539	21051
869.669	21245
869.799	21135
869.929	21096
870.06	21199
870.19	21279
870.32	21211
870.45	21389
870.58	21393
870.71	21469
870.84	21526
870.97	21348
871.1	21416
871.23	21614
871.36	21583
871.489	21511
871.619	21530
871.749	21633
871.879	21599
872.008	21781
872.138	21606
872.267	21625
872.397	21523
872.526	21572
872.656	21424
872.785	21469
872.915	21698
873.044	21743
873.173	21614
873.303	21663
873.432	21743
873.561	21755
873.69	21751
873.819	21644
873.948	21785
874.077	21701
874.206	21599
874.335	21686
874.464	21682
874.593	21934
874.722	21873
874.851	21907
874.979	21876
875.108	21953
875.237	21823
875.365	21694
875.494	21876
875.623	21899
875.751	21869
875.88	21816
876.008	21949
876.136	22044
876.265	22360
876.393	22390
876.521	22295
876.65	22379
876.778	22341
876.906	22207
877.034	22284
877.162	22215
877.29	22112
877.418	22306
877.546	22143
877.674	22196
877.802	22219
877.93	22276
878.058	22116
878.185	22162
878.313	22219
878.441	22234
878.568	22074
878.696	22253
878.824	22303
878.951	22272
879.079	22329
879.206	22546
879.333	22451
879.461	22257
879.588	22318
879.715	22306
879.842	22481
879.97	22257
880.097	22017
880.224	22021
880.351	22025
880.478	22112
880.605	22124
880.732	22093
880.859	22253
880.986	22040
881.112	21968
881.239	21998
881.366	21785
881.493	21637
881.619	21606
881.746	21743
881.872	21519
881.999	21545
882.125	21534
882.252	21652
882.378	21443
882.505	21762
882.631	21496
882.757	21359
882.883	21458
883.01	21492
883.136	21272
883.262	21077
883.388	21233
883.514	21306
883.64	21382
883.766	21313
883.892	21157
884.018	21176
884.143	21237
884.269	21401
884.395	21112
884.52	21009
884.646	21005
884.772	20853
884.897	20788
885.023	20948
885.148	21085
885.274	21165
885.399	21093
885.524	21074
885.65	20872
885.775	21005
885.9	20975
886.025	21024
886.15	20975
886.275	21005
886.4	20975
886.525	20921
886.65	20834
886.775	20921
886.9	21051
887.025	21104
887.149	20891
887.274	20708
887.399	20724
887.523	20800
887.648	20674
887.773	20629
887.897	20762
888.021	20849
888.146	20644
888.27	20792
888.395	20823
888.519	20758
888.643	20682
888.767	20724
888.891	20636
889.015	20511
889.139	20571
889.263	20503
889.387	20640
889.511	20781
889.635	20590
889.759	20400
889.883	20613
890.006	20579
890.13	20640
890.254	20598
890.377	20442
890.501	20233
890.624	20263
890.748	20381
890.871	20199
890.995	20100
891.118	19947
891.241	20043
891.364	20039
891.488	20290
891.611	20172
891.734	20088
891.857	20233
891.98	20073
892.103	20008
892.226	20126
892.349	20107
892.471	19803
892.594	19940
892.717	19989
892.839	20027
892.962	20126
893.085	20187
893.207	20081
893.33	19871
893.452	19928
893.575	20088
893.697	19982
893.819	20130
893.941	20187
894.064	20077
894.186	19856
894.308	19871
894.43	20119
894.552	20149
894.674	20092
894.796	19963
894.918	20043
895.04	19978
895.161	20054
895.283	20153
895.405	19970
895.526	19913
895.648	20077
895.769	20084
895.891	20130
896.012	20168
896.134	20122
896.255	20111
896.376	19906
896.498	19917
896.619	20164
896.74	20035
896.861	20161
896.982	20294
897.103	20518
897.224	20328
897.345	20256
897.466	20111
897.587	20145
897.708	20339
897.828	20259
897.949	20153
898.07	20027
898.19	20157
898.311	20244
898.431	20240
898.552	20252
898.672	20358
898.792	20298
898.913	20180
899.033	20012
899.153	20077
899.273	19921
899.393	20054
899.513	20069
899.633	20016
899.753	20035
899.873	19974
899.993	19989
900.113	20001
900.232	19955
900.352	19902
900.472	19776
900.591	19780
900.711	19811
900.83	19727
900.95	19811
901.069	19803
901.189	19776
901.308	19480
901.427	19369
901.546	19339
901.665	19308
901.784	19274
901.904	19240
902.023	19091
902.141	18878
902.26	18810
902.379	18958
902.498	18764
902.617	18852
902.735	18867
902.854	18802
902.973	18688
903.091	18475
903.21	18654
903.328	18555
903.446	18361
903.565	18422
903.683	18384
903.801	18243
903.919	18376
904.038	18308
904.156	18190
904.274	18216
904.392	18034
904.51	18239
904.627	18022
904.745	18076
904.863	18140
904.981	17885
905.098	17832
905.216	17726
905.334	17798
905.451	17752
905.569	17764
905.686	17836
905.803	17855
905.921	17554
906.038	17695
906.155	17630
906.272	17573
906.389	17516
906.506	17334
906.623	17334
906.74	17353
906.857	17216
906.974	17212
907.091	17368
907.208	17509
907.324	17296
907.441	17083
907.557	17041
907.674	17014
907.79	16930
907.907	17079
908.023	17048
908.139	16965
908.256	16919
908.372	16957
908.488	16949
908.604	16752
908.72	16778
908.836	16744
908.952	16736
909.068	16672
909.184	16938
909.3	16713
909.415	16759
909.531	16694
909.647	16512
909.762	16344
909.878	16440
909.993	16489
910.108	16398
910.224	16508
910.339	16470
910.454	16287
910.57	16226
910.685	16147
910.8	16523
910.915	16352
911.03	16363
911.145	16154
911.259	16021
911.374	16040
911.489	16051
911.604	15918
911.718	15789
911.833	15770
911.947	15614
912.062	15622
912.176	15838
912.291	15789
912.405	15793
912.519	16017
912.633	15983
912.748	15854
912.862	15854
912.976	15625
913.09	15572
913.204	15587
913.318	15561
913.431	15743
913.545	15641
913.659	15637
913.772	15625
913.886	15447
914	15382
914.113	15450
914.226	15553
914.34	15485
914.453	15294
914.566	15428
914.68	15306
914.793	15302
914.906	15070
915.019	15009
915.132	14918
915.245	15097
915.358	14986
915.47	14986
915.583	15097
915.696	15123
915.809	15264
915.921	15173
916.034	14967
916.146	14887
916.259	14880
916.371	15066
916.483	15013
916.595	14864
916.708	14872
916.82	14918
916.932	14758
917.044	14811
917.156	14811
917.268	14712
917.38	14655
917.491	14648
917.603	14712
917.715	14838
917.826	14826
917.938	14629
918.049	14568
918.161	14598
918.272	14693
918.384	14693
918.495	14632
918.606	14454
918.717	14400
918.828	14355
918.939	14423
919.05	14396
919.161	14343
919.272	14191
919.383	14332
919.494	14503
919.604	14644
919.715	14465
919.826	14301
919.936	14412
920.047	14438
920.157	14377
920.267	14625
920.378	14442
920.488	14438
920.598	14583
920.708	14716
920.818	14492
920.928	14621
921.038	14682
921.148	14686
921.258	14370
921.368	14172
921.477	14195
921.587	14161
921.697	14020
921.806	14138
921.916	14073
922.025	13864
922.134	13772
922.244	13715
922.353	13833
922.462	13685
922.571	13647
922.68	13502
922.789	13457
922.898	13441
923.007	13266
923.116	13449
923.224	13400
923.333	13384
923.442	13206
923.55	13285
923.659	13217
923.767	13278
923.876	13263
923.984	13407
924.092	13149
924.201	13263
924.309	13168
924.417	13232
924.525	13076
924.633	13103
924.741	13841
924.849	12909
924.956	13091
925.064	12970
925.172	12878
925.279	12897
925.387	12806
925.494	12852
925.602	12981
925.709	12878
925.816	12745
925.924	12833
926.031	12901
926.138	12795
926.245	12764
926.352	12635
926.459	12760
926.566	12897
926.673	12719
926.779	12601
926.886	12589
926.993	12456
927.099	12498
927.206	12445
927.312	12391
927.419	12429
927.525	12342
927.631	12357
927.737	12243
927.843	12308
927.95	12117
928.056	12277
928.162	12220
928.267	12277
928.373	12882
928.479	12391
928.585	12087
928.69	12197
928.796	12197
928.901	12053
929.007	12041
929.112	12091
929.218	12064
929.323	12068
929.428	11954
929.533	12076
929.638	11912
929.743	11988
929.848	12041
929.953	11927
930.058	11794
930.163	11611
930.267	11653
930.372	11824
930.477	11646
930.581	11752
930.685	11798
930.79	11577
930.894	11562
930.998	11562
931.103	11714
931.207	11311
931.311	11204
931.415	11208
931.519	10896
931.623	10896
