Data from test_V78500241_3531.txt Node
Date: Fri Mar 25 15:34:26 CST 2022
User: usil
Spectrometer: V785-0024
Trigger mode: 0
Integration Time (sec): 4.000000E-1
Scans to average: 1
Nonlinearity correction enabled: false
Boxcar width: 0
Storing dark spectrum: false
XAxis mode: Wavelengths
Number of Pixels in Spectrum: 1024
>>>>>Begin Spectral Data<<<<<
801.071	27454
801.214	27188
801.356	27203
801.499	27043
801.641	26853
801.783	26982
801.926	26960
802.068	26777
802.211	26754
802.353	26811
802.496	26648
802.638	26461
802.78	26560
802.923	26480
803.065	26495
803.208	26541
803.35	26499
803.492	26708
803.635	26754
803.777	26617
803.919	26796
804.061	27013
804.204	26785
804.346	26678
804.488	26587
804.63	26724
804.773	26552
804.915	26758
805.057	26823
805.199	26708
805.341	26583
805.483	26849
805.626	26887
805.768	26678
805.91	26819
806.052	26857
806.194	26796
806.336	26902
806.478	26937
806.62	26800
806.762	26944
806.904	27024
807.046	27340
807.188	27218
807.33	27154
807.472	27291
807.614	27157
807.756	27161
807.898	27119
808.04	26883
808.182	27093
808.324	27146
808.465	27127
808.607	27218
808.749	27405
808.891	27538
809.033	27583
809.174	27439
809.316	27466
809.458	27397
809.6	27359
809.741	27519
809.883	27564
810.025	27660
810.166	27701
810.308	27743
810.45	27648
810.591	27656
810.733	27549
810.875	27431
811.016	27386
811.158	27348
811.299	27633
811.441	27682
811.582	27447
811.724	27492
811.865	27336
812.007	27386
812.148	27492
812.29	27488
812.431	27492
812.573	27644
812.714	27709
812.855	27953
812.997	27972
813.138	28013
813.279	28067
813.421	27979
813.562	27892
813.703	27793
813.845	27572
813.986	27416
814.127	27233
814.268	26967
814.41	27268
814.551	27070
814.692	27089
814.833	27036
814.974	27093
815.115	27119
815.256	26785
815.397	26986
815.539	26933
815.68	26944
815.821	26880
815.962	26804
816.103	26857
816.244	26731
816.385	26712
816.526	26583
816.666	26556
816.807	26347
816.948	26423
817.089	26499
817.23	26351
817.371	26320
817.512	26347
817.653	26343
817.793	26324
817.934	26320
818.075	26396
818.216	26355
818.356	26221
818.497	26176
818.638	25970
818.778	26077
818.919	26210
819.06	26122
819.2	26237
819.341	26415
819.481	26301
819.622	26480
819.762	26785
819.903	26636
820.043	26602
820.184	26408
820.324	26568
820.465	26511
820.605	26484
820.746	26537
820.886	26237
821.026	26488
821.167	26362
821.307	26450
821.447	26419
821.588	26248
821.728	26164
821.868	26088
822.008	25822
822.149	25708
822.289	25761
822.429	25556
822.569	25514
822.709	25487
822.849	25343
822.99	25415
823.13	25441
823.27	25312
823.41	25365
823.55	25103
823.69	25069
823.83	25221
823.97	25019
824.11	24924
824.25	24901
824.389	24996
824.529	25065
824.669	25057
824.809	25133
824.949	25107
825.089	25148
825.228	24840
825.368	24787
825.508	24753
825.648	24779
825.787	24833
825.927	24989
826.067	24802
826.206	24829
826.346	24867
826.485	24897
826.625	24837
826.765	24935
826.904	24825
827.044	24779
827.183	24536
827.323	24437
827.462	24696
827.601	24601
827.741	24601
827.88	24658
828.02	24490
828.159	24597
828.298	24540
828.437	24654
828.577	24627
828.716	24669
828.855	24433
828.994	24285
829.134	24281
829.273	24372
829.412	24186
829.551	24243
829.69	24129
829.829	24304
829.968	24262
830.107	24467
830.246	24201
830.385	24300
830.524	24296
830.663	24201
830.802	23984
830.941	23882
831.08	23786
831.219	24045
831.357	23927
831.496	24064
831.635	23946
831.774	23840
831.913	23813
832.051	23684
832.19	23684
832.329	23718
832.467	23585
832.606	23665
832.744	23505
832.883	23493
833.022	23528
833.16	23634
833.299	23691
833.437	23600
833.576	23691
833.714	23627
833.852	23608
833.991	23786
834.129	23748
834.267	23840
834.406	23531
834.544	23786
834.682	23653
834.821	23543
834.959	23687
835.097	23638
835.235	23611
835.373	23566
835.511	23577
835.65	23554
835.788	23478
835.926	23235
836.064	23162
836.202	23315
836.34	23425
836.478	23687
836.615	23391
836.753	23573
836.891	23562
837.029	23551
837.167	23391
837.305	23414
837.443	23376
837.58	23425
837.718	23299
837.856	23299
837.993	23318
838.131	23273
838.269	23162
838.406	23258
838.544	23132
838.681	22957
838.819	22995
838.956	22854
839.094	22854
839.231	22729
839.369	23037
839.506	23250
839.643	23102
839.781	22759
839.918	22771
840.055	22805
840.193	22820
840.33	22744
840.467	22816
840.604	22847
840.742	23060
840.879	22508
841.016	22588
841.153	22641
841.29	22881
841.427	22702
841.564	22881
841.701	22774
841.838	22752
841.975	22721
842.112	22740
842.249	22577
842.385	22417
842.522	22733
842.659	22596
842.796	22447
842.933	22481
843.069	22436
843.206	22455
843.343	22599
843.479	22557
843.616	22527
843.752	22287
843.889	22322
844.025	22379
844.162	22242
844.298	22386
844.435	22318
844.571	22139
844.708	22268
844.844	22474
844.98	22295
845.117	22405
845.253	22253
845.389	22268
845.525	22196
845.661	22207
845.798	22139
845.934	22135
846.07	22006
846.206	21987
846.342	22150
846.478	21922
846.614	21793
846.75	21644
846.886	21709
847.022	21812
847.158	21644
847.294	21823
847.429	21846
847.565	21694
847.701	21991
847.837	21587
847.972	21416
848.108	21766
848.244	21538
848.379	21389
848.515	21237
848.65	21298
848.786	21249
848.921	21420
849.057	21287
849.192	21408
849.328	21370
849.463	21332
849.598	21192
849.734	21245
849.869	21226
850.004	21173
850.14	21176
850.275	21249
850.41	21013
850.545	21070
850.68	21127
850.815	21058
850.95	21085
851.085	21401
851.22	21233
851.355	21230
851.49	21116
851.625	21123
851.76	21085
851.895	20929
852.03	21020
852.165	21237
852.299	21100
852.434	21237
852.569	21169
852.703	21294
852.838	21135
852.973	21332
853.107	21321
853.242	21070
853.376	20819
853.511	20838
853.645	20925
853.78	21001
853.914	21020
854.048	20933
854.183	20925
854.317	20937
854.451	21154
854.585	21062
854.72	21005
854.854	21070
854.988	20956
855.122	21020
855.256	20800
855.39	20960
855.524	20975
855.658	20979
855.792	20868
855.926	20975
856.06	20914
856.194	20933
856.327	20998
856.461	20906
856.595	20941
856.729	20811
856.862	20952
856.996	20937
857.13	21081
857.263	21028
857.397	21009
857.53	20845
857.664	20967
857.797	20994
857.931	20986
858.064	20975
858.197	20994
858.331	21020
858.464	20891
858.597	20982
858.731	21005
858.864	20830
858.997	20857
859.13	20937
859.263	21058
859.396	21093
859.529	21043
859.662	20933
859.795	20800
859.928	20910
860.061	21112
860.194	21085
860.327	20998
860.46	20925
860.592	21154
860.725	21058
860.858	21005
860.99	21005
861.123	20887
861.256	20944
861.388	20887
861.521	21762
861.653	20868
861.786	20762
861.918	20746
862.05	20804
862.183	20933
862.315	20883
862.447	20910
862.58	20910
862.712	20701
862.844	20686
862.976	20743
863.108	20689
863.24	20853
863.372	20602
863.504	20804
863.636	20663
863.768	20705
863.9	20731
864.032	20606
864.164	20541
864.296	20758
864.428	20788
864.559	20834
864.691	20678
864.823	20602
864.954	20625
865.086	20613
865.217	20499
865.349	20393
865.48	20609
865.612	20446
865.743	20796
865.875	20545
866.006	20389
866.137	20625
866.269	20537
866.4	20473
866.531	20450
866.662	20442
866.793	20473
866.924	20560
867.055	20606
867.186	20434
867.317	20473
867.448	20404
867.579	20438
867.71	20381
867.841	20427
867.972	20621
868.103	20381
868.233	20575
868.364	20575
868.495	20686
868.625	20697
868.756	20826
868.886	20773
869.017	20678
869.147	20800
869.278	20720
869.408	20705
869.539	20693
869.669	20796
869.799	20788
869.929	20826
870.06	20887
870.19	21055
870.32	21074
870.45	21096
870.58	21131
870.71	21306
870.84	21214
870.97	21188
871.1	21085
871.23	21340
871.36	21313
871.489	21294
871.619	21310
871.749	21469
871.879	21454
872.008	21500
872.138	21405
872.267	21389
872.397	21294
872.526	21100
872.656	21237
872.785	21188
872.915	21363
873.044	21393
873.173	21386
873.303	21313
873.432	21397
873.561	21500
873.69	21397
873.819	21256
873.948	21408
874.077	21435
874.206	21340
874.335	21313
874.464	21431
874.593	21603
874.722	21496
874.851	21629
874.979	21564
875.108	21686
875.237	21530
875.365	21462
875.494	21641
875.623	21656
875.751	21576
875.88	21656
876.008	21831
876.136	21759
876.265	22006
876.393	22124
876.521	22109
876.65	22097
876.778	21983
876.906	21964
877.034	21865
877.162	21987
877.29	21922
877.418	21941
877.546	22067
877.674	21994
877.802	21983
877.93	22002
878.058	21930
878.185	21865
878.313	21915
878.441	21869
878.568	21857
878.696	21937
878.824	21918
878.951	21903
879.079	22143
879.206	22124
879.333	22131
879.461	22059
879.588	22029
879.715	22090
879.842	22181
879.97	22006
880.097	21762
880.224	21797
880.351	21778
880.478	21838
880.605	21736
880.732	21857
880.859	21930
880.986	21850
881.112	21846
881.239	21709
881.366	21469
881.493	21401
881.619	21351
881.746	21332
881.872	21382
881.999	21287
882.125	21336
882.252	21397
882.378	21370
882.505	21519
882.631	21226
882.757	21077
882.883	21138
883.01	21108
883.136	21055
883.262	20830
883.388	20842
883.514	21058
883.64	21203
883.766	21074
883.892	20823
884.018	20849
884.143	20952
884.269	21131
884.395	20750
884.52	20659
884.646	20663
884.772	20667
884.897	20651
885.023	20796
885.148	20785
885.274	20857
885.399	20845
885.524	20777
885.65	20716
885.775	20819
885.9	20754
886.025	20758
886.15	20739
886.275	20655
886.4	20629
886.525	20659
886.65	20606
886.775	20678
886.9	20807
887.025	20739
887.149	20705
887.274	20549
887.399	20484
887.523	20621
887.648	20454
887.773	20408
887.897	20575
888.021	20552
888.146	20427
888.27	20434
888.395	20625
888.519	20552
888.643	20537
888.767	20571
888.891	20336
889.015	20267
889.139	20457
889.263	20313
889.387	20476
889.511	20556
889.635	20469
889.759	20256
889.883	20210
890.006	20347
890.13	20351
890.254	20153
890.377	20168
890.501	20084
890.624	20008
890.748	20138
890.871	19997
890.995	19906
891.118	19852
891.241	20016
891.364	20001
891.488	19978
891.611	19856
891.734	19791
891.857	19959
891.98	19875
892.103	19947
892.226	19970
892.349	19818
892.471	19635
892.594	19841
892.717	19925
892.839	19681
892.962	19906
893.085	19826
893.207	19753
893.33	19750
893.452	19738
893.575	19917
893.697	19807
893.819	20005
893.941	20020
894.064	19959
894.186	19871
894.308	19830
894.43	19982
894.552	19997
894.674	19860
894.796	19791
894.918	19704
895.04	19670
895.161	19799
895.283	19841
895.405	19746
895.526	19845
895.648	19761
895.769	19936
895.891	19769
896.012	19830
896.134	19940
896.255	19788
896.376	19746
896.498	19746
896.619	19887
896.74	19791
896.861	19841
896.982	20199
897.103	20275
897.224	20107
897.345	20012
897.466	19959
897.587	19997
897.708	20164
897.828	20096
897.949	19997
898.07	19932
898.19	19955
898.311	20180
898.431	20035
898.552	19989
898.672	20100
898.792	20142
898.913	20084
899.033	19974
899.153	19898
899.273	19765
899.393	19803
899.513	19742
899.633	19887
899.753	19879
899.873	19837
899.993	19708
900.113	19811
900.232	19731
900.352	19666
900.472	19563
900.591	19464
900.711	19635
900.83	19476
900.95	19601
901.069	19719
901.189	19510
901.308	19168
901.427	19160
901.546	19194
901.665	19175
901.784	19122
901.904	18954
902.023	18939
902.141	18776
902.26	18779
902.379	18768
902.498	18658
902.617	18623
902.735	18711
902.854	18582
902.973	18661
903.091	18384
903.21	18376
903.328	18376
903.446	18262
903.565	18182
903.683	18064
903.801	18030
903.919	18121
904.038	18178
904.156	17923
904.274	18053
904.392	17775
904.51	17912
904.627	17969
904.745	18015
904.863	18007
904.981	17699
905.098	17554
905.216	17547
905.334	17665
905.451	17592
905.569	17608
905.686	17646
905.803	17573
905.921	17474
906.038	17478
906.155	17376
906.272	17307
906.389	17216
906.506	17132
906.623	17258
906.74	17056
906.857	17117
906.974	16999
907.091	17128
907.208	17277
907.324	17204
907.441	17083
907.557	16881
907.674	16835
907.79	16839
907.907	16828
908.023	16850
908.139	16782
908.256	16759
908.372	16748
908.488	16740
908.604	16561
908.72	16622
908.836	16653
908.952	16527
909.068	16637
909.184	16740
909.3	16538
909.415	16599
909.531	16607
909.647	16356
909.762	16272
909.878	16329
909.993	16295
910.108	16333
910.224	16223
910.339	16154
910.454	16124
910.57	16124
910.685	15994
910.8	16325
910.915	16177
911.03	16086
911.145	15922
911.259	15846
911.374	15979
911.489	15812
911.604	15713
911.718	15572
911.833	15679
911.947	15557
912.062	15435
912.176	15698
912.291	15694
912.405	15671
912.519	15838
912.633	15747
912.748	15789
912.862	15568
912.976	15443
913.09	15340
913.204	15397
913.318	15443
913.431	15424
913.545	15599
913.659	15587
913.772	15351
913.886	15241
914	15329
914.113	15336
914.226	15363
914.34	15252
914.453	15241
914.566	15321
914.68	15237
914.793	15184
914.906	14796
915.019	14823
915.132	14864
915.245	14891
915.358	14914
915.47	14777
915.583	14872
915.696	14861
915.809	15009
915.921	15108
916.034	14792
916.146	14834
916.259	14724
916.371	14811
916.483	14716
916.595	14777
916.708	14712
916.82	14731
916.932	14663
917.044	14712
917.156	14583
917.268	14507
917.38	14549
917.491	14503
917.603	14564
917.715	14682
917.826	14659
917.938	14461
918.049	14438
918.161	14613
918.272	14712
918.384	14568
918.495	14499
918.606	14381
918.717	14286
918.828	14377
918.939	14336
919.05	14237
919.161	14202
919.272	14100
919.383	14187
919.494	14290
919.604	14400
919.715	14355
919.826	14153
919.936	14237
920.047	14267
920.157	14180
920.267	14476
920.378	14305
920.488	14263
920.598	14385
920.708	14530
920.818	14381
920.928	14438
921.038	14473
921.148	14541
921.258	14187
921.368	14103
921.477	13997
921.587	13997
921.697	13909
921.806	14043
921.916	13921
922.025	13780
922.134	13636
922.244	13636
922.353	13715
922.462	13586
922.571	13533
922.68	13396
922.789	13289
922.898	13304
923.007	13335
923.116	13346
923.224	13316
923.333	13282
923.442	13206
923.55	13126
923.659	13156
923.767	13183
923.876	13145
923.984	13152
924.092	13053
924.201	13133
924.309	13050
924.417	12985
924.525	12970
924.633	12901
924.741	13757
924.849	12791
924.956	12935
925.064	12810
925.172	12745
925.279	12711
925.387	12779
925.494	12688
925.602	12871
925.709	12837
925.816	12639
925.924	12677
926.031	12753
926.138	12719
926.245	12745
926.352	12597
926.459	12684
926.566	12715
926.673	12509
926.779	12464
926.886	12483
926.993	12350
927.099	12361
927.206	12270
927.312	12380
927.419	12304
927.525	12292
927.631	12365
927.737	12178
927.843	12136
927.95	11973
928.056	12121
928.162	12213
928.267	12209
928.373	12677
928.479	12239
928.585	11920
928.69	12072
928.796	12110
928.901	12026
929.007	11859
929.112	12030
929.218	11996
929.323	11916
929.428	11863
929.533	12015
929.638	11779
929.743	11836
929.848	11916
929.953	11878
930.058	11729
930.163	11657
930.267	11649
930.372	11737
930.477	11505
930.581	11710
930.685	11558
930.79	11455
930.894	11535
930.998	11448
931.103	11543
931.207	11197
931.311	11079
931.415	11083
931.519	10908
931.623	10835
