Data from test_V78500241_1333.txt Node
Date: Fri Mar 25 15:19:08 CST 2022
User: usil
Spectrometer: V785-0024
Trigger mode: 0
Integration Time (sec): 4.000000E-1
Scans to average: 1
Nonlinearity correction enabled: false
Boxcar width: 0
Storing dark spectrum: false
XAxis mode: Wavelengths
Number of Pixels in Spectrum: 1024
>>>>>Begin Spectral Data<<<<<
801.071	28070
801.214	27884
801.356	27583
801.499	27671
801.641	27542
801.783	27538
801.926	27686
802.068	27618
802.211	27462
802.353	27393
802.496	27131
802.638	27249
802.78	27127
802.923	27260
803.065	27085
803.208	27005
803.35	27176
803.492	27351
803.635	27310
803.777	27226
803.919	27583
804.061	27709
804.204	27576
804.346	27287
804.488	27332
804.63	27370
804.773	27283
804.915	27450
805.057	27553
805.199	27397
805.341	27477
805.483	27500
805.626	27538
805.768	27447
805.91	27454
806.052	27534
806.194	27351
806.336	27690
806.478	27496
806.62	27595
806.762	27656
806.904	27671
807.046	28090
807.188	27956
807.33	27998
807.472	27949
807.614	27983
807.756	28002
807.898	27774
808.04	27637
808.182	27728
808.324	27800
808.465	27850
808.607	27972
808.749	28128
808.891	28101
809.033	28299
809.174	28135
809.316	28097
809.458	28207
809.6	28196
809.741	28306
809.883	28299
810.025	28436
810.166	28440
810.308	28398
810.45	28417
810.591	28322
810.733	28230
810.875	28158
811.016	28021
811.158	28124
811.299	28325
811.441	28360
811.582	28375
811.724	28234
811.865	28265
812.007	28158
812.148	28120
812.29	28101
812.431	28196
812.573	28584
812.714	28519
812.855	28694
812.997	28828
813.138	28984
813.279	28881
813.421	28839
813.562	28611
813.703	28554
813.845	28367
813.986	28051
814.127	28032
814.268	27964
814.41	27918
814.551	27804
814.692	27831
814.833	27694
814.974	27857
815.115	27922
815.256	27736
815.397	27713
815.539	27720
815.68	27671
815.821	27580
815.962	27793
816.103	27660
816.244	27443
816.385	27469
816.526	27469
816.666	27325
816.807	27047
816.948	27222
817.089	27241
817.23	27119
817.371	27138
817.512	27214
817.653	27062
817.793	27157
817.934	27154
818.075	27127
818.216	27096
818.356	27150
818.497	27100
818.638	26868
818.778	26758
818.919	26815
819.06	26937
819.2	27013
819.341	27104
819.481	27142
819.622	27230
819.762	27496
819.903	27325
820.043	27317
820.184	27249
820.324	27294
820.465	27279
820.605	27214
820.746	27226
820.886	27085
821.026	27275
821.167	27188
821.307	27119
821.447	27096
821.588	27013
821.728	26998
821.868	26678
822.008	26648
822.149	26545
822.289	26579
822.429	26313
822.569	26263
822.709	26320
822.849	26145
822.99	26248
823.13	25963
823.27	26077
823.41	25925
823.55	25788
823.69	25978
823.83	26027
823.97	25955
824.11	25780
824.25	25731
824.389	25788
824.529	25894
824.669	25833
824.809	25784
824.949	25894
825.089	25845
825.228	25700
825.368	25757
825.508	25708
825.648	25639
825.787	25563
825.927	25723
826.067	25563
826.206	25681
826.346	25647
826.485	25590
826.625	25586
826.765	25708
826.904	25578
827.044	25502
827.183	25430
827.323	25228
827.462	25468
827.601	25343
827.741	25358
827.88	25502
828.02	25308
828.159	25445
828.298	25426
828.437	25373
828.577	25358
828.716	25384
828.855	25358
828.994	25031
829.134	25168
829.273	25042
829.412	25122
829.551	24882
829.69	25038
829.829	25088
829.968	25141
830.107	25095
830.246	25031
830.385	24981
830.524	25008
830.663	24996
830.802	24863
830.941	24654
831.08	24700
831.219	24760
831.357	24787
831.496	24844
831.635	24681
831.774	24616
831.913	24471
832.051	24555
832.19	24471
832.329	24505
832.467	24391
832.606	24353
832.744	24410
832.883	24395
833.022	24327
833.16	24315
833.299	24346
833.437	24361
833.576	24505
833.714	24448
833.852	24372
833.991	24441
834.129	24395
834.267	24483
834.406	24384
834.544	24426
834.682	24494
834.821	24350
834.959	24578
835.097	24361
835.235	24540
835.373	24369
835.511	24418
835.65	24277
835.788	24220
835.926	24167
836.064	24026
836.202	24076
836.34	24213
836.478	24292
836.615	24121
836.753	24319
836.891	24327
837.029	24140
837.167	24144
837.305	24041
837.443	24182
837.58	24098
837.718	24110
837.856	24026
837.993	24022
838.131	24152
838.269	24038
838.406	23950
838.544	23855
838.681	23687
838.819	23813
838.956	23539
839.094	23482
839.231	23615
839.369	23771
839.506	23783
839.643	23805
839.781	23585
839.918	23509
840.055	23615
840.193	23554
840.33	23501
840.467	23463
840.604	23512
840.742	23748
840.879	23356
841.016	23520
841.153	23379
841.29	23512
841.427	23524
841.564	23478
841.701	23581
841.838	23444
841.975	23337
842.112	23360
842.249	23303
842.385	23212
842.522	23497
842.659	23246
842.796	23204
842.933	23193
843.069	23216
843.206	23212
843.343	23315
843.479	23261
843.616	23200
843.752	23048
843.889	22946
844.025	23193
844.162	22972
844.298	23143
844.435	22995
844.571	22999
844.708	22984
844.844	23060
844.98	23048
845.117	23140
845.253	22892
845.389	22774
845.525	22843
845.661	22767
845.798	22752
845.934	22759
846.07	22645
846.206	22725
846.342	22801
846.478	22634
846.614	22375
846.75	22261
846.886	22470
847.022	22561
847.158	22459
847.294	22531
847.429	22462
847.565	22455
847.701	22687
847.837	22188
847.972	22207
848.108	22249
848.244	22276
848.379	22086
848.515	21994
848.65	21998
848.786	22044
848.921	21998
849.057	22158
849.192	22025
849.328	22116
849.463	22120
849.598	21987
849.734	21907
849.869	21854
850.004	21793
850.14	21922
850.275	21766
850.41	21698
850.545	21762
850.68	21751
850.815	21937
850.95	21698
851.085	21968
851.22	21979
851.355	21831
851.49	21823
851.625	21838
851.76	21686
851.895	21747
852.03	21724
852.165	21781
852.299	21717
852.434	21755
852.569	21850
852.703	21842
852.838	21800
852.973	21888
853.107	21831
853.242	21827
853.376	21633
853.511	21553
853.645	21622
853.78	21781
853.914	21637
854.048	21477
854.183	21656
854.317	21599
854.451	21808
854.585	21713
854.72	21633
854.854	21553
854.988	21549
855.122	21530
855.256	21538
855.39	21663
855.524	21736
855.658	21701
855.792	21625
855.926	21610
856.06	21682
856.194	21686
856.327	21458
856.461	21568
856.595	21595
856.729	21553
856.862	21644
856.996	21633
857.13	21618
857.263	21819
857.397	21698
857.53	21603
857.664	21732
857.797	21690
857.931	21656
858.064	21690
858.197	21671
858.331	21663
858.464	21637
858.597	21454
858.731	21545
858.864	21667
858.997	21447
859.13	21656
859.263	21648
859.396	21675
859.529	21648
859.662	21622
859.795	21587
859.928	21705
860.061	21778
860.194	21774
860.327	21625
860.46	21679
860.592	21705
860.725	21831
860.858	21648
860.99	21622
861.123	21633
861.256	21580
861.388	21545
861.521	22276
861.653	21473
861.786	21500
861.918	21496
862.05	21488
862.183	21424
862.315	21568
862.447	21660
862.58	21583
862.712	21374
862.844	21233
862.976	21477
863.108	21340
863.24	21637
863.372	21302
863.504	21287
863.636	21363
863.768	21336
863.9	21374
864.032	21272
864.164	21226
864.296	21325
864.428	21447
864.559	21412
864.691	21420
864.823	21401
864.954	21389
865.086	21291
865.217	21066
865.349	21226
865.48	21264
865.612	21184
865.743	21317
865.875	21218
866.006	21230
866.137	21283
866.269	21157
866.4	21241
866.531	21116
866.662	20982
866.793	21180
866.924	21154
867.055	21085
867.186	21135
867.317	21127
867.448	21077
867.579	21047
867.71	21070
867.841	21127
867.972	21207
868.103	21195
868.233	21249
868.364	21157
868.495	21370
868.625	21298
868.756	21504
868.886	21302
869.017	21329
869.147	21614
869.278	21523
869.408	21340
869.539	21382
869.669	21401
869.799	21306
869.929	21469
870.06	21534
870.19	21671
870.32	21637
870.45	21812
870.58	21667
870.71	21732
870.84	21899
870.97	21675
871.1	21762
871.23	21960
871.36	21922
871.489	21907
871.619	21888
871.749	21831
871.879	21972
872.008	22082
872.138	21922
872.267	22032
872.397	21747
872.526	21747
872.656	21895
872.785	21800
872.915	21998
873.044	22067
873.173	22063
873.303	22124
873.432	22025
873.561	22109
873.69	22025
873.819	21934
873.948	22124
874.077	21968
874.206	21899
874.335	21953
874.464	22154
874.593	22204
874.722	22219
874.851	22230
874.979	22265
875.108	22192
875.237	22147
875.365	22082
875.494	22188
875.623	22192
875.751	22131
875.88	22242
876.008	22405
876.136	22417
876.265	22565
876.393	22637
876.521	22683
876.65	22748
876.778	22599
876.906	22596
877.034	22550
877.162	22569
877.29	22459
877.418	22653
877.546	22535
877.674	22535
877.802	22588
877.93	22485
878.058	22371
878.185	22497
878.313	22519
878.441	22497
878.568	22291
878.696	22565
878.824	22649
878.951	22744
879.079	22630
879.206	22965
879.333	22679
879.461	22641
879.588	22687
879.715	22733
879.842	22797
879.97	22713
880.097	22398
880.224	22390
880.351	22481
880.478	22386
880.605	22356
880.732	22386
880.859	22607
880.986	22424
881.112	22455
881.239	22303
881.366	22169
881.493	22128
881.619	21975
881.746	21968
881.872	22040
881.999	21903
882.125	21941
882.252	21964
882.378	21812
882.505	21956
882.631	21823
882.757	21583
882.883	21717
883.01	21625
883.136	21492
883.262	21504
883.388	21397
883.514	21587
883.64	21698
883.766	21568
883.892	21469
884.018	21428
884.143	21538
884.269	21568
884.395	21412
884.52	21294
884.646	21332
884.772	21192
884.897	21176
885.023	21321
885.148	21420
885.274	21504
885.399	21405
885.524	21264
885.65	21386
885.775	21359
885.9	21169
886.025	21370
886.15	21367
886.275	21249
886.4	21252
886.525	21226
886.65	21272
886.775	21199
886.9	21412
887.025	21397
887.149	21272
887.274	21017
887.399	21043
887.523	20956
887.648	21055
887.773	20971
887.897	21055
888.021	21096
888.146	20990
888.27	21135
888.395	21218
888.519	20998
888.643	21154
888.767	21047
888.891	20963
889.015	20689
889.139	20857
889.263	20720
889.387	20902
889.511	20933
889.635	20944
889.759	20826
889.883	20842
890.006	20735
890.13	20800
890.254	20819
890.377	20861
890.501	20606
890.624	20541
890.748	20625
890.871	20602
890.995	20446
891.118	20377
891.241	20438
891.364	20339
891.488	20434
891.611	20370
891.734	20347
891.857	20549
891.98	20423
892.103	20537
892.226	20294
892.349	20473
892.471	20172
892.594	20358
892.717	20328
892.839	20343
892.962	20370
893.085	20355
893.207	20271
893.33	20218
893.452	20142
893.575	20393
893.697	20149
893.819	20431
893.941	20507
894.064	20476
894.186	20271
894.308	20259
894.43	20377
894.552	20423
894.674	20412
894.796	20214
894.918	20282
895.04	20214
895.161	20385
895.283	20294
895.405	20195
895.526	20332
895.648	20176
895.769	20237
895.891	20339
896.012	20446
896.134	20336
896.255	20454
896.376	20290
896.498	20362
896.619	20434
896.74	20290
896.861	20514
896.982	20556
897.103	20655
897.224	20530
897.345	20480
897.466	20469
897.587	20575
897.708	20533
897.828	20537
897.949	20488
898.07	20301
898.19	20431
898.311	20552
898.431	20427
898.552	20484
898.672	20667
898.792	20571
898.913	20522
899.033	20419
899.153	20282
899.273	20229
899.393	20317
899.513	20237
899.633	20214
899.753	20180
899.873	20058
899.993	20229
900.113	20252
900.232	20240
900.352	20126
900.472	20096
900.591	20054
900.711	19955
900.83	19921
900.95	20153
901.069	20065
901.189	19967
901.308	19719
901.427	19518
901.546	19723
901.665	19662
901.784	19582
901.904	19590
902.023	19365
902.141	19282
902.26	19148
902.379	19251
902.498	19179
902.617	19107
902.735	19209
902.854	19141
902.973	19107
903.091	18776
903.21	18768
903.328	18776
903.446	18700
903.565	18635
903.683	18574
903.801	18627
903.919	18544
904.038	18551
904.156	18384
904.274	18448
904.392	18350
904.51	18376
904.627	18429
904.745	18330
904.863	18327
904.981	18239
905.098	18053
905.216	17996
905.334	18060
905.451	18098
905.569	18152
905.686	17931
905.803	18038
905.921	17786
906.038	18045
906.155	17821
906.272	17718
906.389	17718
906.506	17668
906.623	17577
906.74	17566
906.857	17570
906.974	17410
907.091	17543
907.208	17710
907.324	17535
907.441	17436
907.557	17383
907.674	17292
907.79	17223
907.907	17254
908.023	17303
908.139	17246
908.256	17322
908.372	17159
908.488	17098
908.604	16968
908.72	16980
908.836	16953
908.952	16889
909.068	17124
909.184	17064
909.3	16881
909.415	17075
909.531	17067
909.647	16782
909.762	16752
909.878	16679
909.993	16725
910.108	16626
910.224	16645
910.339	16797
910.454	16599
910.57	16451
910.685	16360
910.8	16706
910.915	16702
911.03	16519
911.145	16402
911.259	16242
911.374	16344
911.489	16337
911.604	16162
911.718	16017
911.833	16021
911.947	15922
912.062	15743
912.176	15972
912.291	15937
912.405	16021
912.519	16276
912.633	16242
912.748	16101
912.862	15975
912.976	15968
913.09	15717
913.204	15880
913.318	15876
913.431	15835
913.545	15922
913.659	15975
913.772	15739
913.886	15652
914	15663
914.113	15705
914.226	15857
914.34	15698
914.453	15431
914.566	15671
914.68	15545
914.793	15507
914.906	15397
915.019	15275
915.132	15260
915.245	15260
915.358	15207
915.47	15245
915.583	15214
915.696	15279
915.809	15405
915.921	15359
916.034	15142
916.146	15020
916.259	15157
916.371	15207
916.483	15169
916.595	14994
916.708	15119
916.82	15055
916.932	15081
917.044	15051
917.156	15146
917.268	14883
917.38	14914
917.491	14853
917.603	14834
917.715	14914
917.826	14944
917.938	14807
918.049	14674
918.161	14765
918.272	15005
918.384	14975
918.495	14887
918.606	14617
918.717	14674
918.828	14807
918.939	14731
919.05	14484
919.161	14648
919.272	14461
919.383	14579
919.494	14659
919.604	14952
919.715	14636
919.826	14530
919.936	14632
920.047	14655
920.157	14632
920.267	14857
920.378	14606
920.488	14632
920.598	14796
920.708	14876
920.818	14689
920.928	14735
921.038	14967
921.148	14937
921.258	14598
921.368	14461
921.477	14427
921.587	14362
921.697	14252
921.806	14278
921.916	14263
922.025	14031
922.134	13989
922.244	13986
922.353	14024
922.462	13993
922.571	13879
922.68	13620
922.789	13651
922.898	13620
923.007	13548
923.116	13666
923.224	13647
923.333	13590
923.442	13518
923.55	13491
923.659	13472
923.767	13480
923.876	13384
923.984	13441
924.092	13327
924.201	13346
924.309	13343
924.417	13388
924.525	13301
924.633	13331
924.741	14161
924.849	13122
924.956	13183
925.064	13072
925.172	13034
925.279	13000
925.387	13065
925.494	13046
925.602	13103
925.709	13038
925.816	12981
925.924	12981
926.031	13160
926.138	12996
926.245	13034
926.352	12924
926.459	13053
926.566	13008
926.673	12859
926.779	12817
926.886	12802
926.993	12692
927.099	12658
927.206	12665
927.312	12551
927.419	12593
927.525	12612
927.631	12563
927.737	12544
927.843	12509
927.95	12376
928.056	12426
928.162	12467
928.267	12445
928.373	13057
928.479	12486
928.585	12285
928.69	12315
928.796	12388
928.901	12308
929.007	12178
929.112	12235
929.218	12330
929.323	12224
929.428	12152
929.533	12201
929.638	12129
929.743	12053
929.848	12167
929.953	12106
930.058	11999
930.163	11889
930.267	11859
930.372	11954
930.477	11771
930.581	12011
930.685	11946
930.79	11661
930.894	11821
930.998	11630
931.103	11771
931.207	11474
931.311	11410
931.415	11318
931.519	11204
931.623	11067
