Data from test_V78500241_3271.txt Node
Date: Fri Mar 25 15:32:38 CST 2022
User: usil
Spectrometer: V785-0024
Trigger mode: 0
Integration Time (sec): 4.000000E-1
Scans to average: 1
Nonlinearity correction enabled: false
Boxcar width: 0
Storing dark spectrum: false
XAxis mode: Wavelengths
Number of Pixels in Spectrum: 1024
>>>>>Begin Spectral Data<<<<<
801.071	27298
801.214	27256
801.356	26967
801.499	26891
801.641	26891
801.783	26800
801.926	26758
802.068	26781
802.211	26807
802.353	26819
802.496	26511
802.638	26556
802.78	26412
802.923	26320
803.065	26278
803.208	26415
803.35	26499
803.492	26667
803.635	26598
803.777	26533
803.919	26667
804.061	26880
804.204	26629
804.346	26511
804.488	26518
804.63	26663
804.773	26495
804.915	26720
805.057	26739
805.199	26594
805.341	26758
805.483	26769
805.626	26720
805.768	26663
805.91	26716
806.052	26670
806.194	26564
806.336	26963
806.478	26708
806.62	26621
806.762	26876
806.904	27062
807.046	27313
807.188	27138
807.33	27237
807.472	27127
807.614	27135
807.756	27116
807.898	26982
808.04	26857
808.182	26876
808.324	26944
808.465	27096
808.607	27161
808.749	27336
808.891	27408
809.033	27492
809.174	27321
809.316	27214
809.458	27317
809.6	27374
809.741	27454
809.883	27351
810.025	27622
810.166	27614
810.308	27701
810.45	27603
810.591	27618
810.733	27389
810.875	27298
811.016	27195
811.158	27222
811.299	27325
811.441	27542
811.582	27443
811.724	27466
811.865	27351
812.007	27317
812.148	27222
812.29	27386
812.431	27450
812.573	27625
812.714	27644
812.855	27884
812.997	27930
813.138	28040
813.279	28021
813.421	27812
813.562	27899
813.703	27587
813.845	27492
813.986	27237
814.127	27104
814.268	27062
814.41	26967
814.551	26944
814.692	27108
814.833	26956
814.974	26876
815.115	26933
815.256	26944
815.397	26819
815.539	26777
815.68	26811
815.821	26727
815.962	26727
816.103	26750
816.244	26613
816.385	26514
816.526	26450
816.666	26339
816.807	26145
816.948	26214
817.089	26309
817.23	26240
817.371	26191
817.512	26092
817.653	26248
817.793	26210
817.934	26187
818.075	26202
818.216	26263
818.356	26172
818.497	26183
818.638	25966
818.778	26126
818.919	25982
819.06	25986
819.2	26016
819.341	26214
819.481	26221
819.622	26438
819.762	26499
819.903	26632
820.043	26453
820.184	26427
820.324	26332
820.465	26427
820.605	26313
820.746	26240
820.886	26122
821.026	26324
821.167	26362
821.307	26298
821.447	26229
821.588	26149
821.728	26054
821.868	25833
822.008	25750
822.149	25620
822.289	25655
822.429	25438
822.569	25331
822.709	25445
822.849	25236
822.99	25255
823.13	25320
823.27	25206
823.41	25019
823.55	24871
823.69	25091
823.83	24992
823.97	24939
824.11	24928
824.25	24859
824.389	24722
824.529	24932
824.669	24787
824.809	25114
824.949	24947
825.089	24909
825.228	24894
825.368	24719
825.508	24764
825.648	24700
825.787	24806
825.927	24779
826.067	24692
826.206	24658
826.346	24753
826.485	24817
826.625	24802
826.765	24833
826.904	24810
827.044	24464
827.183	24612
827.323	24391
827.462	24422
827.601	24441
827.741	24532
827.88	24315
828.02	24270
828.159	24441
828.298	24498
828.437	24471
828.577	24327
828.716	24479
828.855	24209
828.994	24121
829.134	24125
829.273	24095
829.412	24121
829.551	24045
829.69	24174
829.829	24136
829.968	24205
830.107	24197
830.246	24201
830.385	24038
830.524	24011
830.663	24022
830.802	23855
830.941	23775
831.08	23771
831.219	23840
831.357	23904
831.496	23973
831.635	23756
831.774	23665
831.913	23737
832.051	23573
832.19	23368
832.329	23425
832.467	23444
832.606	23414
832.744	23490
832.883	23471
833.022	23444
833.16	23379
833.299	23512
833.437	23490
833.576	23448
833.714	23467
833.852	23627
833.991	23482
834.129	23684
834.267	23558
834.406	23493
834.544	23566
834.682	23581
834.821	23505
834.959	23783
835.097	23486
835.235	23573
835.373	23577
835.511	23684
835.65	23372
835.788	23383
835.926	23204
836.064	23185
836.202	23315
836.34	23288
836.478	23337
836.615	23425
836.753	23356
836.891	23425
837.029	23425
837.167	23212
837.305	23227
837.443	23326
837.58	23235
837.718	23398
837.856	23178
837.993	23277
838.131	23216
838.269	23018
838.406	23140
838.544	23094
838.681	22896
838.819	22900
838.956	22664
839.094	22733
839.231	22736
839.369	22896
839.506	23132
839.643	23037
839.781	22668
839.918	22569
840.055	22645
840.193	22649
840.33	22622
840.467	22691
840.604	22656
840.742	22984
840.879	22565
841.016	22527
841.153	22481
841.29	22596
841.427	22481
841.564	22713
841.701	22561
841.838	22557
841.975	22470
842.112	22683
842.249	22497
842.385	22485
842.522	22565
842.659	22402
842.796	22226
842.933	22417
843.069	22253
843.206	22200
843.343	22489
843.479	22485
843.616	22272
843.752	22181
843.889	22230
844.025	22356
844.162	22211
844.298	22166
844.435	22177
844.571	22116
844.708	22185
844.844	22306
844.98	22173
845.117	22382
845.253	22101
845.389	22070
845.525	22059
845.661	22006
845.798	21850
845.934	22036
846.07	21850
846.206	21880
846.342	22109
846.478	21934
846.614	21652
846.75	21526
846.886	21614
847.022	21679
847.158	21545
847.294	21629
847.429	21682
847.565	21591
847.701	21880
847.837	21412
847.972	21416
848.108	21500
848.244	21561
848.379	21275
848.515	21192
848.65	21112
848.786	21169
848.921	21233
849.057	21416
849.192	21313
849.328	21272
849.463	21173
849.598	21199
849.734	21195
849.869	21036
850.004	21013
850.14	20952
850.275	21089
850.41	21062
850.545	20990
850.68	20948
850.815	21135
850.95	21013
851.085	21264
851.22	21116
851.355	21043
851.49	21058
851.625	20853
851.76	21093
851.895	20952
852.03	20887
852.165	21013
852.299	21085
852.434	21108
852.569	21028
852.703	21051
852.838	21108
852.973	21146
853.107	21032
853.242	20944
853.376	20952
853.511	20716
853.645	20861
853.78	21009
853.914	20853
854.048	20868
854.183	20899
854.317	20876
854.451	21074
854.585	20815
854.72	20788
854.854	20925
854.988	20693
855.122	20796
855.256	20659
855.39	20864
855.524	20956
855.658	20815
855.792	20891
855.926	20960
856.06	20842
856.194	20853
856.327	20765
856.461	20762
856.595	20849
856.729	20872
856.862	20948
856.996	20823
857.13	20853
857.263	20971
857.397	21032
857.53	20815
857.664	20967
857.797	20998
857.931	20899
858.064	20937
858.197	21024
858.331	20910
858.464	20804
858.597	20712
858.731	20921
858.864	20883
858.997	20682
859.13	20781
859.263	20880
859.396	20842
859.529	20754
859.662	20811
859.795	20697
859.928	20845
860.061	20998
860.194	21058
860.327	20815
860.46	20838
860.592	20956
860.725	21055
860.858	21058
860.99	20948
861.123	20807
861.256	20796
861.388	20861
861.521	21447
861.653	20815
861.786	20621
861.918	20697
862.05	20682
862.183	20750
862.315	20823
862.447	20845
862.58	20929
862.712	20606
862.844	20488
862.976	20735
863.108	20689
863.24	20979
863.372	20583
863.504	20507
863.636	20617
863.768	20526
863.9	20530
864.032	20480
864.164	20469
864.296	20560
864.428	20762
864.559	20705
864.691	20602
864.823	20571
864.954	20545
865.086	20613
865.217	20590
865.349	20389
865.48	20454
865.612	20427
865.743	20602
865.875	20511
866.006	20446
866.137	20530
866.269	20385
866.4	20457
866.531	20381
866.662	20366
866.793	20393
866.924	20427
867.055	20533
867.186	20434
867.317	20370
867.448	20317
867.579	20324
867.71	20461
867.841	20351
867.972	20556
868.103	20465
868.233	20381
868.364	20374
868.495	20442
868.625	20663
868.756	20777
868.886	20609
869.017	20583
869.147	20724
869.278	20758
869.408	20727
869.539	20640
869.669	20754
869.799	20663
869.929	20781
870.06	20762
870.19	20975
870.32	21001
870.45	20948
870.58	21104
870.71	21173
870.84	21218
870.97	21146
871.1	21135
871.23	21195
871.36	21306
871.489	21062
871.619	21195
871.749	21264
871.879	21321
872.008	21405
872.138	21279
872.267	21226
872.397	21123
872.526	21077
872.656	21062
872.785	21142
872.915	21348
873.044	21325
873.173	21378
873.303	21325
873.432	21397
873.561	21321
873.69	21302
873.819	21367
873.948	21241
874.077	21252
874.206	21279
874.335	21279
874.464	21386
874.593	21622
874.722	21439
874.851	21526
874.979	21614
875.108	21538
875.237	21538
875.365	21401
875.494	21511
875.623	21443
875.751	21485
875.88	21530
876.008	21686
876.136	21709
876.265	21922
876.393	22017
876.521	21998
876.65	21888
876.778	21804
876.906	21926
877.034	21819
877.162	21854
877.29	21903
877.418	21968
877.546	21812
877.674	21941
877.802	21915
877.93	21983
878.058	21892
878.185	21850
878.313	21816
878.441	21774
878.568	21743
878.696	21903
878.824	21895
878.951	21991
879.079	21975
879.206	22143
879.333	22025
879.461	21850
879.588	21991
879.715	22021
879.842	22173
879.97	21915
880.097	21728
880.224	21751
880.351	21717
880.478	21789
880.605	21667
880.732	21675
880.859	21998
880.986	21660
881.112	21781
881.239	21587
881.366	21447
881.493	21332
881.619	21264
881.746	21321
881.872	21401
881.999	21180
882.125	21203
882.252	21241
882.378	21100
882.505	21275
882.631	21104
882.757	21039
882.883	21100
883.01	21112
883.136	21051
883.262	20899
883.388	20804
883.514	20998
883.64	20975
883.766	20883
883.892	20743
884.018	20815
884.143	20861
884.269	20948
884.395	20651
884.52	20640
884.646	20693
884.772	20556
884.897	20514
885.023	20667
885.148	20636
885.274	20826
885.399	20826
885.524	20579
885.65	20602
885.775	20632
885.9	20606
886.025	20606
886.15	20682
886.275	20442
886.4	20507
886.525	20640
886.65	20465
886.775	20514
886.9	20659
887.025	20807
887.149	20537
887.274	20431
887.399	20377
887.523	20309
887.648	20294
887.773	20374
887.897	20457
888.021	20446
888.146	20336
888.27	20389
888.395	20396
888.519	20423
888.643	20385
888.767	20412
888.891	20263
889.015	20210
889.139	20157
889.263	20199
889.387	20317
889.511	20465
889.635	20457
889.759	20172
889.883	20134
890.006	20218
890.13	20317
890.254	20180
890.377	20027
890.501	19970
890.624	20001
890.748	19997
890.871	19811
890.995	19609
891.118	19681
891.241	19795
891.364	19814
891.488	19906
891.611	19818
891.734	19811
891.857	19902
891.98	19715
892.103	19803
892.226	19734
892.349	19807
892.471	19533
892.594	19658
892.717	19658
892.839	19757
892.962	19651
893.085	19624
893.207	19662
893.33	19628
893.452	19647
893.575	19685
893.697	19700
893.819	19883
893.941	19940
894.064	19902
894.186	19734
894.308	19529
894.43	19814
894.552	19928
894.674	19750
894.796	19521
894.918	19738
895.04	19658
895.161	19860
895.283	19693
895.405	19578
895.526	19700
895.648	19689
895.769	19753
895.891	19734
896.012	19826
896.134	19651
896.255	19677
896.376	19715
896.498	19624
896.619	19704
896.74	19620
896.861	19780
896.982	20012
897.103	20043
897.224	20027
897.345	19868
897.466	19913
897.587	19803
897.708	20031
897.828	19841
897.949	19875
898.07	19666
898.19	19826
898.311	19955
898.431	19822
898.552	19925
898.672	19963
898.792	19974
898.913	19989
899.033	19856
899.153	19696
899.273	19594
899.393	19658
899.513	19658
899.633	19704
899.753	19651
899.873	19708
899.993	19791
900.113	19556
900.232	19594
900.352	19586
900.472	19506
900.591	19297
900.711	19487
900.83	19514
900.95	19552
901.069	19506
901.189	19365
901.308	19069
901.427	19110
901.546	19012
901.665	19088
901.784	19000
901.904	18886
902.023	18894
902.141	18650
902.26	18483
902.379	18658
902.498	18528
902.617	18509
902.735	18650
902.854	18517
902.973	18441
903.091	18220
903.21	18350
903.328	18334
903.446	18129
903.565	18068
903.683	18019
903.801	17916
903.919	17935
904.038	17908
904.156	17942
904.274	17954
904.392	17836
904.51	17729
904.627	17729
904.745	17798
904.863	17878
904.981	17657
905.098	17532
905.216	17520
905.334	17539
905.451	17463
905.569	17440
905.686	17520
905.803	17505
905.921	17311
906.038	17349
906.155	17284
906.272	17197
906.389	17223
906.506	17166
906.623	17018
906.74	16934
906.857	16850
906.974	16908
907.091	17113
907.208	17162
907.324	17045
907.441	16869
907.557	16847
907.674	16717
907.79	16683
907.907	16516
908.023	16881
908.139	16752
908.256	16660
908.372	16645
908.488	16596
908.604	16546
908.72	16466
908.836	16447
908.952	16508
909.068	16413
909.184	16569
909.3	16413
909.415	16466
909.531	16516
909.647	16219
909.762	16249
909.878	16223
909.993	16215
910.108	16207
910.224	16093
910.339	16234
910.454	16097
910.57	16025
910.685	15880
910.8	16173
910.915	16147
911.03	15975
911.145	15762
911.259	15762
911.374	15762
911.489	15675
911.604	15679
911.718	15519
911.833	15648
911.947	15412
912.062	15374
912.176	15603
912.291	15500
912.405	15606
912.519	15728
912.633	15728
912.748	15500
912.862	15534
912.976	15332
913.09	15275
913.204	15344
913.318	15439
913.431	15473
913.545	15458
913.659	15462
913.772	15401
913.886	15256
914	15112
914.113	15268
914.226	15249
914.34	15207
914.453	15070
914.566	15226
914.68	14967
914.793	14967
914.906	14933
915.019	14773
915.132	14765
915.245	14788
915.358	14796
915.47	14830
915.583	14781
915.696	14796
915.809	14857
915.921	14845
916.034	14788
916.146	14686
916.259	14617
916.371	14785
916.483	14686
916.595	14655
916.708	14636
916.82	14670
916.932	14568
917.044	14556
917.156	14575
917.268	14423
917.38	14507
917.491	14389
917.603	14530
917.715	14480
917.826	14518
917.938	14530
918.049	14286
918.161	14434
918.272	14450
918.384	14457
918.495	14385
918.606	14259
918.717	14199
918.828	14244
918.939	14294
919.05	14199
919.161	14202
919.272	14054
919.383	14134
919.494	14244
919.604	14366
919.715	14221
919.826	14065
919.936	14092
920.047	14256
920.157	14240
920.267	14313
920.378	14145
920.488	14111
920.598	14370
920.708	14415
920.818	14427
920.928	14389
921.038	14412
921.148	14476
921.258	14134
921.368	13982
921.477	13864
921.587	13906
921.697	13784
921.806	13925
921.916	13871
922.025	13704
922.134	13620
922.244	13525
922.353	13582
922.462	13449
922.571	13350
922.68	13282
922.789	13126
922.898	13301
923.007	13145
923.116	13274
923.224	13270
923.333	13190
923.442	13099
923.55	13050
923.659	13076
923.767	13091
923.876	13069
923.984	13065
924.092	12916
924.201	13065
924.309	12951
924.417	13004
924.525	12916
924.633	12886
924.741	13833
924.849	12749
924.956	12833
925.064	12642
925.172	12544
925.279	12711
925.387	12639
925.494	12650
925.602	12859
925.709	12707
925.816	12551
925.924	12612
926.031	12700
926.138	12639
926.245	12585
926.352	12513
926.459	12585
926.566	12597
926.673	12532
926.779	12448
926.886	12456
926.993	12175
927.099	12232
927.206	12152
927.312	12152
927.419	12205
927.525	12232
927.631	12300
927.737	12045
927.843	12015
927.95	11973
928.056	12095
928.162	12106
928.267	12015
928.373	12658
928.479	12159
928.585	11878
928.69	11992
928.796	12041
928.901	11885
929.007	11790
929.112	11923
929.218	11870
929.323	11817
929.428	11760
929.533	11859
929.638	11676
929.743	11729
929.848	11783
929.953	11707
930.058	11600
930.163	11417
930.267	11520
930.372	11661
930.477	11463
930.581	11680
930.685	11512
930.79	11349
930.894	11318
930.998	11364
931.103	11421
931.207	11075
931.311	11052
931.415	10934
931.519	10755
931.623	10763
