Data from test_V78500241_2208.txt Node
Date: Fri Mar 25 15:25:14 CST 2022
User: usil
Spectrometer: V785-0024
Trigger mode: 0
Integration Time (sec): 4.000000E-1
Scans to average: 1
Nonlinearity correction enabled: false
Boxcar width: 0
Storing dark spectrum: false
XAxis mode: Wavelengths
Number of Pixels in Spectrum: 1024
>>>>>Begin Spectral Data<<<<<
801.071	27785
801.214	27808
801.356	27663
801.499	27496
801.641	27370
801.783	27325
801.926	27553
802.068	27405
802.211	27329
802.353	27192
802.496	27009
802.638	27154
802.78	27081
802.923	26906
803.065	26975
803.208	26910
803.35	26952
803.492	27230
803.635	27294
803.777	27032
803.919	27222
804.061	27542
804.204	27317
804.346	27226
804.488	27226
804.63	27291
804.773	27062
804.915	27237
805.057	27260
805.199	27321
805.341	27427
805.483	27310
805.626	27355
805.768	27450
805.91	27256
806.052	27268
806.194	27382
806.336	27641
806.478	27466
806.62	27382
806.762	27363
806.904	27682
807.046	27934
807.188	27934
807.33	27838
807.472	27873
807.614	27675
807.756	27705
807.898	27755
808.04	27698
808.182	27774
808.324	27759
808.465	27717
808.607	27808
808.749	27842
808.891	28025
809.033	28158
809.174	28006
809.316	27964
809.458	27949
809.6	28013
809.741	28097
809.883	28120
810.025	28295
810.166	28356
810.308	28249
810.45	28109
810.591	28303
810.733	27994
810.875	27934
811.016	27914
811.158	27930
811.299	28219
811.441	28207
811.582	28105
811.724	28116
811.865	28025
812.007	27968
812.148	27941
812.29	28097
812.431	28143
812.573	28291
812.714	28356
812.855	28512
812.997	28645
813.138	28687
813.279	28607
813.421	28493
813.562	28523
813.703	28318
813.845	28257
813.986	27819
814.127	27755
814.268	27739
814.41	27633
814.551	27743
814.692	27720
814.833	27576
814.974	27671
815.115	27774
815.256	27523
815.397	27496
815.539	27606
815.68	27530
815.821	27496
815.962	27519
816.103	27481
816.244	27317
816.385	27203
816.526	27211
816.666	27024
816.807	27055
816.948	27028
817.089	27077
817.23	27081
817.371	26948
817.512	27085
817.653	26823
817.793	26895
817.934	27047
818.075	26880
818.216	26849
818.356	27020
818.497	26804
818.638	26697
818.778	26651
818.919	26838
819.06	26746
819.2	26899
819.341	26902
819.481	27043
819.622	27081
819.762	27218
819.903	27264
820.043	27180
820.184	27062
820.324	27001
820.465	27150
820.605	27093
820.746	27028
820.886	26933
821.026	27028
821.167	27169
821.307	27138
821.447	27039
821.588	26937
821.728	26720
821.868	26651
822.008	26507
822.149	26366
822.289	26446
822.429	26126
822.569	26046
822.709	26225
822.849	26027
822.99	25856
823.13	25909
823.27	26001
823.41	25761
823.55	25693
823.69	25731
823.83	25757
823.97	25533
824.11	25453
824.25	25563
824.389	25510
824.529	25666
824.669	25518
824.809	25674
824.949	25567
825.089	25639
825.228	25605
825.368	25324
825.508	25552
825.648	25419
825.787	25430
825.927	25422
826.067	25324
826.206	25457
826.346	25499
826.485	25518
826.625	25445
826.765	25495
826.904	25479
827.044	25122
827.183	25202
827.323	25171
827.462	25213
827.601	25244
827.741	25091
827.88	25187
828.02	25091
828.159	25122
828.298	25175
828.437	25217
828.577	25088
828.716	25236
828.855	25103
828.994	24764
829.134	24897
829.273	24882
829.412	24882
829.551	24779
829.69	24894
829.829	24700
829.968	24897
830.107	24973
830.246	24806
830.385	24802
830.524	24840
830.663	24673
830.802	24536
830.941	24308
831.08	24399
831.219	24528
831.357	24483
831.496	24639
831.635	24395
831.774	24239
831.913	24289
832.051	24228
832.19	24247
832.329	24213
832.467	24205
832.606	24102
832.744	23961
832.883	23965
833.022	23954
833.16	24072
833.299	24144
833.437	24201
833.576	24304
833.714	24224
833.852	24251
833.991	24304
834.129	24144
834.267	24174
834.406	24114
834.544	24194
834.682	24057
834.821	24091
834.959	24285
835.097	24152
835.235	24262
835.373	24167
835.511	24095
835.65	24011
835.788	23984
835.926	23874
836.064	23684
836.202	23851
836.34	23942
836.478	24182
836.615	23958
836.753	23961
836.891	24076
837.029	24106
837.167	23870
837.305	23882
837.443	23733
837.58	23726
837.718	24003
837.856	23824
837.993	23767
838.131	23851
838.269	23695
838.406	23790
838.544	23680
838.681	23505
838.819	23436
838.956	23330
839.094	23341
839.231	23520
839.369	23372
839.506	23710
839.643	23524
839.781	23330
839.918	23269
840.055	23197
840.193	23315
840.33	23261
840.467	23204
840.604	23231
840.742	23440
840.879	23193
841.016	23098
841.153	23090
841.29	23261
841.427	23170
841.564	23200
841.701	23216
841.838	23136
841.975	23113
842.112	23151
842.249	23033
842.385	23010
842.522	23170
842.659	23022
842.796	22873
842.933	23014
843.069	22934
843.206	22790
843.343	23067
843.479	22915
843.616	23044
843.752	22744
843.889	22752
844.025	22892
844.162	22763
844.298	22873
844.435	22531
844.571	22790
844.708	22744
844.844	22904
844.98	22949
845.117	22793
845.253	22599
845.389	22641
845.525	22660
845.661	22607
845.798	22516
845.934	22455
846.07	22550
846.206	22561
846.342	22713
846.478	22432
846.614	22219
846.75	22124
846.886	22249
847.022	22158
847.158	22310
847.294	22276
847.429	22063
847.565	22105
847.701	22421
847.837	21865
847.972	21926
848.108	22059
848.244	22059
848.379	21884
848.515	21876
848.65	21800
848.786	21656
848.921	21766
849.057	21857
849.192	21835
849.328	21823
849.463	21766
849.598	21648
849.734	21724
849.869	21690
850.004	21637
850.14	21549
850.275	21534
850.41	21431
850.545	21564
850.68	21492
850.815	21599
850.95	21545
851.085	21861
851.22	21641
851.355	21496
851.49	21428
851.625	21553
851.76	21462
851.895	21492
852.03	21439
852.165	21538
852.299	21568
852.434	21637
852.569	21530
852.703	21496
852.838	21606
852.973	21561
853.107	21709
853.242	21462
853.376	21370
853.511	21192
853.645	21294
853.78	21466
853.914	21397
854.048	21279
854.183	21370
854.317	21454
854.451	21542
854.585	21420
854.72	21428
854.854	21382
854.988	21363
855.122	21397
855.256	21233
855.39	21412
855.524	21397
855.658	21450
855.792	21275
855.926	21443
856.06	21310
856.194	21469
856.327	21332
856.461	21245
856.595	21412
856.729	21363
856.862	21386
856.996	21298
857.13	21504
857.263	21534
857.397	21424
857.53	21135
857.664	21378
857.797	21428
857.931	21454
858.064	21393
858.197	21447
858.331	21389
858.464	21245
858.597	21256
858.731	21435
858.864	21389
858.997	21363
859.13	21428
859.263	21363
859.396	21329
859.529	21428
859.662	21283
859.795	21252
859.928	21363
860.061	21557
860.194	21599
860.327	21458
860.46	21439
860.592	21450
860.725	21443
860.858	21523
860.99	21447
861.123	21245
861.256	21287
861.388	21351
861.521	22070
861.653	21127
861.786	21131
861.918	21188
862.05	21264
862.183	21283
862.315	21386
862.447	21412
862.58	21321
862.712	21116
862.844	21119
862.976	21226
863.108	21176
863.24	21367
863.372	21009
863.504	21051
863.636	21138
863.768	21100
863.9	21135
864.032	21043
864.164	21085
864.296	21020
864.428	21127
864.559	21192
864.691	21150
864.823	21165
864.954	21119
865.086	21074
865.217	20960
865.349	20971
865.48	20971
865.612	21017
865.743	21017
865.875	21020
866.006	20910
866.137	21028
866.269	20979
866.4	20876
866.531	20895
866.662	20861
866.793	20842
866.924	20914
867.055	21028
867.186	20883
867.317	20887
867.448	20800
867.579	20876
867.71	20735
867.841	20788
867.972	20941
868.103	20826
868.233	20971
868.364	20792
868.495	21116
868.625	21138
868.756	21245
868.886	21043
869.017	21123
869.147	21252
869.278	21256
869.408	21135
869.539	21077
869.669	21237
869.799	21287
869.929	21222
870.06	21233
870.19	21424
870.32	21492
870.45	21576
870.58	21386
870.71	21633
870.84	21682
870.97	21587
871.1	21583
871.23	21709
871.36	21534
871.489	21663
871.619	21720
871.749	21785
871.879	21793
872.008	21793
872.138	21793
872.267	21644
872.397	21629
872.526	21481
872.656	21507
872.785	21523
872.915	21838
873.044	21823
873.173	21736
873.303	21743
873.432	21869
873.561	21720
873.69	21865
873.819	21781
873.948	21774
874.077	21838
874.206	21614
874.335	21808
874.464	21861
874.593	21964
874.722	21994
874.851	21975
874.979	22006
875.108	21994
875.237	21903
875.365	21930
875.494	21975
875.623	21953
875.751	22032
875.88	22207
876.008	22116
876.136	22044
876.265	22405
876.393	22516
876.521	22405
876.65	22504
876.778	22341
876.906	22352
877.034	22291
877.162	22367
877.29	22360
877.418	22455
877.546	22344
877.674	22352
877.802	22272
877.93	22303
878.058	22249
878.185	22177
878.313	22265
878.441	22421
878.568	22158
878.696	22223
878.824	22379
878.951	22493
879.079	22390
879.206	22584
879.333	22607
879.461	22367
879.588	22459
879.715	22607
879.842	22675
879.97	22280
880.097	22154
880.224	22112
880.351	22143
880.478	22116
880.605	22135
880.732	22139
880.859	22379
880.986	22124
881.112	22253
881.239	21930
881.366	21770
881.493	21842
881.619	21736
881.746	21762
881.872	21717
881.999	21648
882.125	21690
882.252	21804
882.378	21713
882.505	21827
882.631	21667
882.757	21443
882.883	21447
883.01	21466
883.136	21439
883.262	21351
883.388	21188
883.514	21488
883.64	21401
883.766	21317
883.892	21268
884.018	21222
884.143	21374
884.269	21515
884.395	21165
884.52	21161
884.646	21055
884.772	21013
884.897	20925
885.023	21173
885.148	21096
885.274	21199
885.399	21116
885.524	21108
885.65	21089
885.775	20990
885.9	20982
886.025	21188
886.15	21074
886.275	20883
886.4	20937
886.525	21005
886.65	21020
886.775	21051
886.9	21192
887.025	21207
887.149	21039
887.274	20887
887.399	20857
887.523	20739
887.648	20758
887.773	20746
887.897	20929
888.021	20872
888.146	20678
888.27	20925
888.395	20963
888.519	20876
888.643	20891
888.767	20906
888.891	20731
889.015	20674
889.139	20739
889.263	20678
889.387	20758
889.511	20750
889.635	20804
889.759	20537
889.883	20629
890.006	20667
890.13	20800
890.254	20552
890.377	20682
890.501	20244
890.624	20343
890.748	20446
890.871	20408
890.995	20256
891.118	20069
891.241	20195
891.364	20153
891.488	20358
891.611	20267
891.734	20240
891.857	20164
891.98	20263
892.103	20256
892.226	20393
892.349	20115
892.471	20054
892.594	20065
892.717	20157
892.839	20221
892.962	20115
893.085	20191
893.207	20062
893.33	20027
893.452	20024
893.575	20065
893.697	20050
893.819	20214
893.941	20317
894.064	20168
894.186	20134
894.308	19974
894.43	20187
894.552	20229
894.674	20191
894.796	19982
894.918	20046
895.04	20092
895.161	20149
895.283	20157
895.405	20107
895.526	20073
895.648	20161
895.769	20142
895.891	20092
896.012	20126
896.134	20210
896.255	20111
896.376	20084
896.498	20065
896.619	20119
896.74	20077
896.861	20168
896.982	20454
897.103	20518
897.224	20339
897.345	20454
897.466	20225
897.587	20351
897.708	20450
897.828	20419
897.949	20282
898.07	20142
898.19	20180
898.311	20412
898.431	20305
898.552	20389
898.672	20381
898.792	20427
898.913	20309
899.033	20202
899.153	20119
899.273	20050
899.393	20088
899.513	20164
899.633	20046
899.753	20111
899.873	19947
899.993	19978
900.113	20020
900.232	20149
900.352	19925
900.472	19978
900.591	19788
900.711	19856
900.83	19731
900.95	19845
901.069	19909
901.189	19811
901.308	19556
901.427	19426
901.546	19422
901.665	19457
901.784	19449
901.904	19354
902.023	19198
902.141	18947
902.26	19053
902.379	19027
902.498	18886
902.617	19000
902.735	18928
902.854	18821
902.973	18935
903.091	18700
903.21	18654
903.328	18673
903.446	18490
903.565	18578
903.683	18483
903.801	18296
903.919	18403
904.038	18327
904.156	18117
904.274	18319
904.392	18247
904.51	18133
904.627	18232
904.745	18197
904.863	18308
904.981	18098
905.098	17874
905.216	17836
905.334	17946
905.451	17961
905.569	17836
905.686	17832
905.803	17771
905.921	17684
906.038	17691
906.155	17630
906.272	17638
906.389	17608
906.506	17372
906.623	17337
906.74	17311
906.857	17204
906.974	17303
907.091	17398
907.208	17577
907.324	17311
907.441	17239
907.557	17018
907.674	17147
907.79	17121
907.907	17098
908.023	17231
908.139	17136
908.256	17067
908.372	16961
908.488	17064
908.604	16900
908.72	16793
908.836	16847
908.952	16763
909.068	16797
909.184	16957
909.3	16759
909.415	16850
909.531	16721
909.647	16584
909.762	16565
909.878	16569
909.993	16584
910.108	16470
910.224	16493
910.339	16523
910.454	16443
910.57	16421
910.685	16287
910.8	16538
910.915	16421
911.03	16322
911.145	16196
911.259	16192
911.374	16204
911.489	16025
911.604	15991
911.718	15972
911.833	15918
911.947	15774
912.062	15679
912.176	15850
912.291	15937
912.405	15907
912.519	15991
912.633	15964
912.748	15956
912.862	15804
912.976	15713
913.09	15606
913.204	15641
913.318	15717
913.431	15770
913.545	15781
913.659	15835
913.772	15667
913.886	15629
914	15492
914.113	15545
914.226	15663
914.34	15477
914.453	15310
914.566	15504
914.68	15405
914.793	15397
914.906	15176
915.019	15150
915.132	15017
915.245	15135
915.358	15116
915.47	15157
915.583	15108
915.696	15127
915.809	15203
915.921	15199
916.034	15089
916.146	15055
916.259	14941
916.371	15051
916.483	15081
916.595	14902
916.708	14944
916.82	15005
916.932	14956
917.044	14914
917.156	14777
917.268	14762
917.38	14758
917.491	14750
917.603	14739
917.715	14914
917.826	14880
917.938	14735
918.049	14492
918.161	14655
918.272	14819
918.384	14807
918.495	14724
918.606	14613
918.717	14415
918.828	14530
918.939	14575
919.05	14476
919.161	14503
919.272	14290
919.383	14438
919.494	14492
919.604	14655
919.715	14533
919.826	14404
919.936	14446
920.047	14571
920.157	14446
920.267	14708
920.378	14610
920.488	14507
920.598	14594
920.708	14826
920.818	14499
920.928	14590
921.038	14792
921.148	14621
921.258	14431
921.368	14256
921.477	14233
921.587	14199
921.697	14138
921.806	14240
921.916	14130
922.025	13932
922.134	13864
922.244	13795
922.353	13818
922.462	13696
922.571	13651
922.68	13499
922.789	13487
922.898	13514
923.007	13445
923.116	13521
923.224	13426
923.333	13491
923.442	13388
923.55	13343
923.659	13362
923.767	13365
923.876	13301
923.984	13324
924.092	13259
924.201	13274
924.309	13206
924.417	13225
924.525	13118
924.633	13084
924.741	13974
924.849	12973
924.956	13076
925.064	12913
925.172	12966
925.279	12924
925.387	13042
925.494	12897
925.602	13004
925.709	12920
925.816	12817
925.924	12890
926.031	12947
926.138	12814
926.245	12890
926.352	12719
926.459	12962
926.566	12894
926.673	12852
926.779	12642
926.886	12707
926.993	12570
927.099	12445
927.206	12361
927.312	12464
927.419	12513
927.525	12479
927.631	12422
927.737	12372
927.843	12380
927.95	12201
928.056	12281
928.162	12273
928.267	12350
928.373	13038
928.479	12311
928.585	12148
928.69	12243
928.796	12323
928.901	12182
929.007	11992
929.112	12205
929.218	12117
929.323	12015
929.428	12117
929.533	12148
929.638	11904
929.743	11958
929.848	12038
929.953	11954
930.058	11893
930.163	11775
930.267	11707
930.372	11893
930.477	11688
930.581	11863
930.685	11809
930.79	11570
930.894	11589
930.998	11490
931.103	11665
931.207	11395
931.311	11250
931.415	11162
931.519	11029
931.623	10984
