Data from test_V78500241_3285.txt Node
Date: Fri Mar 25 15:32:44 CST 2022
User: usil
Spectrometer: V785-0024
Trigger mode: 0
Integration Time (sec): 4.000000E-1
Scans to average: 1
Nonlinearity correction enabled: false
Boxcar width: 0
Storing dark spectrum: false
XAxis mode: Wavelengths
Number of Pixels in Spectrum: 1024
>>>>>Begin Spectral Data<<<<<
801.071	27188
801.214	27302
801.356	26921
801.499	26887
801.641	26826
801.783	26720
801.926	26830
802.068	26758
802.211	26667
802.353	26663
802.496	26427
802.638	26423
802.78	26377
802.923	26328
803.065	26453
803.208	26473
803.35	26400
803.492	26568
803.635	26552
803.777	26336
803.919	26503
804.061	26895
804.204	26575
804.346	26526
804.488	26511
804.63	26594
804.773	26419
804.915	26587
805.057	26617
805.199	26632
805.341	26625
805.483	26648
805.626	26792
805.768	26674
805.91	26693
806.052	26857
806.194	26674
806.336	26716
806.478	26514
806.62	26636
806.762	26701
806.904	26811
807.046	27272
807.188	27070
807.33	27119
807.472	27245
807.614	26990
807.756	27154
807.898	26857
808.04	26765
808.182	27036
808.324	26910
808.465	26891
808.607	27214
808.749	27218
808.891	27450
809.033	27477
809.174	27317
809.316	27241
809.458	27233
809.6	27359
809.741	27473
809.883	27378
810.025	27500
810.166	27667
810.308	27622
810.45	27568
810.591	27416
810.733	27096
810.875	27203
811.016	27131
811.158	27256
811.299	27279
811.441	27336
811.582	27519
811.724	27344
811.865	27195
812.007	27237
812.148	27325
812.29	27264
812.431	27412
812.573	27568
812.714	27652
812.855	27694
812.997	27953
813.138	27892
813.279	27918
813.421	27888
813.562	27739
813.703	27500
813.845	27488
813.986	27203
814.127	27108
814.268	26887
814.41	26990
814.551	26914
814.692	26918
814.833	26883
814.974	26868
815.115	26967
815.256	26758
815.397	26849
815.539	26899
815.68	26686
815.821	26667
815.962	26655
816.103	26682
816.244	26499
816.385	26476
816.526	26400
816.666	26161
816.807	26115
816.948	26324
817.089	26320
817.23	26187
817.371	26100
817.512	26233
817.653	26210
817.793	26157
817.934	26263
818.075	26126
818.216	26187
818.356	26050
818.497	26043
818.638	25906
818.778	25818
818.919	25898
819.06	26016
819.2	26005
819.341	26183
819.481	26149
819.622	26187
819.762	26438
819.903	26393
820.043	26252
820.184	26267
820.324	26343
820.465	26370
820.605	26309
820.746	26286
820.886	26027
821.026	26199
821.167	26180
821.307	26328
821.447	26259
821.588	26084
821.728	25925
821.868	25719
822.008	25620
822.149	25647
822.289	25734
822.429	25430
822.569	25407
822.709	25434
822.849	25301
822.99	25114
823.13	25053
823.27	24973
823.41	25000
823.55	24875
823.69	24985
823.83	24966
823.97	24848
824.11	24768
824.25	24719
824.389	24802
824.529	24776
824.669	24814
824.809	24920
824.949	24817
825.089	24779
825.228	24825
825.368	24604
825.508	24604
825.648	24650
825.787	24658
825.927	24692
826.067	24677
826.206	24639
826.346	24779
826.485	24688
826.625	24513
826.765	24745
826.904	24738
827.044	24464
827.183	24536
827.323	24384
827.462	24380
827.601	24494
827.741	24407
827.88	24365
828.02	24262
828.159	24289
828.298	24308
828.437	24407
828.577	24277
828.716	24509
828.855	24285
828.994	24038
829.134	24022
829.273	24064
829.412	24026
829.551	24053
829.69	24121
829.829	23977
829.968	24102
830.107	24174
830.246	24083
830.385	24117
830.524	23931
830.663	23889
830.802	23874
830.941	23600
831.08	23573
831.219	23718
831.357	23722
831.496	23878
831.635	23691
831.774	23634
831.913	23581
832.051	23463
832.19	23402
832.329	23429
832.467	23364
832.606	23345
832.744	23326
832.883	23364
833.022	23345
833.16	23398
833.299	23528
833.437	23349
833.576	23444
833.714	23326
833.852	23474
833.991	23535
834.129	23516
834.267	23509
834.406	23509
834.544	23566
834.682	23406
834.821	23376
834.959	23634
835.097	23414
835.235	23547
835.373	23414
835.511	23562
835.65	23330
835.788	23315
835.926	23124
836.064	23105
836.202	23170
836.34	23345
836.478	23349
836.615	23372
836.753	23258
836.891	23467
837.029	23273
837.167	23284
837.305	23200
837.443	23292
837.58	23143
837.718	23140
837.856	23364
837.993	23083
838.131	23303
838.269	23105
838.406	23029
838.544	22949
838.681	22858
838.819	22733
838.956	22569
839.094	22668
839.231	22698
839.369	22843
839.506	22995
839.643	22824
839.781	22637
839.918	22535
840.055	22672
840.193	22615
840.33	22603
840.467	22500
840.604	22782
840.742	22801
840.879	22386
841.016	22489
841.153	22497
841.29	22565
841.427	22504
841.564	22618
841.701	22588
841.838	22557
841.975	22508
842.112	22504
842.249	22447
842.385	22386
842.522	22569
842.659	22489
842.796	22299
842.933	22341
843.069	22325
843.206	22261
843.343	22306
843.479	22314
843.616	22322
843.752	22128
843.889	22101
844.025	22242
844.162	22051
844.298	22230
844.435	22025
844.571	21991
844.708	22128
844.844	22375
844.98	22246
845.117	22177
845.253	22048
845.389	22120
845.525	21937
845.661	21960
845.798	21842
845.934	21930
846.07	21808
846.206	21835
846.342	22029
846.478	21850
846.614	21583
846.75	21515
846.886	21644
847.022	21694
847.158	21686
847.294	21564
847.429	21580
847.565	21603
847.701	21747
847.837	21283
847.972	21386
848.108	21344
848.244	21264
848.379	21154
848.515	21176
848.65	21195
848.786	21188
848.921	21233
849.057	21325
849.192	21458
849.328	21165
849.463	21157
849.598	21081
849.734	21077
849.869	20933
850.004	20937
850.14	20895
850.275	20990
850.41	20800
850.545	20990
850.68	20887
850.815	20982
850.95	20864
851.085	21074
851.22	21032
851.355	20918
851.49	20872
851.625	20792
851.76	20872
851.895	20853
852.03	20975
852.165	20872
852.299	21051
852.434	21077
852.569	20914
852.703	20975
852.838	21085
852.973	21146
853.107	21036
853.242	20864
853.376	20819
853.511	20731
853.645	20712
853.78	20952
853.914	20800
854.048	20815
854.183	20716
854.317	20758
854.451	20918
854.585	20750
854.72	20746
854.854	20868
854.988	20689
855.122	20667
855.256	20621
855.39	20743
855.524	20769
855.658	20773
855.792	20819
855.926	20796
856.06	20842
856.194	20777
856.327	20743
856.461	20659
856.595	20720
856.729	20613
856.862	20826
856.996	20769
857.13	20727
857.263	20887
857.397	20845
857.53	20648
857.664	20906
857.797	20876
857.931	20815
858.064	20750
858.197	20902
858.331	20830
858.464	20708
858.597	20697
858.731	20697
858.864	20750
858.997	20640
859.13	20792
859.263	20781
859.396	20773
859.529	20792
859.662	20651
859.795	20712
859.928	20861
860.061	20811
860.194	20880
860.327	20735
860.46	20769
860.592	20902
860.725	20918
860.858	20971
860.99	20708
861.123	20686
861.256	20648
861.388	20804
861.521	21195
861.653	20651
861.786	20495
861.918	20629
862.05	20629
862.183	20590
862.315	20651
862.447	20739
862.58	20777
862.712	20454
862.844	20454
862.976	20625
863.108	20461
863.24	20971
863.372	20442
863.504	20393
863.636	20469
863.768	20488
863.9	20423
864.032	20377
864.164	20419
864.296	20613
864.428	20537
864.559	20590
864.691	20507
864.823	20492
864.954	20419
865.086	20457
865.217	20351
865.349	20153
865.48	20362
865.612	20301
865.743	20488
865.875	20415
866.006	20362
866.137	20438
866.269	20366
866.4	20408
866.531	20396
866.662	20244
866.793	20389
866.924	20263
867.055	20320
867.186	20317
867.317	20298
867.448	20271
867.579	20298
867.71	20259
867.841	20278
867.972	20423
868.103	20328
868.233	20423
868.364	20320
868.495	20427
868.625	20488
868.756	20552
868.886	20469
869.017	20492
869.147	20613
869.278	20781
869.408	20609
869.539	20568
869.669	20629
869.799	20625
869.929	20606
870.06	20724
870.19	20902
870.32	20804
870.45	20952
870.58	20929
870.71	21017
870.84	21070
870.97	20960
871.1	20967
871.23	21093
871.36	21108
871.489	21169
871.619	21138
871.749	21192
871.879	21173
872.008	21310
872.138	21081
872.267	21032
872.397	21047
872.526	20933
872.656	21062
872.785	21157
872.915	21161
873.044	21195
873.173	21283
873.303	21119
873.432	21245
873.561	21294
873.69	21260
873.819	21230
873.948	21195
874.077	21192
874.206	21093
874.335	21028
874.464	21230
874.593	21363
874.722	21272
874.851	21340
874.979	21564
875.108	21618
875.237	21226
875.365	21435
875.494	21435
875.623	21606
875.751	21378
875.88	21428
876.008	21603
876.136	21606
876.265	21941
876.393	21975
876.521	21835
876.65	21937
876.778	21956
876.906	21800
877.034	21816
877.162	21793
877.29	21800
877.418	21690
877.546	21755
877.674	21793
877.802	21751
877.93	21770
878.058	21762
878.185	21614
878.313	21831
878.441	21739
878.568	21519
878.696	21846
878.824	21785
878.951	21876
879.079	21873
879.206	22147
879.333	21842
879.461	21751
879.588	21884
879.715	21975
879.842	22029
879.97	21800
880.097	21641
880.224	21576
880.351	21736
880.478	21606
880.605	21583
880.732	21694
880.859	21804
880.986	21667
881.112	21603
881.239	21481
881.366	21336
881.493	21112
881.619	21195
881.746	21116
881.872	21211
881.999	21245
882.125	21119
882.252	21226
882.378	21176
882.505	21317
882.631	21058
882.757	20944
882.883	20853
883.01	20925
883.136	20849
883.262	20788
883.388	20651
883.514	20887
883.64	20948
883.766	20777
883.892	20663
884.018	20754
884.143	20773
884.269	20857
884.395	20705
884.52	20503
884.646	20621
884.772	20492
884.897	20419
885.023	20526
885.148	20731
885.274	20746
885.399	20598
885.524	20629
885.65	20537
885.775	20511
885.9	20609
886.025	20579
886.15	20442
886.275	20434
886.4	20495
886.525	20484
886.65	20343
886.775	20492
886.9	20762
887.025	20693
887.149	20568
887.274	20366
887.399	20256
887.523	20244
887.648	20164
887.773	20195
887.897	20366
888.021	20408
888.146	20305
888.27	20343
888.395	20393
888.519	20389
888.643	20218
888.767	20473
888.891	20229
889.015	20153
889.139	20157
889.263	20039
889.387	20210
889.511	20339
889.635	20305
889.759	20077
889.883	20111
890.006	20065
890.13	20172
890.254	20054
890.377	20149
890.501	19860
890.624	19837
890.748	19906
890.871	19826
890.995	19689
891.118	19677
891.241	19727
891.364	19693
891.488	19795
891.611	19776
891.734	19723
891.857	19772
891.98	19693
892.103	19693
892.226	19712
892.349	19567
892.471	19514
892.594	19666
892.717	19693
892.839	19666
892.962	19514
893.085	19772
893.207	19628
893.33	19369
893.452	19586
893.575	19731
893.697	19677
893.819	19742
893.941	19814
894.064	19807
894.186	19616
894.308	19632
894.43	19681
894.552	19647
894.674	19712
894.796	19525
894.918	19506
895.04	19613
895.161	19712
895.283	19658
895.405	19537
895.526	19499
895.648	19605
895.769	19689
895.891	19601
896.012	19655
896.134	19704
896.255	19666
896.376	19689
896.498	19552
896.619	19734
896.74	19643
896.861	19590
896.982	19925
897.103	20035
897.224	19871
897.345	19830
897.466	19734
897.587	19788
897.708	19978
897.828	19852
897.949	19795
898.07	19597
898.19	19723
898.311	19868
898.431	19746
898.552	19757
898.672	19898
898.792	19887
898.913	19913
899.033	19727
899.153	19765
899.273	19552
899.393	19575
899.513	19613
899.633	19651
899.753	19472
899.873	19571
899.993	19624
900.113	19468
900.232	19590
900.352	19556
900.472	19415
900.591	19331
900.711	19358
900.83	19381
900.95	19400
901.069	19472
901.189	19228
901.308	19027
901.427	18901
901.546	19004
901.665	19088
901.784	18958
901.904	18890
902.023	18722
902.141	18490
902.26	18566
902.379	18582
902.498	18452
902.617	18319
902.735	18460
902.854	18555
902.973	18319
903.091	18133
903.21	18174
903.328	18220
903.446	18117
903.565	17946
903.683	17958
903.801	17874
903.919	17916
904.038	17802
904.156	17668
904.274	17790
904.392	17665
904.51	17748
904.627	17741
904.745	17733
904.863	17882
904.981	17562
905.098	17315
905.216	17444
905.334	17455
905.451	17410
905.569	17455
905.686	17558
905.803	17349
905.921	17261
906.038	17353
906.155	17258
906.272	17109
906.389	17136
906.506	17052
906.623	17045
906.74	16923
906.857	16858
906.974	16930
907.091	16965
907.208	17124
907.324	16892
907.441	16953
907.557	16759
907.674	16672
907.79	16736
907.907	16634
908.023	16858
908.139	16641
908.256	16599
908.372	16603
908.488	16618
908.604	16470
908.72	16207
908.836	16409
908.952	16402
909.068	16428
909.184	16474
909.3	16402
909.415	16447
909.531	16382
909.647	16158
909.762	16071
909.878	16162
909.993	16147
910.108	16158
910.224	16029
910.339	16067
910.454	16017
910.57	15964
910.685	15903
910.8	16139
910.915	16044
911.03	15968
911.145	15694
911.259	15747
911.374	15690
911.489	15618
911.604	15641
911.718	15454
911.833	15447
911.947	15469
912.062	15450
912.176	15492
912.291	15507
912.405	15507
912.519	15667
912.633	15622
912.748	15485
912.862	15420
912.976	15386
913.09	15252
913.204	15233
913.318	15256
913.431	15363
913.545	15340
913.659	15435
913.772	15279
913.886	15062
914	15131
914.113	15097
914.226	15230
914.34	15218
914.453	15070
914.566	15214
914.68	15013
914.793	14918
914.906	14788
915.019	14777
915.132	14682
915.245	14727
915.358	14655
915.47	14758
915.583	14701
915.696	14686
915.809	14868
915.921	14807
916.034	14667
916.146	14663
916.259	14560
916.371	14644
916.483	14785
916.595	14465
916.708	14518
916.82	14545
916.932	14514
917.044	14537
917.156	14442
917.268	14442
917.38	14404
917.491	14336
917.603	14370
917.715	14499
917.826	14549
917.938	14355
918.049	14161
918.161	14396
918.272	14533
918.384	14423
918.495	14400
918.606	14229
918.717	14168
918.828	14164
918.939	14176
919.05	14054
919.161	14096
919.272	13906
919.383	14031
919.494	14062
919.604	14355
919.715	14107
919.826	14058
919.936	14016
920.047	14248
920.157	14111
920.267	14252
920.378	14195
920.488	14161
920.598	14263
920.708	14465
920.818	14233
920.928	14237
921.038	14362
921.148	14377
921.258	14088
921.368	14043
921.477	13818
921.587	13871
921.697	13677
921.806	13925
921.916	13769
922.025	13696
922.134	13540
922.244	13464
922.353	13620
922.462	13350
922.571	13354
922.68	13251
922.789	13202
922.898	13183
923.007	13156
923.116	13141
923.224	13133
923.333	13141
923.442	13004
923.55	13012
923.659	13080
923.767	13084
923.876	12905
923.984	13042
924.092	12920
924.201	12909
924.309	12935
924.417	12935
924.525	12886
924.633	12848
924.741	13757
924.849	12642
924.956	12787
925.064	12719
925.172	12547
925.279	12597
925.387	12521
925.494	12544
925.602	12688
925.709	12570
925.816	12528
925.924	12574
926.031	12677
926.138	12429
926.245	12467
926.352	12414
926.459	12464
926.566	12639
926.673	12555
926.779	12361
926.886	12357
926.993	12213
927.099	12266
927.206	12152
927.312	12117
927.419	12087
927.525	12133
927.631	12178
927.737	12114
927.843	12022
927.95	11946
928.056	11958
928.162	12068
928.267	12095
928.373	12677
928.479	12072
928.585	11836
928.69	11908
928.796	11927
928.901	11977
929.007	11745
929.112	11923
929.218	11882
929.323	11805
929.428	11775
929.533	11927
929.638	11680
929.743	11653
929.848	11710
929.953	11676
930.058	11627
930.163	11406
930.267	11421
930.372	11554
930.477	11383
930.581	11634
930.685	11471
930.79	11269
930.894	11280
930.998	11307
931.103	11402
931.207	11079
931.311	11006
931.415	10976
931.519	10744
931.623	10736
