Data from test_V78500241_529.txt Node
Date: Fri Mar 25 15:13:32 CST 2022
User: usil
Spectrometer: V785-0024
Trigger mode: 0
Integration Time (sec): 4.000000E-1
Scans to average: 1
Nonlinearity correction enabled: false
Boxcar width: 0
Storing dark spectrum: false
XAxis mode: Wavelengths
Number of Pixels in Spectrum: 1024
>>>>>Begin Spectral Data<<<<<
801.071	27310
801.214	27218
801.356	27131
801.499	27024
801.641	27001
801.783	26979
801.926	26921
802.068	26902
802.211	26686
802.353	26716
802.496	26720
802.638	26556
802.78	26651
802.923	26632
803.065	26560
803.208	26503
803.35	26522
803.492	26632
803.635	26659
803.777	26587
803.919	26754
804.061	27100
804.204	26788
804.346	26530
804.488	26765
804.63	26678
804.773	26590
804.915	26629
805.057	26720
805.199	26720
805.341	26777
805.483	26777
805.626	26758
805.768	26743
805.91	26842
806.052	26872
806.194	26758
806.336	27028
806.478	26963
806.62	26872
806.762	26967
806.904	27131
807.046	27245
807.188	27321
807.33	27249
807.472	27283
807.614	27036
807.756	27062
807.898	27123
808.04	27024
808.182	26956
808.324	27157
808.465	27017
808.607	27256
808.749	27348
808.891	27500
809.033	27564
809.174	27538
809.316	27507
809.458	27469
809.6	27473
809.741	27523
809.883	27450
810.025	27641
810.166	27679
810.308	27873
810.45	27724
810.591	27652
810.733	27496
810.875	27496
811.016	27462
811.158	27275
811.299	27599
811.441	27660
811.582	27671
811.724	27610
811.865	27359
812.007	27374
812.148	27317
812.29	27389
812.431	27606
812.573	27774
812.714	27774
812.855	27888
812.997	27903
813.138	28135
813.279	28169
813.421	27953
813.562	27953
813.703	27717
813.845	27713
813.986	27393
814.127	27355
814.268	27127
814.41	27055
814.551	27085
814.692	27268
814.833	27058
814.974	27058
815.115	27123
815.256	26895
815.397	26944
815.539	27070
815.68	26883
815.821	26872
815.962	26952
816.103	26785
816.244	26651
816.385	26735
816.526	26568
816.666	26457
816.807	26377
816.948	26339
817.089	26598
817.23	26324
817.371	26549
817.512	26442
817.653	26355
817.793	26446
817.934	26332
818.075	26415
818.216	26358
818.356	26434
818.497	26256
818.638	26024
818.778	26366
818.919	26096
819.06	26122
819.2	26294
819.341	26305
819.481	26278
819.622	26503
819.762	26788
819.903	26583
820.043	26571
820.184	26522
820.324	26404
820.465	26518
820.605	26537
820.746	26514
820.886	26415
821.026	26564
821.167	26404
821.307	26370
821.447	26294
821.588	26499
821.728	26191
821.868	25970
822.008	25906
822.149	25845
822.289	25765
822.429	25693
822.569	25502
822.709	25533
822.849	25312
822.99	25407
823.13	25354
823.27	25301
823.41	25141
823.55	25129
823.69	25206
823.83	25350
823.97	25126
824.11	24932
824.25	25023
824.389	24928
824.529	25008
824.669	25091
824.809	25133
824.949	25050
825.089	25107
825.228	25065
825.368	24886
825.508	24806
825.648	24791
825.787	24852
825.927	24901
826.067	24886
826.206	24833
826.346	24962
826.485	24882
826.625	24871
826.765	24848
826.904	24852
827.044	24585
827.183	24623
827.323	24536
827.462	24650
827.601	24608
827.741	24498
827.88	24525
828.02	24338
828.159	24555
828.298	24513
828.437	24616
828.577	24452
828.716	24665
828.855	24505
828.994	24300
829.134	24266
829.273	24407
829.412	24251
829.551	24289
829.69	24315
829.829	24330
829.968	24311
830.107	24380
830.246	24247
830.385	24262
830.524	24216
830.663	24064
830.802	23923
830.941	23779
831.08	23908
831.219	24102
831.357	23980
831.496	23969
831.635	23965
831.774	23760
831.913	23714
832.051	23737
832.19	23729
832.329	23691
832.467	23596
832.606	23547
832.744	23592
832.883	23668
833.022	23554
833.16	23600
833.299	23608
833.437	23600
833.576	23596
833.714	23733
833.852	23714
833.991	23748
834.129	23707
834.267	23828
834.406	23646
834.544	23649
834.682	23581
834.821	23611
834.959	23794
835.097	23611
835.235	23668
835.373	23592
835.511	23566
835.65	23512
835.788	23425
835.926	23368
836.064	23159
836.202	23345
836.34	23497
836.478	23509
836.615	23402
836.753	23547
836.891	23554
837.029	23463
837.167	23440
837.305	23345
837.443	23433
837.58	23265
837.718	23368
837.856	23425
837.993	23216
838.131	23311
838.269	23288
838.406	23315
838.544	23185
838.681	22831
838.819	22946
838.956	22839
839.094	22774
839.231	22816
839.369	22896
839.506	23216
839.643	22995
839.781	22793
839.918	22774
840.055	22774
840.193	22710
840.33	22687
840.467	22778
840.604	22748
840.742	23041
840.879	22592
841.016	22790
841.153	22634
841.29	22759
841.427	22717
841.564	22641
841.701	22847
841.838	22828
841.975	22641
842.112	22626
842.249	22557
842.385	22394
842.522	22630
842.659	22459
842.796	22440
842.933	22409
843.069	22322
843.206	22443
843.343	22592
843.479	22512
843.616	22580
843.752	22306
843.889	22265
844.025	22451
844.162	22185
844.298	22375
844.435	22230
844.571	22322
844.708	22333
844.844	22512
844.98	22421
845.117	22455
845.253	22177
845.389	22128
845.525	22131
845.661	22124
845.798	21998
845.934	22032
846.07	21941
846.206	22021
846.342	22101
846.478	22036
846.614	21797
846.75	21663
846.886	21762
847.022	21854
847.158	21705
847.294	21755
847.429	21774
847.565	21644
847.701	22013
847.837	21523
847.972	21420
848.108	21542
848.244	21614
848.379	21317
848.515	21389
848.65	21355
848.786	21291
848.921	21332
849.057	21538
849.192	21481
849.328	21477
849.463	21317
849.598	21226
849.734	21336
849.869	21188
850.004	21127
850.14	21028
850.275	21058
850.41	21032
850.545	21047
850.68	21017
850.815	21146
850.95	21108
851.085	21287
851.22	21104
851.355	21199
851.49	21104
851.625	21043
851.76	21157
851.895	20960
852.03	20941
852.165	21074
852.299	21173
852.434	21127
852.569	21123
852.703	21116
852.838	21100
852.973	21298
853.107	21165
853.242	21096
853.376	20941
853.511	20800
853.645	20929
853.78	20952
853.914	20895
854.048	20914
854.183	20929
854.317	20914
854.451	21009
854.585	20982
854.72	20838
854.854	20952
854.988	20925
855.122	20956
855.256	20762
855.39	20956
855.524	21001
855.658	20975
855.792	20929
855.926	20956
856.06	20937
856.194	20979
856.327	20830
856.461	20872
856.595	20807
856.729	20880
856.862	21058
856.996	20921
857.13	21024
857.263	20975
857.397	21093
857.53	20952
857.664	20979
857.797	20872
857.931	21051
858.064	21005
858.197	20963
858.331	20971
858.464	20921
858.597	20819
858.731	20975
858.864	20887
858.997	20895
859.13	20895
859.263	20880
859.396	20990
859.529	20876
859.662	20792
859.795	20948
859.928	21024
860.061	21100
860.194	21119
860.327	20944
860.46	20990
860.592	21131
860.725	21081
860.858	20975
860.99	20941
861.123	20849
861.256	20861
861.388	21005
861.521	21587
861.653	20750
861.786	20648
861.918	20712
862.05	20857
862.183	20830
862.315	20792
862.447	20872
862.58	20785
862.712	20686
862.844	20617
862.976	20762
863.108	20644
863.24	20956
863.372	20469
863.504	20689
863.636	20549
863.768	20716
863.9	20674
864.032	20499
864.164	20632
864.296	20598
864.428	20788
864.559	20663
864.691	20670
864.823	20693
864.954	20686
865.086	20583
865.217	20648
865.349	20473
865.48	20549
865.612	20568
865.743	20826
865.875	20526
866.006	20514
866.137	20533
866.269	20617
866.4	20514
866.531	20518
866.662	20495
866.793	20427
866.924	20385
867.055	20415
867.186	20484
867.317	20427
867.448	20473
867.579	20393
867.71	20347
867.841	20408
867.972	20461
868.103	20507
868.233	20442
868.364	20393
868.495	20598
868.625	20655
868.756	20811
868.886	20541
869.017	20735
869.147	20762
869.278	20864
869.408	20819
869.539	20792
869.669	20746
869.799	20678
869.929	20826
870.06	20861
870.19	21180
870.32	20868
870.45	21051
870.58	21051
870.71	21138
870.84	21199
870.97	21131
871.1	21176
871.23	21222
871.36	21313
871.489	21222
871.619	21184
871.749	21230
871.879	21469
872.008	21298
872.138	21340
872.267	21370
872.397	21325
872.526	20982
872.656	21207
872.785	21089
872.915	21294
873.044	21374
873.173	21340
873.303	21386
873.432	21355
873.561	21462
873.69	21332
873.819	21389
873.948	21439
874.077	21329
874.206	21340
874.335	21450
874.464	21466
874.593	21496
874.722	21519
874.851	21583
874.979	21743
875.108	21492
875.237	21492
875.365	21511
875.494	21618
875.623	21515
875.751	21583
875.88	21504
876.008	21667
876.136	21846
876.265	21937
876.393	22036
876.521	22040
876.65	21994
876.778	21880
876.906	21926
877.034	21854
877.162	21838
877.29	21888
877.418	21975
877.546	21907
877.674	21941
877.802	21956
877.93	21800
878.058	21926
878.185	21797
878.313	21903
878.441	21869
878.568	21747
878.696	21869
878.824	21865
878.951	21972
879.079	22135
879.206	22257
879.333	22051
879.461	22032
879.588	22055
879.715	22063
879.842	22230
879.97	21949
880.097	21728
880.224	21728
880.351	21751
880.478	21819
880.605	21694
880.732	21816
880.859	21979
880.986	21644
881.112	21766
881.239	21595
881.366	21469
881.493	21462
881.619	21325
881.746	21408
881.872	21374
881.999	21382
882.125	21241
882.252	21302
882.378	21245
882.505	21496
882.631	21131
882.757	21005
882.883	21093
883.01	21138
883.136	20933
883.262	20868
883.388	20826
883.514	21036
883.64	21047
883.766	20960
883.892	20758
884.018	20762
884.143	21001
884.269	21017
884.395	20815
884.52	20678
884.646	20663
884.772	20682
884.897	20522
885.023	20644
885.148	20746
885.274	20769
885.399	20712
885.524	20598
885.65	20750
885.775	20609
885.9	20560
886.025	20667
886.15	20746
886.275	20579
886.4	20598
886.525	20590
886.65	20552
886.775	20541
886.9	20686
887.025	20826
887.149	20701
887.274	20320
887.399	20419
887.523	20484
887.648	20370
887.773	20278
887.897	20552
888.021	20492
888.146	20377
888.27	20465
888.395	20465
888.519	20518
888.643	20427
888.767	20461
888.891	20450
889.015	20206
889.139	20199
889.263	20259
889.387	20389
889.511	20412
889.635	20343
889.759	20248
889.883	20187
890.006	20278
890.13	20294
890.254	20294
890.377	20191
890.501	20012
890.624	19921
890.748	19967
890.871	19879
890.995	19917
891.118	19700
891.241	19868
891.364	19818
891.488	19909
891.611	19803
891.734	19921
891.857	19723
891.98	19795
892.103	19814
892.226	19799
892.349	19765
892.471	19567
892.594	19734
892.717	19799
892.839	19746
892.962	19799
893.085	19788
893.207	19723
893.33	19723
893.452	19605
893.575	19803
893.697	19674
893.819	19963
893.941	19868
894.064	19898
894.186	19799
894.308	19674
894.43	19788
894.552	19860
894.674	19674
894.796	19670
894.918	19635
895.04	19780
895.161	19894
895.283	19814
895.405	19647
895.526	19757
895.648	19811
895.769	19731
895.891	19620
896.012	19811
896.134	19784
896.255	19769
896.376	19727
896.498	19776
896.619	19757
896.74	19681
896.861	19605
896.982	19970
897.103	20138
897.224	20020
897.345	19989
897.466	19826
897.587	19936
897.708	20065
897.828	19906
897.949	20005
898.07	19757
898.19	19947
898.311	19917
898.431	19818
898.552	19902
898.672	19967
898.792	20145
898.913	20016
899.033	19879
899.153	19784
899.273	19689
899.393	19658
899.513	19731
899.633	19723
899.753	19647
899.873	19670
899.993	19814
900.113	19696
900.232	19605
900.352	19548
900.472	19518
900.591	19468
900.711	19502
900.83	19449
900.95	19613
901.069	19613
901.189	19415
901.308	19088
901.427	19023
901.546	19095
901.665	19133
901.784	19072
901.904	18973
902.023	18875
902.141	18639
902.26	18635
902.379	18616
902.498	18654
902.617	18661
902.735	18547
902.854	18665
902.973	18563
903.091	18235
903.21	18353
903.328	18224
903.446	18194
903.565	18129
903.683	18114
903.801	18015
903.919	17977
904.038	17946
904.156	17878
904.274	17855
904.392	17798
904.51	17794
904.627	17931
904.745	17901
904.863	17882
904.981	17657
905.098	17600
905.216	17627
905.334	17615
905.451	17497
905.569	17501
905.686	17573
905.803	17532
905.921	17368
906.038	17425
906.155	17349
906.272	17315
906.389	17193
906.506	17003
906.623	17159
906.74	17003
906.857	16987
906.974	17003
907.091	17151
907.208	17166
907.324	17056
907.441	16987
907.557	16790
907.674	16767
907.79	16793
907.907	16755
908.023	16839
908.139	16790
908.256	16801
908.372	16729
908.488	16683
908.604	16527
908.72	16565
908.836	16596
908.952	16542
909.068	16363
909.184	16649
909.3	16550
909.415	16481
909.531	16474
909.647	16257
909.762	16265
909.878	16268
909.993	16280
910.108	16181
910.224	16223
910.339	16131
910.454	16143
910.57	16097
910.685	15854
910.8	16261
910.915	16261
911.03	15960
911.145	15956
911.259	15865
911.374	15907
911.489	15762
911.604	15701
911.718	15534
911.833	15614
911.947	15526
912.062	15313
912.176	15530
912.291	15519
912.405	15515
912.519	15724
912.633	15781
912.748	15492
912.862	15610
912.976	15386
913.09	15313
913.204	15313
913.318	15332
913.431	15507
913.545	15485
913.659	15496
913.772	15332
913.886	15176
914	15233
914.113	15230
914.226	15294
914.34	15291
914.453	15066
914.566	15226
914.68	15043
914.793	14941
914.906	14967
915.019	14746
915.132	14693
915.245	14823
915.358	14800
915.47	14845
915.583	14834
915.696	14910
915.809	14956
915.921	14883
916.034	14727
916.146	14640
916.259	14686
916.371	14781
916.483	14758
916.595	14762
916.708	14712
916.82	14632
916.932	14659
917.044	14575
917.156	14556
917.268	14457
917.38	14480
917.491	14499
917.603	14476
917.715	14488
917.826	14560
917.938	14492
918.049	14343
918.161	14412
918.272	14629
918.384	14625
918.495	14393
918.606	14252
918.717	14180
918.828	14240
918.939	14248
919.05	14153
919.161	14183
919.272	14092
919.383	13959
919.494	14259
919.604	14362
919.715	14187
919.826	14119
919.936	14191
920.047	14355
920.157	14199
920.267	14374
920.378	14214
920.488	14149
920.598	14362
920.708	14514
920.818	14400
920.928	14362
921.038	14518
921.148	14511
921.258	14138
921.368	14069
921.477	13921
921.587	13944
921.697	13830
921.806	13959
921.916	13833
922.025	13662
922.134	13590
922.244	13597
922.353	13616
922.462	13548
922.571	13369
922.68	13255
922.789	13240
922.898	13217
923.007	13198
923.116	13331
923.224	13179
923.333	13168
923.442	13126
923.55	13046
923.659	13095
923.767	13164
923.876	13088
923.984	13069
924.092	13034
924.201	13008
924.309	13080
924.417	12996
924.525	12970
924.633	12909
924.741	13628
924.849	12776
924.956	12920
925.064	12589
925.172	12627
925.279	12688
925.387	12654
925.494	12677
925.602	12738
925.709	12711
925.816	12593
925.924	12677
926.031	12738
926.138	12601
926.245	12642
926.352	12486
926.459	12612
926.566	12700
926.673	12627
926.779	12353
926.886	12429
926.993	12281
927.099	12216
927.206	12152
927.312	12167
927.419	12361
927.525	12300
927.631	12239
927.737	12167
927.843	12144
927.95	11965
928.056	12129
928.162	12148
928.267	12167
928.373	12681
928.479	12228
928.585	11916
928.69	12064
928.796	12057
928.901	11912
929.007	11840
929.112	11889
929.218	11935
929.323	11889
929.428	11813
929.533	11874
929.638	11710
929.743	11809
929.848	11851
929.953	11718
930.058	11680
930.163	11478
930.267	11566
930.372	11665
930.477	11478
930.581	11653
930.685	11592
930.79	11383
930.894	11455
930.998	11391
931.103	11455
931.207	11121
931.311	11102
931.415	10995
931.519	10839
931.623	10782
