Data from test_V78500241_507.txt Node
Date: Fri Mar 25 15:13:23 CST 2022
User: usil
Spectrometer: V785-0024
Trigger mode: 0
Integration Time (sec): 4.000000E-1
Scans to average: 1
Nonlinearity correction enabled: false
Boxcar width: 0
Storing dark spectrum: false
XAxis mode: Wavelengths
Number of Pixels in Spectrum: 1024
>>>>>Begin Spectral Data<<<<<
801.071	27397
801.214	27355
801.356	27173
801.499	27043
801.641	26990
801.783	27013
801.926	26838
802.068	26956
802.211	26845
802.353	26929
802.496	26598
802.638	26617
802.78	26644
802.923	26682
803.065	26590
803.208	26602
803.35	26568
803.492	26826
803.635	26785
803.777	26689
803.919	26838
804.061	27017
804.204	26853
804.346	26644
804.488	26762
804.63	26670
804.773	26545
804.915	26712
805.057	26891
805.199	26838
805.341	26933
805.483	26830
805.626	26781
805.768	26636
805.91	26815
806.052	26887
806.194	26746
806.336	27036
806.478	26971
806.62	26876
806.762	26956
806.904	27058
807.046	27367
807.188	27386
807.33	27325
807.472	27256
807.614	27214
807.756	27199
807.898	27116
808.04	27013
808.182	26971
808.324	27085
808.465	27058
808.607	27291
808.749	27473
808.891	27557
809.033	27686
809.174	27553
809.316	27500
809.458	27492
809.6	27348
809.741	27599
809.883	27625
810.025	27717
810.166	27857
810.308	27823
810.45	27724
810.591	27797
810.733	27538
810.875	27542
811.016	27401
811.158	27340
811.299	27424
811.441	27553
811.582	27622
811.724	27389
811.865	27557
812.007	27378
812.148	27431
812.29	27367
812.431	27800
812.573	27793
812.714	27953
812.855	28006
812.997	28131
813.138	28139
813.279	28093
813.421	27983
813.562	27907
813.703	27899
813.845	27736
813.986	27447
814.127	27165
814.268	27154
814.41	27169
814.551	27268
814.692	27100
814.833	26963
814.974	27089
815.115	27131
815.256	26990
815.397	27051
815.539	27070
815.68	26948
815.821	26891
815.962	26914
816.103	26800
816.244	26781
816.385	26712
816.526	26617
816.666	26552
816.807	26362
816.948	26484
817.089	26564
817.23	26442
817.371	26518
817.512	26453
817.653	26415
817.793	26438
817.934	26309
818.075	26320
818.216	26412
818.356	26453
818.497	26324
818.638	26168
818.778	26229
818.919	26256
819.06	26271
819.2	26259
819.341	26362
819.481	26469
819.622	26465
819.762	26678
819.903	26568
820.043	26621
820.184	26613
820.324	26545
820.465	26644
820.605	26575
820.746	26590
820.886	26404
821.026	26355
821.167	26537
821.307	26511
821.447	26457
821.588	26278
821.728	26100
821.868	26092
822.008	25814
822.149	25849
822.289	25940
822.429	25620
822.569	25548
822.709	25537
822.849	25434
822.99	25434
823.13	25278
823.27	25369
823.41	25282
823.55	25190
823.69	25171
823.83	25331
823.97	25160
824.11	24909
824.25	24875
824.389	25015
824.529	25126
824.669	24992
824.809	25133
824.949	25225
825.089	25084
825.228	25103
825.368	24928
825.508	24871
825.648	24833
825.787	25000
825.927	24989
826.067	24996
826.206	24878
826.346	24935
826.485	24909
826.625	24928
826.765	24966
826.904	24924
827.044	24707
827.183	24601
827.323	24635
827.462	24639
827.601	24722
827.741	24673
827.88	24669
828.02	24502
828.159	24498
828.298	24528
828.437	24715
828.577	24563
828.716	24627
828.855	24486
828.994	24315
829.134	24380
829.273	24353
829.412	24228
829.551	24311
829.69	24376
829.829	24433
829.968	24410
830.107	24433
830.246	24311
830.385	24273
830.524	24121
830.663	24026
830.802	24102
830.941	23950
831.08	23870
831.219	23973
831.357	23969
831.496	24148
831.635	23950
831.774	23889
831.913	23756
832.051	23684
832.19	23729
832.329	23672
832.467	23710
832.606	23611
832.744	23558
832.883	23512
833.022	23634
833.16	23608
833.299	23627
833.437	23661
833.576	23737
833.714	23627
833.852	23699
833.991	23821
834.129	23764
834.267	23611
834.406	23638
834.544	23882
834.682	23691
834.821	23585
834.959	23840
835.097	23589
835.235	23722
835.373	23657
835.511	23786
835.65	23634
835.788	23596
835.926	23478
836.064	23410
836.202	23531
836.34	23566
836.478	23634
836.615	23452
836.753	23539
836.891	23570
837.029	23524
837.167	23421
837.305	23395
837.443	23318
837.58	23376
837.718	23372
837.856	23429
837.993	23345
838.131	23360
838.269	23041
838.406	23265
838.544	23174
838.681	23025
838.819	22965
838.956	22942
839.094	22934
839.231	22923
839.369	23037
839.506	23162
839.643	23006
839.781	22915
839.918	22835
840.055	22824
840.193	22767
840.33	22706
840.467	22748
840.604	22729
840.742	23094
840.879	22675
841.016	22687
841.153	22630
841.29	22965
841.427	22767
841.564	22862
841.701	22683
841.838	22626
841.975	22717
842.112	22672
842.249	22557
842.385	22478
842.522	22759
842.659	22550
842.796	22481
842.933	22523
843.069	22474
843.206	22451
843.343	22615
843.479	22523
843.616	22523
843.752	22257
843.889	22268
844.025	22500
844.162	22318
844.298	22474
844.435	22200
844.571	22234
844.708	22386
844.844	22424
844.98	22417
845.117	22485
845.253	22200
845.389	22124
845.525	22246
845.661	22143
845.798	21998
845.934	22093
846.07	21998
846.206	22010
846.342	22105
846.478	22002
846.614	21869
846.75	21682
846.886	21743
847.022	21869
847.158	21812
847.294	21762
847.429	21915
847.565	21797
847.701	22074
847.837	21561
847.972	21530
848.108	21580
848.244	21538
848.379	21519
848.515	21428
848.65	21298
848.786	21252
848.921	21431
849.057	21481
849.192	21291
849.328	21397
849.463	21332
849.598	21256
849.734	21199
849.869	21188
850.004	21119
850.14	21135
850.275	21108
850.41	21085
850.545	21157
850.68	21176
850.815	21245
850.95	21051
851.085	21332
851.22	21146
851.355	21157
851.49	21165
851.625	21085
851.76	21104
851.895	21104
852.03	21074
852.165	21188
852.299	21161
852.434	21214
852.569	21112
852.703	21123
852.838	21112
852.973	21252
853.107	21332
853.242	21051
853.376	20952
853.511	20804
853.645	20895
853.78	20952
853.914	20952
854.048	20914
854.183	20857
854.317	20845
854.451	21070
854.585	20937
854.72	21032
854.854	20994
854.988	20910
855.122	20899
855.256	20743
855.39	20960
855.524	20948
855.658	20929
855.792	20880
855.926	20906
856.06	21032
856.194	20948
856.327	20872
856.461	20921
856.595	20807
856.729	20815
856.862	21009
856.996	21062
857.13	21116
857.263	21081
857.397	21001
857.53	20944
857.664	20899
857.797	20899
857.931	21013
858.064	21081
858.197	21028
858.331	20986
858.464	20880
858.597	20727
858.731	20872
858.864	20963
858.997	20861
859.13	20998
859.263	20918
859.396	21005
859.529	20861
859.662	20933
859.795	20876
859.928	20857
860.061	21184
860.194	21062
860.327	21028
860.46	21020
860.592	21047
860.725	21001
860.858	21146
860.99	20868
861.123	20819
861.256	20902
861.388	20895
861.521	21720
861.653	20785
861.786	20735
861.918	20769
862.05	20876
862.183	20830
862.315	20868
862.447	20971
862.58	20781
862.712	20613
862.844	20583
862.976	20914
863.108	20716
863.24	21001
863.372	20640
863.504	20629
863.636	20689
863.768	20739
863.9	20705
864.032	20640
864.164	20609
864.296	20526
864.428	20743
864.559	20701
864.691	20758
864.823	20625
864.954	20701
865.086	20606
865.217	20484
865.349	20560
865.48	20533
865.612	20522
865.743	20678
865.875	20533
866.006	20507
866.137	20571
866.269	20632
866.4	20469
866.531	20473
866.662	20442
866.793	20457
866.924	20507
867.055	20552
867.186	20488
867.317	20632
867.448	20526
867.579	20526
867.71	20408
867.841	20476
867.972	20522
868.103	20358
868.233	20438
868.364	20488
868.495	20651
868.625	20785
868.756	20925
868.886	20777
869.017	20838
869.147	20765
869.278	20781
869.408	20731
869.539	20663
869.669	20727
869.799	20705
869.929	20868
870.06	20830
870.19	21074
870.32	21058
870.45	21154
870.58	21169
870.71	21226
870.84	21279
870.97	21211
871.1	21222
871.23	21428
871.36	21291
871.489	21176
871.619	21214
871.749	21306
871.879	21363
872.008	21420
872.138	21386
872.267	21454
872.397	21241
872.526	21142
872.656	21150
872.785	21165
872.915	21340
873.044	21416
873.173	21344
873.303	21313
873.432	21420
873.561	21583
873.69	21359
873.819	21310
873.948	21504
874.077	21412
874.206	21306
874.335	21344
874.464	21458
874.593	21637
874.722	21542
874.851	21549
874.979	21637
875.108	21530
875.237	21542
875.365	21523
875.494	21515
875.623	21583
875.751	21564
875.88	21637
876.008	21762
876.136	21808
876.265	22029
876.393	22051
876.521	22120
876.65	22097
876.778	22124
876.906	21869
877.034	21972
877.162	21934
877.29	21812
877.418	21972
877.546	22017
877.674	21880
877.802	21869
877.93	21975
878.058	21941
878.185	21800
878.313	21972
878.441	21854
878.568	21865
878.696	21884
878.824	22036
878.951	22025
879.079	22109
879.206	22249
879.333	22128
879.461	21960
879.588	22036
879.715	22093
879.842	22219
879.97	22025
880.097	21846
880.224	21804
880.351	21892
880.478	21724
880.605	21793
880.732	21694
880.859	22006
880.986	21857
881.112	21884
881.239	21599
881.366	21564
881.493	21500
881.619	21325
881.746	21428
881.872	21397
881.999	21291
882.125	21287
882.252	21443
882.378	21408
882.505	21466
882.631	21119
882.757	21161
882.883	21104
883.01	21074
883.136	20921
883.262	20910
883.388	20933
883.514	21131
883.64	21066
883.766	21020
883.892	20807
884.018	20849
884.143	21051
884.269	21131
884.395	20701
884.52	20648
884.646	20811
884.772	20678
884.897	20518
885.023	20716
885.148	20887
885.274	20872
885.399	20781
885.524	20617
885.65	20773
885.775	20724
885.9	20670
886.025	20876
886.15	20796
886.275	20606
886.4	20530
886.525	20712
886.65	20484
886.775	20617
886.9	20826
887.025	20956
887.149	20689
887.274	20533
887.399	20492
887.523	20495
887.648	20358
887.773	20298
887.897	20412
888.021	20522
888.146	20328
888.27	20587
888.395	20598
888.519	20564
888.643	20503
888.767	20484
888.891	20484
889.015	20191
889.139	20305
889.263	20263
889.387	20408
889.511	20355
889.635	20389
889.759	20157
889.883	20237
890.006	20305
890.13	20442
890.254	20218
890.377	20256
890.501	20065
890.624	19993
890.748	20043
890.871	19921
890.995	19947
891.118	19738
891.241	19849
891.364	19860
891.488	20031
891.611	19860
891.734	19868
891.857	19871
891.98	19928
892.103	19986
892.226	19906
892.349	19887
892.471	19784
892.594	19723
892.717	19795
892.839	19875
892.962	19791
893.085	19788
893.207	19727
893.33	19639
893.452	19655
893.575	19875
893.697	19757
893.819	19906
893.941	20069
894.064	19909
894.186	19632
894.308	19674
894.43	19936
894.552	19868
894.674	19883
894.796	19822
894.918	19841
895.04	19658
895.161	19864
895.283	19852
895.405	19677
895.526	19864
895.648	19738
895.769	19753
895.891	19837
896.012	19852
896.134	19955
896.255	19723
896.376	19868
896.498	19765
896.619	19913
896.74	19837
896.861	19757
896.982	20157
897.103	20332
897.224	20195
897.345	19917
897.466	19936
897.587	20119
897.708	20210
897.828	20046
897.949	19940
898.07	19879
898.19	19970
898.311	20164
898.431	20008
898.552	20088
898.672	19936
898.792	20111
898.913	19993
899.033	19887
899.153	19784
899.273	19780
899.393	19750
899.513	19685
899.633	19693
899.753	19807
899.873	19746
899.993	19769
900.113	19822
900.232	19780
900.352	19662
900.472	19670
900.591	19487
900.711	19609
900.83	19468
900.95	19681
901.069	19704
901.189	19476
901.308	19190
901.427	19069
901.546	19053
901.665	19164
901.784	19194
901.904	19012
902.023	18871
902.141	18722
902.26	18601
902.379	18768
902.498	18650
902.617	18506
902.735	18639
902.854	18612
902.973	18582
903.091	18414
903.21	18224
903.328	18407
903.446	18155
903.565	18152
903.683	18209
903.801	18003
903.919	18045
904.038	18136
904.156	17999
904.274	18019
904.392	17863
904.51	17859
904.627	17809
904.745	17961
904.863	17977
904.981	17707
905.098	17619
905.216	17687
905.334	17585
905.451	17627
905.569	17554
905.686	17649
905.803	17604
905.921	17368
906.038	17467
906.155	17425
906.272	17307
906.389	17250
906.506	17166
906.623	17147
906.74	17140
906.857	16991
906.974	16991
907.091	17045
907.208	17239
907.324	17174
907.441	17079
907.557	16923
907.674	16767
907.79	16752
907.907	16767
908.023	16854
908.139	16835
908.256	16869
908.372	16809
908.488	16687
908.604	16592
908.72	16516
908.836	16550
908.952	16481
909.068	16573
909.184	16641
909.3	16603
909.415	16668
909.531	16607
909.647	16272
909.762	16405
909.878	16253
909.993	16204
910.108	16223
910.224	16211
910.339	16261
910.454	16112
910.57	16090
910.685	16143
910.8	16272
910.915	16185
911.03	16036
911.145	15991
911.259	15816
911.374	15838
911.489	15854
911.604	15720
911.718	15580
911.833	15652
911.947	15549
912.062	15538
912.176	15675
912.291	15671
912.405	15618
912.519	15739
912.633	15873
912.748	15705
912.862	15610
912.976	15481
913.09	15367
913.204	15477
913.318	15431
913.431	15313
913.545	15477
913.659	15526
913.772	15435
913.886	15336
914	15203
914.113	15363
914.226	15386
914.34	15336
914.453	15222
914.566	15241
914.68	15176
914.793	15058
914.906	14895
915.019	14963
915.132	14861
915.245	14944
915.358	14891
915.47	14883
915.583	14785
915.696	14948
915.809	14960
915.921	14967
916.034	14838
916.146	14705
916.259	14670
916.371	14823
916.483	14735
916.595	14739
916.708	14693
916.82	14727
916.932	14663
917.044	14727
917.156	14575
917.268	14514
917.38	14571
917.491	14492
917.603	14473
917.715	14560
917.826	14556
917.938	14476
918.049	14294
918.161	14434
918.272	14575
918.384	14621
918.495	14446
918.606	14328
918.717	14252
918.828	14336
918.939	14366
919.05	14206
919.161	14180
919.272	14149
919.383	14187
919.494	14381
919.604	14541
919.715	14336
919.826	14240
919.936	14187
920.047	14389
920.157	14233
920.267	14450
920.378	14377
920.488	14237
920.598	14351
920.708	14476
920.818	14446
920.928	14457
921.038	14556
921.148	14450
921.258	14161
921.368	14145
921.477	14046
921.587	13970
921.697	13932
921.806	14027
921.916	13906
922.025	13742
922.134	13746
922.244	13609
922.353	13666
922.462	13582
922.571	13415
922.68	13308
922.789	13266
922.898	13320
923.007	13179
923.116	13308
923.224	13343
923.333	13278
923.442	13194
923.55	13118
923.659	13168
923.767	13168
923.876	13053
923.984	13129
924.092	13027
924.201	13107
924.309	13012
924.417	13015
924.525	12882
924.633	13004
924.741	13807
924.849	12738
924.956	12897
925.064	12837
925.172	12692
925.279	12764
925.387	12783
925.494	12787
925.602	12814
925.709	12703
925.816	12650
925.924	12753
926.031	12779
926.138	12642
926.245	12707
926.352	12540
926.459	12749
926.566	12753
926.673	12597
926.779	12490
926.886	12494
926.993	12308
927.099	12365
927.206	12262
927.312	12300
927.419	12353
927.525	12327
927.631	12300
927.737	12308
927.843	12144
927.95	11977
928.056	12102
928.162	12133
928.267	12178
928.373	12684
928.479	12239
928.585	11908
928.69	12117
928.796	12038
928.901	11931
929.007	11817
929.112	11977
929.218	11923
929.323	11958
929.428	11923
929.533	11961
929.638	11786
929.743	11813
929.848	11882
929.953	11805
930.058	11695
930.163	11486
930.267	11611
930.372	11718
930.477	11501
930.581	11832
930.685	11592
930.79	11440
930.894	11486
930.998	11402
931.103	11585
931.207	11193
931.311	11094
931.415	11022
931.519	10843
931.623	10778
