Data from test_V78500241_3278.txt Node
Date: Fri Mar 25 15:32:41 CST 2022
User: usil
Spectrometer: V785-0024
Trigger mode: 0
Integration Time (sec): 4.000000E-1
Scans to average: 1
Nonlinearity correction enabled: false
Boxcar width: 0
Storing dark spectrum: false
XAxis mode: Wavelengths
Number of Pixels in Spectrum: 1024
>>>>>Begin Spectral Data<<<<<
801.071	27310
801.214	27317
801.356	27024
801.499	26967
801.641	26830
801.783	26853
801.926	26815
802.068	26845
802.211	26883
802.353	26705
802.496	26541
802.638	26602
802.78	26389
802.923	26465
803.065	26415
803.208	26324
803.35	26453
803.492	26632
803.635	26693
803.777	26689
803.919	26674
804.061	26960
804.204	26674
804.346	26674
804.488	26530
804.63	26579
804.773	26461
804.915	26602
805.057	26659
805.199	26571
805.341	26800
805.483	26739
805.626	26788
805.768	26651
805.91	26724
806.052	26899
806.194	26701
806.336	26891
806.478	26693
806.62	26689
806.762	26743
806.904	26925
807.046	27173
807.188	27020
807.33	27051
807.472	27188
807.614	27207
807.756	27165
807.898	27089
808.04	26902
808.182	27043
808.324	26925
808.465	27024
808.607	27173
808.749	27294
808.891	27603
809.033	27488
809.174	27325
809.316	27298
809.458	27408
809.6	27439
809.741	27416
809.883	27477
810.025	27629
810.166	27652
810.308	27679
810.45	27610
810.591	27488
810.733	27359
810.875	27226
811.016	27260
811.158	27283
811.299	27450
811.441	27576
811.582	27321
811.724	27321
811.865	27184
812.007	27367
812.148	27184
812.29	27317
812.431	27591
812.573	27606
812.714	27625
812.855	27705
812.997	27854
813.138	28040
813.279	27831
813.421	27663
813.562	27789
813.703	27591
813.845	27523
813.986	27245
814.127	27154
814.268	26921
814.41	27116
814.551	26960
814.692	27119
814.833	26910
814.974	26921
815.115	27009
815.256	26880
815.397	26864
815.539	26940
815.68	26731
815.821	26720
815.962	26636
816.103	26788
816.244	26571
816.385	26583
816.526	26514
816.666	26377
816.807	26081
816.948	26202
817.089	26381
817.23	26248
817.371	26153
817.512	26248
817.653	26191
817.793	26187
817.934	26317
818.075	26221
818.216	26278
818.356	26267
818.497	26134
818.638	25940
818.778	26119
818.919	26024
819.06	26073
819.2	26183
819.341	26377
819.481	26282
819.622	26533
819.762	26438
819.903	26621
820.043	26446
820.184	26453
820.324	26480
820.465	26457
820.605	26271
820.746	26324
820.886	26225
821.026	26366
821.167	26320
821.307	26237
821.447	26237
821.588	26149
821.728	26005
821.868	25830
822.008	25628
822.149	25658
822.289	25639
822.429	25533
822.569	25487
822.709	25453
822.849	25304
822.99	25274
823.13	25168
823.27	25076
823.41	25122
823.55	24966
823.69	24973
823.83	25000
823.97	25004
824.11	24867
824.25	24844
824.389	24764
824.529	24897
824.669	24856
824.809	24924
824.949	24981
825.089	25027
825.228	24890
825.368	24726
825.508	24612
825.648	24661
825.787	24776
825.927	24760
826.067	24700
826.206	24753
826.346	24894
826.485	24688
826.625	24757
826.765	24741
826.904	24722
827.044	24445
827.183	24399
827.323	24410
827.462	24486
827.601	24380
827.741	24399
827.88	24483
828.02	24346
828.159	24380
828.298	24384
828.437	24357
828.577	24311
828.716	24563
828.855	24300
828.994	24152
829.134	24102
829.273	24273
829.412	24102
829.551	24117
829.69	24262
829.829	24038
829.968	24205
830.107	24235
830.246	24087
830.385	24098
830.524	23965
830.663	23855
830.802	23901
830.941	23855
831.08	23779
831.219	23836
831.357	23794
831.496	24011
831.635	23699
831.774	23699
831.913	23623
832.051	23539
832.19	23570
832.329	23615
832.467	23535
832.606	23337
832.744	23376
832.883	23474
833.022	23505
833.16	23520
833.299	23642
833.437	23497
833.576	23558
833.714	23512
833.852	23417
833.991	23589
834.129	23570
834.267	23554
834.406	23570
834.544	23566
834.682	23512
834.821	23516
834.959	23630
835.097	23474
835.235	23509
835.373	23535
835.511	23501
835.65	23395
835.788	23341
835.926	23299
836.064	23185
836.202	23360
836.34	23421
836.478	23315
836.615	23254
836.753	23395
836.891	23330
837.029	23463
837.167	23364
837.305	23315
837.443	23132
837.58	23181
837.718	23315
837.856	23330
837.993	23098
838.131	23315
838.269	23200
838.406	23159
838.544	23121
838.681	22869
838.819	22862
838.956	22748
839.094	22809
839.231	22877
839.369	22919
839.506	23140
839.643	23025
839.781	22679
839.918	22630
840.055	22634
840.193	22668
840.33	22622
840.467	22577
840.604	22706
840.742	22961
840.879	22432
841.016	22588
841.153	22493
841.29	22710
841.427	22626
841.564	22649
841.701	22702
841.838	22649
841.975	22637
842.112	22656
842.249	22500
842.385	22455
842.522	22637
842.659	22523
842.796	22470
842.933	22398
843.069	22211
843.206	22314
843.343	22440
843.479	22402
843.616	22375
843.752	22192
843.889	22177
844.025	22196
844.162	22150
844.298	22204
844.435	22150
844.571	22265
844.708	22211
844.844	22379
844.98	22367
845.117	22280
845.253	22006
845.389	22097
845.525	22078
845.661	22082
845.798	21854
845.934	21979
846.07	21846
846.206	21987
846.342	22010
846.478	21876
846.614	21797
846.75	21652
846.886	21728
847.022	21739
847.158	21675
847.294	21660
847.429	21713
847.565	21648
847.701	21907
847.837	21340
847.972	21374
848.108	21420
848.244	21447
848.379	21249
848.515	21176
848.65	21260
848.786	21165
848.921	21325
849.057	21226
849.192	21245
849.328	21233
849.463	21355
849.598	21226
849.734	21180
849.869	21070
850.004	21081
850.14	21055
850.275	21070
850.41	20899
850.545	20960
850.68	21017
850.815	21077
850.95	21005
851.085	21192
851.22	21142
851.355	20994
851.49	20906
851.625	20963
851.76	20975
851.895	20883
852.03	20979
852.165	21112
852.299	21047
852.434	21123
852.569	21020
852.703	21043
852.838	21032
852.973	21199
853.107	21154
853.242	20998
853.376	20804
853.511	20777
853.645	20765
853.78	20979
853.914	20815
854.048	20868
854.183	20777
854.317	20788
854.451	21043
854.585	20811
854.72	20773
854.854	20834
854.988	20670
855.122	20838
855.256	20758
855.39	20769
855.524	20960
855.658	20842
855.792	20902
855.926	20842
856.06	20921
856.194	20967
856.327	20785
856.461	20826
856.595	20716
856.729	20811
856.862	20864
856.996	20868
857.13	20971
857.263	20861
857.397	20944
857.53	20800
857.664	20876
857.797	20853
857.931	20998
858.064	20842
858.197	20937
858.331	20849
858.464	20781
858.597	20678
858.731	20743
858.864	20754
858.997	20811
859.13	20823
859.263	20807
859.396	20872
859.529	20788
859.662	20842
859.795	20887
859.928	20861
860.061	20944
860.194	21070
860.327	20910
860.46	20857
860.592	21055
860.725	20990
860.858	20944
860.99	20941
861.123	20861
861.256	20804
861.388	20777
861.521	21313
861.653	20724
861.786	20762
861.918	20777
862.05	20765
862.183	20743
862.315	20868
862.447	20762
862.58	20735
862.712	20575
862.844	20541
862.976	20602
863.108	20606
863.24	20971
863.372	20590
863.504	20579
863.636	20556
863.768	20526
863.9	20613
864.032	20693
864.164	20476
864.296	20590
864.428	20636
864.559	20617
864.691	20644
864.823	20594
864.954	20530
865.086	20450
865.217	20499
865.349	20358
865.48	20415
865.612	20313
865.743	20545
865.875	20518
866.006	20476
866.137	20423
866.269	20606
866.4	20389
866.531	20438
866.662	20301
866.793	20465
866.924	20415
867.055	20336
867.186	20461
867.317	20400
867.448	20180
867.579	20267
867.71	20450
867.841	20480
867.972	20377
868.103	20465
868.233	20351
868.364	20385
868.495	20609
868.625	20659
868.756	20651
868.886	20644
869.017	20705
869.147	20868
869.278	20823
869.408	20674
869.539	20499
869.669	20693
869.799	20674
869.929	20788
870.06	20727
870.19	20891
870.32	21009
870.45	20956
870.58	20971
870.71	21070
870.84	21100
870.97	20975
871.1	21127
871.23	21291
871.36	21283
871.489	21169
871.619	21188
871.749	21283
871.879	21256
872.008	21336
872.138	21230
872.267	21351
872.397	21108
872.526	21074
872.656	21127
872.785	21089
872.915	21249
873.044	21302
873.173	21230
873.303	21268
873.432	21241
873.561	21344
873.69	21199
873.819	21279
873.948	21272
874.077	21252
874.206	21226
874.335	21321
874.464	21424
874.593	21526
874.722	21450
874.851	21595
874.979	21507
875.108	21515
875.237	21454
875.365	21462
875.494	21591
875.623	21671
875.751	21401
875.88	21629
876.008	21701
876.136	21705
876.265	21930
876.393	22048
876.521	22006
876.65	21926
876.778	21876
876.906	21930
877.034	21835
877.162	21941
877.29	21785
877.418	21899
877.546	21876
877.674	21804
877.802	21842
877.93	21770
878.058	21808
878.185	21789
878.313	21694
878.441	21888
878.568	21652
878.696	21717
878.824	21899
878.951	21907
879.079	22124
879.206	22120
879.333	22051
879.461	21846
879.588	21922
879.715	22051
879.842	22063
879.97	21930
880.097	21781
880.224	21694
880.351	21774
880.478	21637
880.605	21686
880.732	21580
880.859	21895
880.986	21724
881.112	21736
881.239	21500
881.366	21458
881.493	21321
881.619	21310
881.746	21199
881.872	21184
881.999	21237
882.125	21321
882.252	21310
882.378	21222
882.505	21386
882.631	21150
882.757	21150
882.883	21074
883.01	21066
883.136	20872
883.262	20906
883.388	20781
883.514	21001
883.64	21039
883.766	20895
883.892	20750
884.018	20914
884.143	20918
884.269	21104
884.395	20708
884.52	20644
884.646	20587
884.772	20564
884.897	20488
885.023	20556
885.148	20590
885.274	20708
885.399	20648
885.524	20594
885.65	20606
885.775	20697
885.9	20552
886.025	20659
886.15	20705
886.275	20621
886.4	20469
886.525	20495
886.65	20514
886.775	20590
886.9	20689
887.025	20811
887.149	20560
887.274	20450
887.399	20358
887.523	20332
887.648	20393
887.773	20305
887.897	20522
888.021	20473
888.146	20320
888.27	20431
888.395	20492
888.519	20427
888.643	20389
888.767	20492
888.891	20210
889.015	20290
889.139	20301
889.263	20096
889.387	20286
889.511	20328
889.635	20339
889.759	20100
889.883	20130
890.006	20225
890.13	20355
890.254	20168
890.377	20077
890.501	19925
890.624	20065
890.748	19993
890.871	19753
890.995	19750
891.118	19727
891.241	19734
891.364	19913
891.488	19887
891.611	19833
891.734	19868
891.857	19776
891.98	19875
892.103	19742
892.226	19677
892.349	19635
892.471	19704
892.594	19674
892.717	19681
892.839	19708
892.962	19628
893.085	19784
893.207	19712
893.33	19563
893.452	19582
893.575	19704
893.697	19788
893.819	19890
893.941	19959
894.064	19837
894.186	19776
894.308	19677
894.43	19708
894.552	19750
894.674	19807
894.796	19571
894.918	19590
895.04	19708
895.161	19776
895.283	19719
895.405	19750
895.526	19647
895.648	19715
895.769	19772
895.891	19712
896.012	19772
896.134	19719
896.255	19761
896.376	19594
896.498	19696
896.619	19769
896.74	19753
896.861	19719
896.982	19921
897.103	20161
897.224	19932
897.345	19909
897.466	19723
897.587	19871
897.708	19967
897.828	19902
897.949	19890
898.07	19731
898.19	19761
898.311	19955
898.431	19746
898.552	19875
898.672	20039
898.792	20081
898.913	20020
899.033	19818
899.153	19674
899.273	19590
899.393	19795
899.513	19723
899.633	19613
899.753	19643
899.873	19696
899.993	19655
900.113	19487
900.232	19597
900.352	19563
900.472	19544
900.591	19453
900.711	19480
900.83	19365
900.95	19590
901.069	19578
901.189	19304
901.308	19160
901.427	19012
901.546	19076
901.665	19038
901.784	19004
901.904	18905
902.023	18814
902.141	18661
902.26	18418
902.379	18646
902.498	18574
902.617	18502
902.735	18532
902.854	18486
902.973	18433
903.091	18270
903.21	18129
903.328	18216
903.446	18064
903.565	18114
903.683	18110
903.801	17927
903.919	17882
904.038	18011
904.156	17863
904.274	17798
904.392	17817
904.51	17783
904.627	17790
904.745	17798
904.863	17798
904.981	17577
905.098	17547
905.216	17543
905.334	17520
905.451	17414
905.569	17395
905.686	17512
905.803	17410
905.921	17208
906.038	17372
906.155	17265
906.272	17193
906.389	17254
906.506	17029
906.623	17037
906.74	17083
906.857	16896
906.974	16957
907.091	17113
907.208	17113
907.324	17056
907.441	16995
907.557	16858
907.674	16839
907.79	16660
907.907	16812
908.023	16790
908.139	16797
908.256	16752
908.372	16622
908.488	16637
908.604	16508
908.72	16481
908.836	16527
908.952	16474
909.068	16451
909.184	16504
909.3	16390
909.415	16360
909.531	16344
909.647	16310
909.762	16200
909.878	16173
909.993	16158
910.108	16139
910.224	16074
910.339	16215
910.454	15991
910.57	16017
910.685	15835
910.8	16128
910.915	16139
911.03	16040
911.145	15797
911.259	15713
911.374	15762
911.489	15690
911.604	15637
911.718	15431
911.833	15538
911.947	15511
912.062	15374
912.176	15580
912.291	15561
912.405	15485
912.519	15831
912.633	15667
912.748	15488
912.862	15595
912.976	15367
913.09	15291
913.204	15344
913.318	15298
913.431	15458
913.545	15382
913.659	15389
913.772	15424
913.886	15264
914	15165
914.113	15252
914.226	15256
914.34	15142
914.453	15123
914.566	15157
914.68	15043
914.793	15020
914.906	14769
915.019	14872
915.132	14670
915.245	14739
915.358	14716
915.47	14800
915.583	14629
915.696	14758
915.809	14834
915.921	14845
916.034	14727
916.146	14655
916.259	14693
916.371	14785
916.483	14712
916.595	14541
916.708	14552
916.82	14590
916.932	14552
917.044	14617
917.156	14526
917.268	14465
917.38	14400
917.491	14488
917.603	14385
917.715	14590
917.826	14587
917.938	14442
918.049	14263
918.161	14412
918.272	14457
918.384	14473
918.495	14408
918.606	14164
918.717	14164
918.828	14263
918.939	14199
919.05	14111
919.161	14145
919.272	13940
919.383	14168
919.494	14138
919.604	14381
919.715	14237
919.826	14088
919.936	14183
920.047	14218
920.157	14153
920.267	14351
920.378	14206
920.488	14180
920.598	14389
920.708	14530
920.818	14313
920.928	14206
921.038	14404
921.148	14476
921.258	14138
921.368	14168
921.477	13944
921.587	13871
921.697	13693
921.806	13963
921.916	13902
922.025	13559
922.134	13491
922.244	13502
922.353	13537
922.462	13506
922.571	13358
922.68	13206
922.789	13183
922.898	13312
923.007	13168
923.116	13228
923.224	13270
923.333	13213
923.442	13031
923.55	12981
923.659	12977
923.767	13099
923.876	13012
923.984	13053
924.092	12981
924.201	13114
924.309	12989
924.417	12970
924.525	12909
924.633	12867
924.741	13753
924.849	12669
924.956	12856
925.064	12673
925.172	12593
925.279	12620
925.387	12650
925.494	12646
925.602	12730
925.709	12650
925.816	12551
925.924	12555
926.031	12673
926.138	12551
926.245	12551
926.352	12509
926.459	12665
926.566	12616
926.673	12490
926.779	12369
926.886	12448
926.993	12239
927.099	12194
927.206	12232
927.312	12178
927.419	12232
927.525	12216
927.631	12186
927.737	12144
927.843	12110
927.95	12045
928.056	12102
928.162	12053
928.267	12186
928.373	12650
928.479	12049
928.585	11897
928.69	11965
928.796	12030
928.901	11901
929.007	11790
929.112	11893
929.218	11855
929.323	11775
929.428	11798
929.533	11832
929.638	11729
929.743	11726
929.848	11878
929.953	11695
930.058	11646
930.163	11433
930.267	11433
930.372	11661
930.477	11448
930.581	11604
930.685	11497
930.79	11395
930.894	11448
930.998	11296
931.103	11474
931.207	11086
931.311	11067
931.415	10927
931.519	10782
931.623	10748
