Data from test_V78500241_996.txt Node
Date: Fri Mar 25 15:16:47 CST 2022
User: usil
Spectrometer: V785-0024
Trigger mode: 0
Integration Time (sec): 4.000000E-1
Scans to average: 1
Nonlinearity correction enabled: false
Boxcar width: 0
Storing dark spectrum: false
XAxis mode: Wavelengths
Number of Pixels in Spectrum: 1024
>>>>>Begin Spectral Data<<<<<
801.071	28592
801.214	28421
801.356	28128
801.499	28090
801.641	27964
801.783	27831
801.926	27956
802.068	27888
802.211	27922
802.353	27911
802.496	27583
802.638	27481
802.78	27496
802.923	27610
803.065	27599
803.208	27473
803.35	27625
803.492	27835
803.635	27774
803.777	27785
803.919	27709
804.061	28120
804.204	27926
804.346	27709
804.488	27648
804.63	27736
804.773	27831
804.915	27857
805.057	27861
805.199	27759
805.341	27949
805.483	28051
805.626	28063
805.768	27880
805.91	27899
806.052	28040
806.194	27914
806.336	28116
806.478	27972
806.62	28074
806.762	28128
806.904	28333
807.046	28569
807.188	28341
807.33	28371
807.472	28497
807.614	28318
807.756	28512
807.898	28223
808.04	28287
808.182	28230
808.324	28382
808.465	28261
808.607	28538
808.749	28550
808.891	28675
809.033	28763
809.174	28653
809.316	28580
809.458	28721
809.6	28637
809.741	28824
809.883	28717
810.025	28965
810.166	28938
810.308	28774
810.45	28915
810.591	28763
810.733	28740
810.875	28713
811.016	28489
811.158	28649
811.299	28717
811.441	28915
811.582	28664
811.724	28679
811.865	28596
812.007	28691
812.148	28725
812.29	28702
812.431	28702
812.573	29041
812.714	29048
812.855	29223
812.997	29208
813.138	29341
813.279	29410
813.421	29223
813.562	29117
813.703	29071
813.845	28858
813.986	28641
814.127	28394
814.268	28413
814.41	28306
814.551	28352
814.692	28489
814.833	28375
814.974	28390
815.115	28371
815.256	28246
815.397	28325
815.539	28207
815.68	28200
815.821	28192
815.962	28200
816.103	28223
816.244	28013
816.385	28006
816.526	27998
816.666	27797
816.807	27644
816.948	27800
817.089	27892
817.23	27736
817.371	27800
817.512	27625
817.653	27572
817.793	27622
817.934	27728
818.075	27736
818.216	27713
818.356	27599
818.497	27507
818.638	27412
818.778	27378
818.919	27458
819.06	27553
819.2	27466
819.341	27736
819.481	27724
819.622	27945
819.762	28173
819.903	27972
820.043	27991
820.184	27736
820.324	27774
820.465	27842
820.605	27842
820.746	27895
820.886	27603
821.026	27720
821.167	27812
821.307	27827
821.447	27572
821.588	27580
821.728	27386
821.868	27302
822.008	27112
822.149	27176
822.289	27005
822.429	26902
822.569	26773
822.709	26933
822.849	26625
822.99	26682
823.13	26754
823.27	26621
823.41	26518
823.55	26248
823.69	26408
823.83	26598
823.97	26617
824.11	26328
824.25	26366
824.389	26427
824.529	26317
824.669	26351
824.809	26533
824.949	26450
825.089	26393
825.228	26438
825.368	26142
825.508	26267
825.648	26233
825.787	26176
825.927	26252
826.067	26214
826.206	26252
826.346	26233
826.485	26309
826.625	26107
826.765	26309
826.904	26195
827.044	26001
827.183	25871
827.323	25811
827.462	26027
827.601	25890
827.741	25913
827.88	25986
828.02	25803
828.159	25887
828.298	25982
828.437	25970
828.577	26050
828.716	26069
828.855	25986
828.994	25715
829.134	25681
829.273	25624
829.412	25559
829.551	25647
829.69	25635
829.829	25685
829.968	25731
830.107	25769
830.246	25582
830.385	25597
830.524	25556
830.663	25411
830.802	25354
830.941	25225
831.08	25122
831.219	25270
831.357	25434
831.496	25422
831.635	25251
831.774	25206
831.913	25122
832.051	25122
832.19	25015
832.329	25038
832.467	24928
832.606	24886
832.744	24886
832.883	24973
833.022	24867
833.16	24852
833.299	24867
833.437	25015
833.576	24943
833.714	25050
833.852	25050
833.991	25015
834.129	25072
834.267	25099
834.406	24951
834.544	25027
834.682	24981
834.821	24947
834.959	25183
835.097	25015
835.235	24928
835.373	24966
835.511	25122
835.65	24973
835.788	24776
835.926	24821
836.064	24654
836.202	24559
836.34	24821
836.478	25050
836.615	24760
836.753	24928
836.891	24928
837.029	24916
837.167	24639
837.305	24863
837.443	24578
837.58	24715
837.718	24871
837.856	24631
837.993	24677
838.131	24722
838.269	24551
838.406	24551
838.544	24448
838.681	24273
838.819	24262
838.956	24129
839.094	24163
839.231	24163
839.369	24277
839.506	24494
839.643	24311
839.781	24091
839.918	24106
840.055	24102
840.193	24083
840.33	24091
840.467	24022
840.604	24159
840.742	24182
840.879	23916
841.016	24087
841.153	23916
841.29	24079
841.427	23939
841.564	24034
841.701	24060
841.838	24041
841.975	23889
842.112	23828
842.249	23836
842.385	23843
842.522	24110
842.659	23939
842.796	23786
842.933	23809
843.069	23703
843.206	23695
843.343	23745
843.479	23931
843.616	23878
843.752	23543
843.889	23661
844.025	23680
844.162	23596
844.298	23661
844.435	23630
844.571	23627
844.708	23570
844.844	23695
844.98	23760
845.117	23665
845.253	23554
845.389	23429
845.525	23589
845.661	23406
845.798	23379
845.934	23277
846.07	23410
846.206	23410
846.342	23486
846.478	23318
846.614	23086
846.75	22976
846.886	22858
847.022	23037
847.158	23151
847.294	22957
847.429	23067
847.565	23044
847.701	23280
847.837	22744
847.972	22694
848.108	22911
848.244	22919
848.379	22869
848.515	22729
848.65	22634
848.786	22580
848.921	22645
849.057	22675
849.192	22790
849.328	22626
849.463	22603
849.598	22599
849.734	22508
849.869	22440
850.004	22462
850.14	22348
850.275	22337
850.41	22196
850.545	22280
850.68	22242
850.815	22485
850.95	22348
851.085	22500
851.22	22504
851.355	22386
851.49	22413
851.625	22478
851.76	22443
851.895	22329
852.03	22261
852.165	22360
852.299	22455
852.434	22436
852.569	22371
852.703	22493
852.838	22455
852.973	22470
853.107	22500
853.242	22363
853.376	22200
853.511	22032
853.645	22128
853.78	22306
853.914	22303
854.048	22109
854.183	22287
854.317	22310
854.451	22390
854.585	22291
854.72	22150
854.854	22219
854.988	22063
855.122	22112
855.256	22128
855.39	22078
855.524	22367
855.658	22249
855.792	22249
855.926	22386
856.06	22253
856.194	22257
856.327	22112
856.461	22230
856.595	22249
856.729	22306
856.862	22207
856.996	22337
857.13	22268
857.263	22329
857.397	22291
857.53	22063
857.664	22367
857.797	22211
857.931	22348
858.064	22310
858.197	22276
858.331	22166
858.464	22173
858.597	22196
858.731	22158
858.864	22124
858.997	22166
859.13	22291
859.263	22249
859.396	22223
859.529	22173
859.662	22166
859.795	22226
859.928	22078
860.061	22318
860.194	22421
860.327	22306
860.46	22268
860.592	22238
860.725	22329
860.858	22371
860.99	22272
861.123	22223
861.256	22078
861.388	22188
861.521	22915
861.653	22025
861.786	22017
861.918	21975
862.05	22090
862.183	22143
862.315	22143
862.447	22314
862.58	22109
862.712	21930
862.844	21903
862.976	21991
863.108	22105
863.24	22386
863.372	21892
863.504	21949
863.636	21842
863.768	21861
863.9	21922
864.032	22013
864.164	21930
864.296	21937
864.428	22082
864.559	21873
864.691	21953
864.823	22036
864.954	21964
865.086	21884
865.217	21895
865.349	21671
865.48	21812
865.612	21698
865.743	21857
865.875	21762
866.006	21766
866.137	21880
866.269	21778
866.4	21857
866.531	21694
866.662	21701
866.793	21747
866.924	21823
867.055	21800
867.186	21717
867.317	21595
867.448	21572
867.579	21652
867.71	21660
867.841	21618
867.972	21698
868.103	21622
868.233	21827
868.364	21679
868.495	21698
868.625	22017
868.756	22105
868.886	21968
869.017	21949
869.147	22124
869.278	22021
869.408	22010
869.539	21945
869.669	22086
869.799	22067
869.929	22055
870.06	22070
870.19	22166
870.32	22291
870.45	22379
870.58	22363
870.71	22375
870.84	22481
870.97	22360
871.1	22333
871.23	22569
871.36	22546
871.489	22489
871.619	22447
871.749	22512
871.879	22550
872.008	22660
872.138	22493
872.267	22527
872.397	22390
872.526	22363
872.656	22436
872.785	22299
872.915	22607
873.044	22630
873.173	22607
873.303	22542
873.432	22755
873.561	22611
873.69	22561
873.819	22596
873.948	22668
874.077	22618
874.206	22592
874.335	22512
874.464	22615
874.593	22763
874.722	22679
874.851	22820
874.979	22900
875.108	22755
875.237	22843
875.365	22645
875.494	22691
875.623	22900
875.751	22599
875.88	22839
876.008	22927
876.136	23075
876.265	23075
876.393	23277
876.521	23235
876.65	23170
876.778	23368
876.906	23090
877.034	23109
877.162	23079
877.29	23041
877.418	23159
877.546	23181
877.674	23086
877.802	23117
877.93	23029
878.058	23090
878.185	23018
878.313	23037
878.441	23200
878.568	23018
878.696	22896
878.824	23151
878.951	23269
879.079	23292
879.206	23398
879.333	23261
879.461	23185
879.588	23227
879.715	23200
879.842	23471
879.97	23216
880.097	23025
880.224	22949
880.351	23025
880.478	22976
880.605	22976
880.732	22995
880.859	23113
880.986	23075
881.112	22908
881.239	22896
881.366	22801
881.493	22580
881.619	22554
881.746	22516
881.872	22413
881.999	22409
882.125	22371
882.252	22512
882.378	22497
882.505	22535
882.631	22295
882.757	22242
882.883	22310
883.01	22207
883.136	22169
883.262	22116
883.388	22013
883.514	22162
883.64	22173
883.766	22070
883.892	22036
884.018	21926
884.143	22185
884.269	22242
884.395	21865
884.52	21838
884.646	21800
884.772	21736
884.897	21785
885.023	21720
885.148	21945
885.274	21892
885.399	21922
885.524	21770
885.65	21785
885.775	21922
885.9	21713
886.025	21983
886.15	21903
886.275	21789
886.4	21698
886.525	21808
886.65	21675
886.775	21816
886.9	21960
887.025	21994
887.149	21812
887.274	21610
887.399	21595
887.523	21572
887.648	21572
887.773	21599
887.897	21660
888.021	21587
888.146	21561
888.27	21633
888.395	21709
888.519	21610
888.643	21469
888.767	21572
888.891	21420
889.015	21325
889.139	21488
889.263	21428
889.387	21534
889.511	21603
889.635	21481
889.759	21405
889.883	21424
890.006	21405
890.13	21500
890.254	21363
890.377	21154
890.501	21154
890.624	21066
890.748	21245
890.871	21108
890.995	21047
891.118	20979
891.241	20910
891.364	21017
891.488	21104
891.611	20952
891.734	20921
891.857	20944
891.98	20979
892.103	20952
892.226	20811
892.349	20819
892.471	20796
892.594	20826
892.717	20902
892.839	20769
892.962	20925
893.085	20880
893.207	20921
893.33	20792
893.452	20670
893.575	20861
893.697	20830
893.819	20967
893.941	21165
894.064	21009
894.186	20746
894.308	20781
894.43	20883
894.552	21055
894.674	20872
894.796	20781
894.918	20804
895.04	20781
895.161	20941
895.283	20944
895.405	20625
895.526	20804
895.648	20914
895.769	20933
895.891	20906
896.012	20960
896.134	20845
896.255	20826
896.376	20689
896.498	20872
896.619	20868
896.74	20830
896.861	20929
896.982	21146
897.103	21222
897.224	21028
897.345	21043
897.466	20925
897.587	21024
897.708	21142
897.828	21119
897.949	20982
898.07	20849
898.19	20925
898.311	21089
898.431	21055
898.552	20990
898.672	20887
898.792	21123
898.913	21085
899.033	20838
899.153	20773
899.273	20758
899.393	20785
899.513	20773
899.633	20621
899.753	20701
899.873	20697
899.993	20762
900.113	20682
900.232	20625
900.352	20670
900.472	20636
900.591	20476
900.711	20552
900.83	20473
900.95	20575
901.069	20613
901.189	20442
901.308	20119
901.427	20096
901.546	20134
901.665	20153
901.784	20058
901.904	19856
902.023	19776
902.141	19666
902.26	19624
902.379	19651
902.498	19769
902.617	19575
902.735	19613
902.854	19613
902.973	19350
903.091	19278
903.21	19236
903.328	19213
903.446	19240
903.565	19114
903.683	19042
903.801	18947
903.919	19057
904.038	19114
904.156	18947
904.274	18817
904.392	18825
904.51	18897
904.627	18806
904.745	18817
904.863	19015
904.981	18650
905.098	18437
905.216	18471
905.334	18506
905.451	18547
905.569	18509
905.686	18422
905.803	18570
905.921	18254
906.038	18460
906.155	18289
906.272	18323
906.389	18197
906.506	18072
906.623	17984
906.74	18034
906.857	18022
906.974	17935
907.091	18034
907.208	18136
907.324	18034
907.441	17832
907.557	17802
907.674	17672
907.79	17638
907.907	17646
908.023	17786
908.139	17703
908.256	17630
908.372	17646
908.488	17638
908.604	17547
908.72	17474
908.836	17493
908.952	17547
909.068	17341
909.184	17486
909.3	17478
909.415	17467
909.531	17402
909.647	17254
909.762	17181
909.878	17159
909.993	17235
910.108	17178
910.224	17105
910.339	17136
910.454	17006
910.57	17071
910.685	16892
910.8	17197
910.915	17113
911.03	16984
911.145	16854
911.259	16835
911.374	16710
911.489	16653
911.604	16618
911.718	16542
911.833	16462
911.947	16398
912.062	16341
912.176	16459
912.291	16424
912.405	16459
912.519	16706
912.633	16733
912.748	16474
912.862	16493
912.976	16287
913.09	16261
913.204	16306
913.318	16356
913.431	16455
913.545	16344
913.659	16424
913.772	16261
913.886	16185
914	16105
914.113	16204
914.226	16204
914.34	16257
914.453	15994
914.566	16135
914.68	16036
914.793	15968
914.906	15743
915.019	15652
915.132	15660
915.245	15587
915.358	15671
915.47	15682
915.583	15648
915.696	15584
915.809	15812
915.921	15808
916.034	15618
916.146	15576
916.259	15534
916.371	15694
916.483	15667
916.595	15477
916.708	15545
916.82	15504
916.932	15545
917.044	15473
917.156	15435
917.268	15336
917.38	15275
917.491	15275
917.603	15306
917.715	15348
917.826	15443
917.938	15211
918.049	15169
918.161	15321
918.272	15389
918.384	15443
918.495	15302
918.606	15051
918.717	14994
918.828	15081
918.939	15093
919.05	14982
919.161	15047
919.272	14868
919.383	14876
919.494	15028
919.604	15123
919.715	15108
919.826	14963
919.936	15024
920.047	14994
920.157	14967
920.267	15195
920.378	15058
920.488	14941
920.598	15100
920.708	15325
920.818	15093
920.928	15161
921.038	15203
921.148	15313
921.258	14944
921.368	14842
921.477	14807
921.587	14762
921.697	14610
921.806	14739
921.916	14598
922.025	14393
922.134	14427
922.244	14282
922.353	14389
922.462	14385
922.571	14088
922.68	13993
922.789	14035
922.898	13989
923.007	13856
923.116	14046
923.224	13963
923.333	14012
923.442	13875
923.55	13868
923.659	13811
923.767	13913
923.876	13795
923.984	13807
924.092	13818
924.201	13651
924.309	13772
924.417	13753
924.525	13601
924.633	13738
924.741	14655
924.849	13415
924.956	13636
925.064	13430
925.172	13415
925.279	13346
925.387	13381
925.494	13453
925.602	13525
925.709	13464
925.816	13270
925.924	13297
926.031	13468
926.138	13282
926.245	13381
926.352	13179
926.459	13331
926.566	13358
926.673	13217
926.779	13118
926.886	13133
926.993	13065
927.099	12920
927.206	12947
927.312	12909
927.419	13023
927.525	12935
927.631	12943
927.737	12760
927.843	12791
927.95	12601
928.056	12837
928.162	12764
928.267	12810
928.373	13232
928.479	12886
928.585	12585
928.69	12665
928.796	12719
928.901	12597
929.007	12403
929.112	12547
929.218	12563
929.323	12486
929.428	12441
929.533	12612
929.638	12445
929.743	12452
929.848	12528
929.953	12502
930.058	12292
930.163	12159
930.267	12235
930.372	12296
930.477	12110
930.581	12281
930.685	12163
930.79	12060
930.894	12011
930.998	11927
931.103	12106
931.207	11737
931.311	11691
931.415	11684
931.519	11459
931.623	11379
