Data from test_V78500241_278.txt Node
Date: Fri Mar 25 15:11:47 CST 2022
User: usil
Spectrometer: V785-0024
Trigger mode: 0
Integration Time (sec): 4.000000E-1
Scans to average: 1
Nonlinearity correction enabled: false
Boxcar width: 0
Storing dark spectrum: false
XAxis mode: Wavelengths
Number of Pixels in Spectrum: 1024
>>>>>Begin Spectral Data<<<<<
801.071	27713
801.214	27485
801.356	27321
801.499	27252
801.641	27165
801.783	27176
801.926	27150
802.068	27062
802.211	27085
802.353	26880
802.496	26933
802.638	26796
802.78	26868
802.923	26686
803.065	26560
803.208	26739
803.35	26678
803.492	26826
803.635	26891
803.777	26785
803.919	26921
804.061	27192
804.204	26944
804.346	26788
804.488	26849
804.63	26819
804.773	26731
804.915	26807
805.057	26891
805.199	26944
805.341	26842
805.483	26906
805.626	26887
805.768	26895
805.91	26914
806.052	27001
806.194	26842
806.336	27138
806.478	27013
806.62	26960
806.762	27066
806.904	27180
807.046	27237
807.188	27226
807.33	27321
807.472	27378
807.614	27249
807.756	27275
807.898	27127
808.04	26982
808.182	26967
808.324	27093
808.465	27275
808.607	27351
808.749	27332
808.891	27736
809.033	27652
809.174	27648
809.316	27576
809.458	27542
809.6	27473
809.741	27462
809.883	27553
810.025	27755
810.166	27804
810.308	27705
810.45	27766
810.591	27743
810.733	27587
810.875	27412
811.016	27325
811.158	27378
811.299	27603
811.441	27686
811.582	27530
811.724	27485
811.865	27367
812.007	27500
812.148	27450
812.29	27443
812.431	27690
812.573	27857
812.714	27831
812.855	27914
812.997	28032
813.138	28242
813.279	28086
813.421	28013
813.562	28070
813.703	27770
813.845	27641
813.986	27393
814.127	27195
814.268	27108
814.41	27135
814.551	27100
814.692	27192
814.833	27074
814.974	26982
815.115	27089
815.256	26925
815.397	26826
815.539	26960
815.68	26765
815.821	26895
815.962	26796
816.103	26925
816.244	26625
816.385	26697
816.526	26640
816.666	26400
816.807	26396
816.948	26469
817.089	26351
817.23	26377
817.371	26370
817.512	26355
817.653	26263
817.793	26172
817.934	26278
818.075	26286
818.216	26377
818.356	26328
818.497	26126
818.638	26012
818.778	26012
818.919	25944
819.06	26142
819.2	26248
819.341	26240
819.481	26229
819.622	26419
819.762	26613
819.903	26568
820.043	26408
820.184	26301
820.324	26366
820.465	26514
820.605	26374
820.746	26431
820.886	26237
821.026	26298
821.167	26336
821.307	26396
821.447	26172
821.588	26126
821.728	26043
821.868	25837
822.008	25681
822.149	25658
822.289	25860
822.429	25525
822.569	25384
822.709	25308
822.849	25308
822.99	25122
823.13	25069
823.27	25225
823.41	25091
823.55	24924
823.69	24981
823.83	25046
823.97	24989
824.11	24871
824.25	24726
824.389	24814
824.529	24806
824.669	24825
824.809	24890
824.949	24871
825.089	24875
825.228	24878
825.368	24722
825.508	24661
825.648	24650
825.787	24681
825.927	24688
826.067	24650
826.206	24684
826.346	24768
826.485	24642
826.625	24646
826.765	24741
826.904	24749
827.044	24483
827.183	24441
827.323	24296
827.462	24369
827.601	24407
827.741	24391
827.88	24315
828.02	24182
828.159	24201
828.298	24380
828.437	24380
828.577	24270
828.716	24494
828.855	24194
828.994	24053
829.134	24098
829.273	24091
829.412	24038
829.551	23977
829.69	23988
829.829	24011
829.968	24228
830.107	24125
830.246	24136
830.385	23977
830.524	23821
830.663	23828
830.802	23703
830.941	23764
831.08	23649
831.219	23729
831.357	23737
831.496	23756
831.635	23661
831.774	23459
831.913	23505
832.051	23512
832.19	23395
832.329	23448
832.467	23360
832.606	23337
832.744	23265
832.883	23258
833.022	23220
833.16	23303
833.299	23299
833.437	23265
833.576	23455
833.714	23429
833.852	23341
833.991	23509
834.129	23379
834.267	23372
834.406	23364
834.544	23360
834.682	23303
834.821	23197
834.959	23474
835.097	23277
835.235	23364
835.373	23349
835.511	23391
835.65	23189
835.788	23227
835.926	23208
836.064	22968
836.202	22980
836.34	23231
836.478	23356
836.615	23151
836.753	23102
836.891	23280
837.029	23292
837.167	23079
837.305	22968
837.443	22911
837.58	23075
837.718	23113
837.856	23109
837.993	22942
838.131	22987
838.269	22892
838.406	22885
838.544	22763
838.681	22672
838.819	22622
838.956	22466
839.094	22500
839.231	22405
839.369	22729
839.506	22847
839.643	22615
839.781	22516
839.918	22531
840.055	22447
840.193	22443
840.33	22390
840.467	22318
840.604	22489
840.742	22679
840.879	22249
841.016	22284
841.153	22257
841.29	22527
841.427	22382
841.564	22333
841.701	22436
841.838	22348
841.975	22238
842.112	22303
842.249	22242
842.385	22124
842.522	22242
842.659	22143
842.796	22257
842.933	22120
843.069	22128
843.206	22135
843.343	22207
843.479	22131
843.616	22135
843.752	21804
843.889	21918
844.025	21972
844.162	21861
844.298	21899
844.435	21892
844.571	21812
844.708	21903
844.844	22078
844.98	21968
845.117	22025
845.253	21831
845.389	21709
845.525	21759
845.661	21770
845.798	21644
845.934	21660
846.07	21435
846.206	21576
846.342	21648
846.478	21599
846.614	21397
846.75	21272
846.886	21389
847.022	21572
847.158	21359
847.294	21291
847.429	21454
847.565	21351
847.701	21534
847.837	21195
847.972	20971
848.108	21116
848.244	21207
848.379	20872
848.515	20952
848.65	20925
848.786	20899
848.921	20895
849.057	21005
849.192	21043
849.328	20918
849.463	20902
849.598	20906
849.734	20853
849.869	20746
850.004	20712
850.14	20621
850.275	20670
850.41	20507
850.545	20644
850.68	20701
850.815	20701
850.95	20629
851.085	20914
851.22	20712
851.355	20712
851.49	20587
851.625	20724
851.76	20606
851.895	20571
852.03	20606
852.165	20590
852.299	20762
852.434	20746
852.569	20655
852.703	20701
852.838	20663
852.973	20842
853.107	20792
853.242	20602
853.376	20560
853.511	20480
853.645	20461
853.78	20552
853.914	20476
854.048	20423
854.183	20431
854.317	20465
854.451	20617
854.585	20370
854.72	20518
854.854	20651
854.988	20427
855.122	20503
855.256	20347
855.39	20511
855.524	20571
855.658	20632
855.792	20450
855.926	20556
856.06	20613
856.194	20686
856.327	20511
856.461	20434
856.595	20511
856.729	20537
856.862	20629
856.996	20537
857.13	20598
857.263	20621
857.397	20514
857.53	20476
857.664	20609
857.797	20708
857.931	20590
858.064	20587
858.197	20518
858.331	20362
858.464	20442
858.597	20362
858.731	20362
858.864	20465
858.997	20301
859.13	20560
859.263	20423
859.396	20457
859.529	20431
859.662	20313
859.795	20358
859.928	20381
860.061	20590
860.194	20746
860.327	20522
860.46	20571
860.592	20484
860.725	20568
860.858	20537
860.99	20511
861.123	20347
861.256	20370
861.388	20423
861.521	20998
861.653	20328
861.786	20290
861.918	20343
862.05	20343
862.183	20454
862.315	20286
862.447	20473
862.58	20473
862.712	20259
862.844	20259
862.976	20377
863.108	20278
863.24	20743
863.372	20111
863.504	20237
863.636	20145
863.768	20202
863.9	20214
864.032	20111
864.164	20115
864.296	20199
864.428	20210
864.559	20263
864.691	20233
864.823	20176
864.954	20130
865.086	20069
865.217	20100
865.349	20008
865.48	20046
865.612	20149
865.743	20050
865.875	20107
866.006	20134
866.137	19906
866.269	20081
866.4	20092
866.531	19997
866.662	20046
866.793	20084
866.924	19902
867.055	20115
867.186	20062
867.317	20012
867.448	19940
867.579	20050
867.71	19917
867.841	19890
867.972	20005
868.103	20012
868.233	19963
868.364	20016
868.495	20138
868.625	20336
868.756	20336
868.886	20145
869.017	20305
869.147	20351
869.278	20355
869.408	20157
869.539	20214
869.669	20393
869.799	20252
869.929	20328
870.06	20351
870.19	20518
870.32	20518
870.45	20625
870.58	20632
870.71	20868
870.84	20754
870.97	20609
871.1	20678
871.23	20807
871.36	20861
871.489	20826
871.619	20689
871.749	20743
871.879	20994
872.008	20963
872.138	20849
872.267	20864
872.397	20750
872.526	20743
872.656	20678
872.785	20655
872.915	20842
873.044	20830
873.173	20796
873.303	20883
873.432	20925
873.561	20986
873.69	20902
873.819	20880
873.948	20918
874.077	20883
874.206	20899
874.335	20826
874.464	20914
874.593	21104
874.722	21077
874.851	21135
874.979	21093
875.108	21146
875.237	21047
875.365	21062
875.494	21131
875.623	21199
875.751	21176
875.88	21192
876.008	21192
876.136	21401
876.265	21462
876.393	21511
876.521	21583
876.65	21458
876.778	21545
876.906	21477
877.034	21291
877.162	21466
877.29	21450
877.418	21481
877.546	21519
877.674	21561
877.802	21408
877.93	21428
878.058	21412
878.185	21329
878.313	21458
878.441	21397
878.568	21344
878.696	21393
878.824	21477
878.951	21580
879.079	21675
879.206	21682
879.333	21458
879.461	21469
879.588	21500
879.715	21595
879.842	21819
879.97	21587
880.097	21298
880.224	21260
880.351	21332
880.478	21351
880.605	21192
880.732	21329
880.859	21538
880.986	21397
881.112	21332
881.239	21123
881.366	20830
881.493	20921
881.619	20910
881.746	20986
881.872	20823
881.999	20819
882.125	20838
882.252	20990
882.378	20876
882.505	21055
882.631	20686
882.757	20667
882.883	20598
883.01	20697
883.136	20499
883.262	20488
883.388	20362
883.514	20644
883.64	20617
883.766	20480
883.892	20259
884.018	20469
884.143	20583
884.269	20735
884.395	20328
884.52	20278
884.646	20271
884.772	20180
884.897	20103
885.023	20271
885.148	20450
885.274	20389
885.399	20427
885.524	20199
885.65	20286
885.775	20278
885.9	20199
886.025	20366
886.15	20438
886.275	20233
886.4	20115
886.525	20233
886.65	20218
886.775	20119
886.9	20450
887.025	20393
887.149	20221
887.274	20054
887.399	20069
887.523	20062
887.648	19940
887.773	19944
887.897	20077
888.021	20088
888.146	19951
888.27	20134
888.395	20210
888.519	20054
888.643	20043
888.767	20050
888.891	19902
889.015	19807
889.139	19940
889.263	19803
889.387	19936
889.511	19974
889.635	19959
889.759	19864
889.883	19772
890.006	19887
890.13	20088
890.254	19784
890.377	19670
890.501	19537
890.624	19708
890.748	19635
890.871	19415
890.995	19415
891.118	19358
891.241	19369
891.364	19388
891.488	19510
891.611	19365
891.734	19343
891.857	19426
891.98	19449
892.103	19430
892.226	19430
892.349	19396
892.471	19183
892.594	19343
892.717	19441
892.839	19274
892.962	19350
893.085	19434
893.207	19331
893.33	19187
893.452	19270
893.575	19297
893.697	19217
893.819	19438
893.941	19578
894.064	19430
894.186	19335
894.308	19316
894.43	19411
894.552	19544
894.674	19430
894.796	19327
894.918	19198
895.04	19324
895.161	19369
895.283	19407
895.405	19232
895.526	19396
895.648	19266
895.769	19460
895.891	19339
896.012	19388
896.134	19354
896.255	19396
896.376	19388
896.498	19430
896.619	19362
896.74	19430
896.861	19521
896.982	19742
897.103	19814
897.224	19681
897.345	19632
897.466	19567
897.587	19681
897.708	19818
897.828	19704
897.949	19582
898.07	19403
898.19	19563
898.311	19616
898.431	19457
898.552	19639
898.672	19597
898.792	19715
898.913	19571
899.033	19525
899.153	19510
899.273	19217
899.393	19369
899.513	19468
899.633	19388
899.753	19369
899.873	19324
899.993	19365
900.113	19324
900.232	19274
900.352	19320
900.472	19263
900.591	19023
900.711	19091
900.83	19008
900.95	19168
901.069	19217
901.189	19129
901.308	18856
901.427	18673
901.546	18833
901.665	18776
901.784	18768
901.904	18623
902.023	18429
902.141	18346
902.26	18353
902.379	18357
902.498	18270
902.617	18163
902.735	18277
902.854	18258
902.973	18148
903.091	17828
903.21	17851
903.328	17984
903.446	17821
903.565	17786
903.683	17794
903.801	17490
903.919	17752
904.038	17615
904.156	17577
904.274	17623
904.392	17512
904.51	17501
904.627	17482
904.745	17558
904.863	17558
904.981	17334
905.098	17212
905.216	17090
905.334	17185
905.451	17254
905.569	17109
905.686	17113
905.803	17292
905.921	16999
906.038	17048
906.155	17098
906.272	16889
906.389	16900
906.506	16744
906.623	16797
906.74	16710
906.857	16573
906.974	16618
907.091	16793
907.208	16816
907.324	16694
907.441	16550
907.557	16615
907.674	16428
907.79	16299
907.907	16379
908.023	16474
908.139	16318
908.256	16405
908.372	16337
908.488	16280
908.604	16246
908.72	16158
908.836	16162
908.952	16074
909.068	16139
909.184	16268
909.3	16169
909.415	16242
909.531	16139
909.647	15911
909.762	15903
909.878	15907
909.993	15895
910.108	15827
910.224	15713
910.339	15778
910.454	15694
910.57	15660
910.685	15606
910.8	15934
910.915	15888
911.03	15637
911.145	15443
911.259	15530
911.374	15576
911.489	15443
911.604	15275
911.718	15214
911.833	15161
911.947	15062
912.062	15009
912.176	15116
912.291	15089
912.405	15188
912.519	15351
912.633	15389
912.748	15169
912.862	15245
912.976	14937
913.09	14941
913.204	14956
913.318	15005
913.431	15108
913.545	15154
913.659	15097
913.772	14914
913.886	14781
914	14845
914.113	14872
914.226	14902
914.34	14891
914.453	14720
914.566	14826
914.68	14743
914.793	14731
914.906	14583
915.019	14412
915.132	14419
915.245	14461
915.358	14499
915.47	14343
915.583	14419
915.696	14476
915.809	14480
915.921	14598
916.034	14431
916.146	14400
916.259	14389
916.371	14385
916.483	14355
916.595	14263
916.708	14358
916.82	14275
916.932	14271
917.044	14301
917.156	14267
917.268	14088
917.38	13993
917.491	14103
917.603	14103
917.715	14183
917.826	14229
917.938	14012
918.049	13963
918.161	14073
918.272	14202
918.384	14210
918.495	14123
918.606	13902
918.717	13894
918.828	13959
918.939	13906
919.05	13788
919.161	13883
919.272	13628
919.383	13712
919.494	13909
919.604	14134
919.715	13902
919.826	13693
919.936	13917
920.047	13864
920.157	13799
920.267	14069
920.378	13814
920.488	13830
920.598	13993
920.708	14172
920.818	14031
920.928	14020
921.038	14202
921.148	14020
921.258	13837
921.368	13734
921.477	13643
921.587	13537
921.697	13537
921.806	13632
921.916	13411
922.025	13270
922.134	13244
922.244	13255
922.353	13278
922.462	13129
922.571	13023
922.68	12985
922.789	12844
922.898	12951
923.007	12871
923.116	12901
923.224	12867
923.333	12890
923.442	12779
923.55	12757
923.659	12665
923.767	12852
923.876	12703
923.984	12798
924.092	12673
924.201	12623
924.309	12688
924.417	12673
924.525	12616
924.633	12589
924.741	13350
924.849	12315
924.956	12441
925.064	12380
925.172	12281
925.279	12388
925.387	12399
925.494	12410
925.602	12464
925.709	12395
925.816	12228
925.924	12338
926.031	12414
926.138	12357
926.245	12395
926.352	12273
926.459	12380
926.566	12342
926.673	12171
926.779	12144
926.886	12091
926.993	11916
927.099	11965
927.206	11935
927.312	11855
927.419	12019
927.525	11916
927.631	12003
927.737	11965
927.843	11760
927.95	11657
928.056	11691
928.162	11745
928.267	11878
928.373	12311
928.479	11908
928.585	11558
928.69	11699
928.796	11779
928.901	11767
929.007	11467
929.112	11676
929.218	11589
929.323	11566
929.428	11554
929.533	11604
929.638	11436
929.743	11604
929.848	11554
929.953	11429
930.058	11433
930.163	11197
930.267	11250
930.372	11273
930.477	11220
930.581	11452
930.685	11296
930.79	11105
930.894	11079
930.998	11121
931.103	11288
931.207	10858
931.311	10790
931.415	10588
931.519	10440
931.623	10493
