Data from test_V78500241_2933.txt Node
Date: Fri Mar 25 15:30:17 CST 2022
User: usil
Spectrometer: V785-0024
Trigger mode: 0
Integration Time (sec): 4.000000E-1
Scans to average: 1
Nonlinearity correction enabled: false
Boxcar width: 0
Storing dark spectrum: false
XAxis mode: Wavelengths
Number of Pixels in Spectrum: 1024
>>>>>Begin Spectral Data<<<<<
801.071	27310
801.214	27192
801.356	27024
801.499	27024
801.641	26804
801.783	26777
801.926	26895
802.068	26929
802.211	26644
802.353	26777
802.496	26507
802.638	26469
802.78	26374
802.923	26461
803.065	26286
803.208	26412
803.35	26514
803.492	26549
803.635	26579
803.777	26560
803.919	26564
804.061	26731
804.204	26682
804.346	26461
804.488	26575
804.63	26465
804.773	26465
804.915	26587
805.057	26693
805.199	26526
805.341	26617
805.483	26743
805.626	26625
805.768	26765
805.91	26556
806.052	26823
806.194	26522
806.336	26883
806.478	26533
806.62	26769
806.762	26811
806.904	26948
807.046	27180
807.188	27135
807.33	27070
807.472	27230
807.614	27017
807.756	26918
807.898	26982
808.04	26773
808.182	26937
808.324	27142
808.465	27074
808.607	27203
808.749	27173
808.891	27355
809.033	27336
809.174	27310
809.316	27340
809.458	27169
809.6	27241
809.741	27260
809.883	27427
810.025	27637
810.166	27656
810.308	27473
810.45	27599
810.591	27458
810.733	27363
810.875	27321
811.016	27211
811.158	27332
811.299	27427
811.441	27462
811.582	27507
811.724	27382
811.865	27268
812.007	27123
812.148	27306
812.29	27382
812.431	27519
812.573	27625
812.714	27580
812.855	27747
812.997	27953
813.138	27972
813.279	27949
813.421	27736
813.562	27774
813.703	27633
813.845	27466
813.986	27039
814.127	26994
814.268	26971
814.41	26948
814.551	26971
814.692	27051
814.833	27028
814.974	26963
815.115	27024
815.256	26864
815.397	26906
815.539	27005
815.68	26750
815.821	26686
815.962	26667
816.103	26549
816.244	26537
816.385	26545
816.526	26453
816.666	26210
816.807	26084
816.948	26248
817.089	26415
817.23	26172
817.371	26176
817.512	26267
817.653	26161
817.793	26199
817.934	26259
818.075	26282
818.216	26290
818.356	26271
818.497	26035
818.638	25951
818.778	25909
818.919	25966
819.06	25944
819.2	26050
819.341	26164
819.481	26225
819.622	26389
819.762	26488
819.903	26499
820.043	26446
820.184	26362
820.324	26328
820.465	26453
820.605	26351
820.746	26317
820.886	26134
821.026	26221
821.167	26301
821.307	26294
821.447	26275
821.588	26100
821.728	26073
821.868	25811
822.008	25727
822.149	25655
822.289	25616
822.429	25403
822.569	25445
822.709	25308
822.849	25232
822.99	25270
823.13	25080
823.27	25152
823.41	24973
823.55	24932
823.69	25031
823.83	25072
823.97	24977
824.11	24673
824.25	24844
824.389	24802
824.529	24878
824.669	24642
824.809	24878
824.949	24909
825.089	24760
825.228	24715
825.368	24745
825.508	24760
825.648	24730
825.787	24741
825.927	24658
826.067	24741
826.206	24692
826.346	24627
826.485	24825
826.625	24490
826.765	24798
826.904	24635
827.044	24513
827.183	24448
827.323	24388
827.462	24445
827.601	24376
827.741	24391
827.88	24308
828.02	24254
828.159	24384
828.298	24372
828.437	24342
828.577	24300
828.716	24388
828.855	24114
828.994	23996
829.134	24224
829.273	24125
829.412	23916
829.551	24186
829.69	24152
829.829	24034
829.968	24235
830.107	24106
830.246	24213
830.385	23878
830.524	23988
830.663	23908
830.802	23783
830.941	23611
831.08	23710
831.219	23585
831.357	23695
831.496	23813
831.635	23634
831.774	23748
831.913	23429
832.051	23512
832.19	23531
832.329	23581
832.467	23330
832.606	23296
832.744	23220
832.883	23509
833.022	23387
833.16	23429
833.299	23440
833.437	23265
833.576	23379
833.714	23425
833.852	23505
833.991	23512
834.129	23531
834.267	23425
834.406	23250
834.544	23440
834.682	23410
834.821	23455
834.959	23547
835.097	23410
835.235	23421
835.373	23353
835.511	23410
835.65	23254
835.788	23360
835.926	23094
836.064	22984
836.202	23128
836.34	23159
836.478	23330
836.615	23258
836.753	23223
836.891	23273
837.029	23246
837.167	23155
837.305	23147
837.443	23052
837.58	23064
837.718	23178
837.856	23197
837.993	23056
838.131	23064
838.269	22915
838.406	23014
838.544	22900
838.681	22797
838.819	22713
838.956	22592
839.094	22493
839.231	22702
839.369	22717
839.506	22949
839.643	22858
839.781	22603
839.918	22565
840.055	22519
840.193	22519
840.33	22402
840.467	22489
840.604	22504
840.742	22668
840.879	22261
841.016	22474
841.153	22398
841.29	22554
841.427	22428
841.564	22557
841.701	22424
841.838	22382
841.975	22402
842.112	22402
842.249	22363
842.385	22310
842.522	22462
842.659	22291
842.796	22177
842.933	22116
843.069	22196
843.206	22086
843.343	22287
843.479	22196
843.616	22230
843.752	22059
843.889	22021
844.025	22188
844.162	22078
844.298	22128
844.435	21892
844.571	21991
844.708	22112
844.844	22147
844.98	22169
845.117	22112
845.253	21918
845.389	21937
845.525	22013
845.661	21880
845.798	21739
845.934	21751
846.07	21747
846.206	21846
846.342	21831
846.478	21705
846.614	21698
846.75	21428
846.886	21511
847.022	21603
847.158	21450
847.294	21542
847.429	21500
847.565	21485
847.701	21728
847.837	21150
847.972	21211
848.108	21348
848.244	21211
848.379	21161
848.515	21017
848.65	21062
848.786	21096
848.921	21104
849.057	21165
849.192	21077
849.328	21005
849.463	21230
849.598	21096
849.734	21051
849.869	20918
850.004	20800
850.14	20971
850.275	20853
850.41	20891
850.545	20864
850.68	20785
850.815	20887
850.95	20960
851.085	21093
851.22	21051
851.355	20876
851.49	20880
851.625	20781
851.76	20864
851.895	20754
852.03	20762
852.165	20815
852.299	20864
852.434	20899
852.569	20895
852.703	20830
852.838	20849
852.973	20921
853.107	21013
853.242	20765
853.376	20697
853.511	20617
853.645	20689
853.78	20739
853.914	20617
854.048	20606
854.183	20632
854.317	20682
854.451	20899
854.585	20750
854.72	20682
854.854	20689
854.988	20526
855.122	20655
855.256	20488
855.39	20686
855.524	20746
855.658	20659
855.792	20674
855.926	20746
856.06	20819
856.194	20693
856.327	20693
856.461	20590
856.595	20583
856.729	20659
856.862	20804
856.996	20598
857.13	20769
857.263	20765
857.397	20792
857.53	20693
857.664	20731
857.797	20724
857.931	20781
858.064	20686
858.197	20758
858.331	20670
858.464	20514
858.597	20648
858.731	20686
858.864	20575
858.997	20663
859.13	20575
859.263	20724
859.396	20697
859.529	20564
859.662	20549
859.795	20583
859.928	20598
860.061	20769
860.194	20781
860.327	20811
860.46	20670
860.592	20880
860.725	20788
860.858	20800
860.99	20560
861.123	20526
861.256	20545
861.388	20602
861.521	21317
861.653	20560
861.786	20400
861.918	20495
862.05	20533
862.183	20579
862.315	20629
862.447	20663
862.58	20442
862.712	20507
862.844	20332
862.976	20450
863.108	20415
863.24	21001
863.372	20370
863.504	20385
863.636	20434
863.768	20381
863.9	20404
864.032	20161
864.164	20305
864.296	20476
864.428	20457
864.559	20511
864.691	20393
864.823	20400
864.954	20309
865.086	20309
865.217	20278
865.349	20256
865.48	20191
865.612	20282
865.743	20419
865.875	20278
866.006	20172
866.137	20320
866.269	20328
866.4	20153
866.531	20210
866.662	20218
866.793	20218
866.924	20225
867.055	20339
867.186	20256
867.317	20225
867.448	20111
867.579	20256
867.71	20138
867.841	20180
867.972	20077
868.103	20187
868.233	20233
868.364	20248
868.495	20355
868.625	20518
868.756	20590
868.886	20381
869.017	20446
869.147	20564
869.278	20457
869.408	20549
869.539	20434
869.669	20590
869.799	20507
869.929	20526
870.06	20549
870.19	20845
870.32	20792
870.45	20758
870.58	20948
870.71	20910
870.84	20918
870.97	20811
871.1	20807
871.23	21028
871.36	20975
871.489	21009
871.619	21085
871.749	21142
871.879	21275
872.008	21055
872.138	21146
872.267	21104
872.397	21009
872.526	20872
872.656	20880
872.785	20853
872.915	21058
873.044	21089
873.173	21142
873.303	21077
873.432	21142
873.561	21119
873.69	21089
873.819	21108
873.948	21146
874.077	21207
874.206	21028
874.335	21066
874.464	21298
874.593	21283
874.722	21252
874.851	21317
874.979	21321
875.108	21294
875.237	21321
875.365	21260
875.494	21283
875.623	21363
875.751	21291
875.88	21332
876.008	21408
876.136	21610
876.265	21789
876.393	21781
876.521	21778
876.65	21876
876.778	21743
876.906	21667
877.034	21694
877.162	21739
877.29	21625
877.418	21698
877.546	21618
877.674	21660
877.802	21641
877.93	21606
878.058	21644
878.185	21515
878.313	21682
878.441	21637
878.568	21511
878.696	21648
878.824	21656
878.951	21698
879.079	21854
879.206	22063
879.333	21857
879.461	21728
879.588	21690
879.715	21892
879.842	22013
879.97	21739
880.097	21492
880.224	21549
880.351	21542
880.478	21545
880.605	21424
880.732	21507
880.859	21694
880.986	21504
881.112	21561
881.239	21359
881.366	21230
881.493	21230
881.619	21055
881.746	21070
881.872	20986
881.999	21081
882.125	21032
882.252	21131
882.378	21055
882.505	21180
882.631	20982
882.757	20815
882.883	20895
883.01	20777
883.136	20606
883.262	20743
883.388	20678
883.514	20804
883.64	20792
883.766	20708
883.892	20522
884.018	20537
884.143	20720
884.269	20777
884.395	20461
884.52	20461
884.646	20446
884.772	20442
884.897	20427
885.023	20358
885.148	20583
885.274	20541
885.399	20590
885.524	20507
885.65	20495
885.775	20495
885.9	20358
886.025	20522
886.15	20476
886.275	20438
886.4	20328
886.525	20408
886.65	20484
886.775	20465
886.9	20492
887.025	20659
887.149	20355
887.274	20202
887.399	20164
887.523	20210
887.648	20084
887.773	20138
887.897	20210
888.021	20244
888.146	20122
888.27	20271
888.395	20286
888.519	20263
888.643	20275
888.767	20305
888.891	20218
889.015	19986
889.139	20145
889.263	20012
889.387	20111
889.511	20351
889.635	20195
889.759	20027
889.883	19940
890.006	20005
890.13	20069
890.254	19883
890.377	19986
890.501	19765
890.624	19715
890.748	19833
890.871	19693
890.995	19616
891.118	19582
891.241	19632
891.364	19559
891.488	19772
891.611	19575
891.734	19700
891.857	19639
891.98	19605
892.103	19609
892.226	19605
892.349	19609
892.471	19335
892.594	19586
892.717	19563
892.839	19514
892.962	19616
893.085	19537
893.207	19384
893.33	19278
893.452	19324
893.575	19670
893.697	19571
893.819	19651
893.941	19662
894.064	19601
894.186	19518
894.308	19400
894.43	19571
894.552	19655
894.674	19518
894.796	19381
894.918	19616
895.04	19586
895.161	19609
895.283	19616
895.405	19491
895.526	19548
895.648	19480
895.769	19464
895.891	19571
896.012	19643
896.134	19518
896.255	19472
896.376	19441
896.498	19582
896.619	19601
896.74	19567
896.861	19487
896.982	19928
897.103	20069
897.224	19776
897.345	19769
897.466	19693
897.587	19750
897.708	19932
897.828	19822
897.949	19814
898.07	19624
898.19	19696
898.311	19925
898.431	19658
898.552	19765
898.672	19742
898.792	19898
898.913	19799
899.033	19601
899.153	19537
899.273	19445
899.393	19506
899.513	19609
899.633	19586
899.753	19700
899.873	19419
899.993	19525
900.113	19441
900.232	19563
900.352	19426
900.472	19293
900.591	19270
900.711	19270
900.83	19278
900.95	19293
901.069	19354
901.189	19255
901.308	19095
901.427	19012
901.546	18798
901.665	18905
901.784	18890
901.904	18817
902.023	18578
902.141	18570
902.26	18460
902.379	18540
902.498	18422
902.617	18346
902.735	18426
902.854	18426
902.973	18380
903.091	18026
903.21	18087
903.328	18076
903.446	17973
903.565	17954
903.683	17977
903.801	17767
903.919	17885
904.038	17748
904.156	17786
904.274	17748
904.392	17687
904.51	17634
904.627	17710
904.745	17703
904.863	17771
904.981	17459
905.098	17372
905.216	17265
905.334	17440
905.451	17334
905.569	17425
905.686	17353
905.803	17341
905.921	17155
906.038	17284
906.155	17212
906.272	17033
906.389	16995
906.506	16942
906.623	16987
906.74	16843
906.857	16801
906.974	16881
907.091	16923
907.208	17006
907.324	16892
907.441	16759
907.557	16577
907.674	16634
907.79	16611
907.907	16611
908.023	16706
908.139	16622
908.256	16558
908.372	16462
908.488	16508
908.604	16276
908.72	16371
908.836	16409
908.952	16261
909.068	16238
909.184	16478
909.3	16299
909.415	16329
909.531	16337
909.647	16093
909.762	16017
909.878	16044
909.993	15975
910.108	16044
910.224	16078
910.339	16112
910.454	15785
910.57	15739
910.685	15785
910.8	16059
910.915	16040
911.03	15873
911.145	15743
911.259	15717
911.374	15629
911.489	15553
911.604	15526
911.718	15492
911.833	15408
911.947	15344
912.062	15283
912.176	15389
912.291	15473
912.405	15397
912.519	15580
912.633	15595
912.748	15447
912.862	15382
912.976	15310
913.09	15135
913.204	15195
913.318	15142
913.431	15237
913.545	15252
913.659	15279
913.772	15237
913.886	15108
914	15062
914.113	15180
914.226	15142
914.34	15089
914.453	14906
914.566	15093
914.68	14838
914.793	14853
914.906	14727
915.019	14682
915.132	14587
915.245	14674
915.358	14636
915.47	14686
915.583	14670
915.696	14705
915.809	14682
915.921	14819
916.034	14537
916.146	14465
916.259	14533
916.371	14606
916.483	14606
916.595	14541
916.708	14492
916.82	14492
916.932	14408
917.044	14400
917.156	14549
917.268	14389
917.38	14381
917.491	14221
917.603	14431
917.715	14396
917.826	14328
917.938	14263
918.049	14119
918.161	14244
918.272	14499
918.384	14347
918.495	14301
918.606	14126
918.717	14054
918.828	14210
918.939	14073
919.05	14043
919.161	14145
919.272	13795
919.383	13932
919.494	14126
919.604	14252
919.715	14035
919.826	14092
919.936	14103
920.047	14046
920.157	14103
920.267	14180
920.378	14054
920.488	14096
920.598	14225
920.708	14419
920.818	14282
920.928	14161
921.038	14419
921.148	14339
921.258	14035
921.368	13959
921.477	13784
921.587	13761
921.697	13731
921.806	13791
921.916	13674
922.025	13575
922.134	13464
922.244	13468
922.353	13480
922.462	13358
922.571	13232
922.68	13202
922.789	13080
922.898	13171
923.007	13069
923.116	13160
923.224	13114
923.333	13065
923.442	13012
923.55	12951
923.659	12996
923.767	13012
923.876	12852
923.984	13076
924.092	12829
924.201	12871
924.309	12833
924.417	12852
924.525	12901
924.633	12867
924.741	13738
924.849	12677
924.956	12741
925.064	12582
925.172	12593
925.279	12513
925.387	12589
925.494	12551
925.602	12642
925.709	12578
925.816	12464
925.924	12410
926.031	12555
926.138	12555
926.245	12506
926.352	12403
926.459	12513
926.566	12521
926.673	12403
926.779	12391
926.886	12304
926.993	12213
927.099	12251
927.206	12114
927.312	12064
927.419	12201
927.525	12095
927.631	12163
927.737	12030
927.843	11927
927.95	11942
928.056	11996
928.162	11984
928.267	12007
928.373	12582
928.479	12034
928.585	11809
928.69	11939
928.796	11980
928.901	11878
929.007	11745
929.112	11779
929.218	11813
929.323	11771
929.428	11680
929.533	11779
929.638	11661
929.743	11630
929.848	11665
929.953	11684
930.058	11573
930.163	11406
930.267	11467
930.372	11455
930.477	11406
930.581	11611
930.685	11452
930.79	11250
930.894	11284
930.998	11345
931.103	11360
931.207	10911
931.311	10927
931.415	10965
931.519	10721
931.623	10668
