Data from test_V78500241_2247.txt Node
Date: Fri Mar 25 15:25:30 CST 2022
User: usil
Spectrometer: V785-0024
Trigger mode: 0
Integration Time (sec): 4.000000E-1
Scans to average: 1
Nonlinearity correction enabled: false
Boxcar width: 0
Storing dark spectrum: false
XAxis mode: Wavelengths
Number of Pixels in Spectrum: 1024
>>>>>Begin Spectral Data<<<<<
801.071	27485
801.214	27652
801.356	27374
801.499	27317
801.641	27241
801.783	27222
801.926	27112
802.068	27291
802.211	27112
802.353	27131
802.496	27024
802.638	26910
802.78	26800
802.923	26834
803.065	26663
803.208	26902
803.35	26921
803.492	27005
803.635	27036
803.777	26925
803.919	26986
804.061	27374
804.204	27028
804.346	27047
804.488	27005
804.63	27135
804.773	26960
804.915	26933
805.057	27108
805.199	27009
805.341	27165
805.483	27222
805.626	27211
805.768	27024
805.91	27154
806.052	27249
806.194	27089
806.336	27382
806.478	27165
806.62	27249
806.762	27344
806.904	27488
807.046	27671
807.188	27625
807.33	27561
807.472	27660
807.614	27477
807.756	27572
807.898	27458
808.04	27420
808.182	27329
808.324	27519
808.465	27511
808.607	27755
808.749	27800
808.891	27964
809.033	27960
809.174	27835
809.316	27797
809.458	27747
809.6	27774
809.741	27987
809.883	27998
810.025	28154
810.166	28105
810.308	28067
810.45	27926
810.591	27846
810.733	27880
810.875	27705
811.016	27713
811.158	27622
811.299	27991
811.441	27911
811.582	27975
811.724	27682
811.865	27717
812.007	27797
812.148	27717
812.29	27994
812.431	27998
812.573	28128
812.714	28276
812.855	28413
812.997	28386
813.138	28432
813.279	28459
813.421	28413
813.562	28303
813.703	28143
813.845	28067
813.986	27835
814.127	27530
814.268	27443
814.41	27614
814.551	27439
814.692	27587
814.833	27397
814.974	27447
815.115	27644
815.256	27192
815.397	27367
815.539	27355
815.68	27317
815.821	27131
815.962	27283
816.103	27226
816.244	27169
816.385	27222
816.526	27157
816.666	26807
816.807	26705
816.948	26746
817.089	26838
817.23	26769
817.371	26819
817.512	26712
817.653	26788
817.793	26701
817.934	26716
818.075	26819
818.216	26807
818.356	26644
818.497	26564
818.638	26488
818.778	26503
818.919	26560
819.06	26564
819.2	26739
819.341	26796
819.481	26686
819.622	26902
819.762	27241
819.903	27039
820.043	26960
820.184	26921
820.324	26845
820.465	26975
820.605	26785
820.746	26921
820.886	26640
821.026	26891
821.167	26750
821.307	26842
821.447	26792
821.588	26731
821.728	26530
821.868	26347
822.008	26214
822.149	26153
822.289	26122
822.429	25906
822.569	25833
822.709	25906
822.849	25772
822.99	25746
823.13	25757
823.27	25788
823.41	25594
823.55	25354
823.69	25495
823.83	25506
823.97	25491
824.11	25289
824.25	25354
824.389	25331
824.529	25468
824.669	25438
824.809	25365
824.949	25491
825.089	25392
825.228	25255
825.368	25198
825.508	25148
825.648	25324
825.787	25285
825.927	25255
826.067	24966
826.206	25110
826.346	25308
826.485	25225
826.625	25175
826.765	25236
826.904	25221
827.044	25126
827.183	24954
827.323	24844
827.462	24958
827.601	24935
827.741	24875
827.88	24947
828.02	24726
828.159	24821
828.298	24977
828.437	24958
828.577	24943
828.716	24970
828.855	24867
828.994	24593
829.134	24612
829.273	24639
829.412	24578
829.551	24620
829.69	24601
829.829	24604
829.968	24810
830.107	24738
830.246	24696
830.385	24585
830.524	24479
830.663	24509
830.802	24239
830.941	24144
831.08	24076
831.219	24273
831.357	24281
831.496	24346
831.635	24182
831.774	24102
831.913	24110
832.051	24057
832.19	24076
832.329	24098
832.467	23870
832.606	23847
832.744	23863
832.883	23958
833.022	23748
833.16	23893
833.299	23942
833.437	23897
833.576	23882
833.714	23908
833.852	24007
833.991	23996
834.129	24007
834.267	23950
834.406	23988
834.544	23931
834.682	24018
834.821	23927
834.959	24136
835.097	23931
835.235	23980
835.373	23851
835.511	23988
835.65	23741
835.788	23821
835.926	23687
836.064	23623
836.202	23646
836.34	23798
836.478	23851
836.615	23779
836.753	23798
836.891	23821
837.029	23771
837.167	23661
837.305	23676
837.443	23718
837.58	23589
837.718	23604
837.856	23657
837.993	23615
838.131	23611
838.269	23417
838.406	23520
838.544	23406
838.681	23330
838.819	23208
838.956	23193
839.094	23098
839.231	23140
839.369	23311
839.506	23520
839.643	23368
839.781	23048
839.918	23067
840.055	23140
840.193	23105
840.33	22984
840.467	23037
840.604	22961
840.742	23105
840.879	22946
841.016	22972
841.153	22995
841.29	23102
841.427	22949
841.564	23060
841.701	22934
841.838	22896
841.975	22858
842.112	22911
842.249	22889
842.385	22725
842.522	22885
842.659	22778
842.796	22729
842.933	22786
843.069	22721
843.206	22717
843.343	22854
843.479	22729
843.616	22713
843.752	22519
843.889	22550
844.025	22702
844.162	22386
844.298	22546
844.435	22550
844.571	22424
844.708	22611
844.844	22706
844.98	22698
845.117	22668
845.253	22508
845.389	22413
845.525	22478
845.661	22402
845.798	22223
845.934	22356
846.07	22371
846.206	22390
846.342	22188
846.478	22322
846.614	22112
846.75	21979
846.886	21983
847.022	22010
847.158	21998
847.294	22093
847.429	21994
847.565	21968
847.701	22135
847.837	21675
847.972	21690
848.108	21778
848.244	21800
848.379	21561
848.515	21599
848.65	21549
848.786	21526
848.921	21523
849.057	21648
849.192	21606
849.328	21583
849.463	21549
849.598	21576
849.734	21583
849.869	21485
850.004	21306
850.14	21329
850.275	21329
850.41	21279
850.545	21214
850.68	21260
850.815	21397
850.95	21340
851.085	21542
851.22	21485
851.355	21389
851.49	21454
851.625	21294
851.76	21393
851.895	21329
852.03	21256
852.165	21382
852.299	21340
852.434	21416
852.569	21386
852.703	21382
852.838	21420
852.973	21462
853.107	21481
853.242	21268
853.376	21184
853.511	21096
853.645	21047
853.78	21344
853.914	21222
854.048	21074
854.183	21123
854.317	21218
854.451	21397
854.585	21070
854.72	21195
854.854	21268
854.988	21123
855.122	21218
855.256	21005
855.39	21195
855.524	21264
855.658	21287
855.792	21154
855.926	21135
856.06	21100
856.194	21279
856.327	21047
856.461	21051
856.595	21226
856.729	21108
856.862	21268
856.996	21298
857.13	21268
857.263	21195
857.397	21192
857.53	21226
857.664	21211
857.797	21222
857.931	21291
858.064	21112
858.197	21378
858.331	21142
858.464	21180
858.597	21013
858.731	21154
858.864	21119
858.997	21116
859.13	21150
859.263	21203
859.396	21283
859.529	21176
859.662	21089
859.795	21188
859.928	21157
860.061	21363
860.194	21416
860.327	21157
860.46	21123
860.592	21336
860.725	21340
860.858	21237
860.99	21222
861.123	21157
861.256	21291
861.388	21184
861.521	21926
861.653	21028
861.786	20895
861.918	21096
862.05	21028
862.183	21096
862.315	21127
862.447	21089
862.58	21066
862.712	20891
862.844	20811
862.976	20960
863.108	20952
863.24	21233
863.372	20754
863.504	20925
863.636	20902
863.768	20918
863.9	20971
864.032	20689
864.164	20868
864.296	20937
864.428	20918
864.559	20990
864.691	20933
864.823	20899
864.954	20914
865.086	20971
865.217	20659
865.349	20765
865.48	20853
865.612	20781
865.743	20910
865.875	20819
866.006	20697
866.137	20716
866.269	20735
866.4	20739
866.531	20712
866.662	20731
866.793	20560
866.924	20636
867.055	20693
867.186	20678
867.317	20712
867.448	20564
867.579	20530
867.71	20587
867.841	20579
867.972	20674
868.103	20750
868.233	20663
868.364	20663
868.495	20701
868.625	20933
868.756	21070
868.886	20876
869.017	20925
869.147	21123
869.278	21066
869.408	20960
869.539	20941
869.669	21081
869.799	20868
869.929	20982
870.06	20887
870.19	21252
870.32	21180
870.45	21313
870.58	21291
870.71	21530
870.84	21447
870.97	21367
871.1	21359
871.23	21504
871.36	21568
871.489	21363
871.619	21572
871.749	21595
871.879	21622
872.008	21720
872.138	21462
872.267	21526
872.397	21504
872.526	21294
872.656	21340
872.785	21412
872.915	21389
873.044	21648
873.173	21625
873.303	21606
873.432	21644
873.561	21755
873.69	21545
873.819	21530
873.948	21690
874.077	21500
874.206	21458
874.335	21504
874.464	21603
874.593	21869
874.722	21682
874.851	21808
874.979	21793
875.108	21766
875.237	21686
875.365	21652
875.494	21816
875.623	21895
875.751	21698
875.88	21892
876.008	21949
876.136	21861
876.265	22116
876.393	22360
876.521	22223
876.65	22230
876.778	22143
876.906	22048
877.034	21979
877.162	22048
877.29	21964
877.418	22158
877.546	22223
877.674	22173
877.802	22124
877.93	22154
878.058	22105
878.185	21964
878.313	22067
878.441	22067
878.568	21960
878.696	22048
878.824	22158
878.951	22192
879.079	22341
879.206	22466
879.333	22314
879.461	22010
879.588	22128
879.715	22287
879.842	22417
879.97	22166
880.097	22032
880.224	21884
880.351	21907
880.478	21899
880.605	21835
880.732	21880
880.859	22219
880.986	21869
881.112	21991
881.239	21816
881.366	21625
881.493	21549
881.619	21466
881.746	21572
881.872	21622
881.999	21408
882.125	21340
882.252	21435
882.378	21500
882.505	21663
882.631	21374
882.757	21359
882.883	21317
883.01	21241
883.136	21241
883.262	21150
883.388	21195
883.514	21275
883.64	21310
883.766	21249
883.892	21074
884.018	21032
884.143	21241
884.269	21302
884.395	20960
884.52	20868
884.646	20929
884.772	20880
884.897	20800
885.023	20826
885.148	20998
885.274	21062
885.399	21005
885.524	20823
885.65	20963
885.775	20845
885.9	20807
886.025	20948
886.15	21077
886.275	20826
886.4	20811
886.525	20731
886.65	20941
886.775	20921
886.9	20998
887.025	20998
887.149	20956
887.274	20659
887.399	20594
887.523	20708
887.648	20655
887.773	20533
887.897	20750
888.021	20530
888.146	20644
888.27	20640
888.395	20842
888.519	20663
888.643	20724
888.767	20731
888.891	20499
889.015	20450
889.139	20454
889.263	20431
889.387	20511
889.511	20670
889.635	20579
889.759	20442
889.883	20492
890.006	20465
890.13	20461
890.254	20290
890.377	20404
890.501	20298
890.624	20130
890.748	20317
890.871	20176
890.995	19982
891.118	19951
891.241	20050
891.364	20016
891.488	20233
891.611	19830
891.734	20001
891.857	20206
891.98	20100
892.103	20096
892.226	20020
892.349	19887
892.471	19864
892.594	19936
892.717	19982
892.839	19879
892.962	20008
893.085	19986
893.207	19909
893.33	19772
893.452	19849
893.575	20008
893.697	19944
893.819	20138
893.941	19997
894.064	20020
894.186	19875
894.308	19932
894.43	20069
894.552	20088
894.674	20031
894.796	19814
894.918	19932
895.04	19875
895.161	19936
895.283	19955
895.405	19883
895.526	19928
895.648	19963
895.769	20084
895.891	19974
896.012	20039
896.134	19921
896.255	19864
896.376	19890
896.498	19864
896.619	19875
896.74	19970
896.861	20005
896.982	20305
897.103	20370
897.224	20149
897.345	20107
897.466	20134
897.587	20180
897.708	20259
897.828	20218
897.949	20134
898.07	20073
898.19	20107
898.311	20233
898.431	20107
898.552	20115
898.672	20187
898.792	20206
898.913	20305
899.033	20180
899.153	19784
899.273	19761
899.393	19811
899.513	19967
899.633	19875
899.753	19890
899.873	19826
899.993	19989
900.113	19799
900.232	19871
900.352	19917
900.472	19822
900.591	19750
900.711	19769
900.83	19700
900.95	19917
901.069	19776
901.189	19464
901.308	19457
901.427	19263
901.546	19331
901.665	19301
901.784	19312
901.904	19076
902.023	19023
902.141	18871
902.26	18817
902.379	18981
902.498	18848
902.617	18768
902.735	18821
902.854	18821
902.973	18688
903.091	18456
903.21	18509
903.328	18422
903.446	18467
903.565	18365
903.683	18285
903.801	18190
903.919	18224
904.038	18311
904.156	18087
904.274	18072
904.392	18144
904.51	17999
904.627	17973
904.745	18167
904.863	18121
904.981	17836
905.098	17703
905.216	17619
905.334	17767
905.451	17798
905.569	17558
905.686	17809
905.803	17634
905.921	17482
906.038	17600
906.155	17543
906.272	17425
906.389	17345
906.506	17212
906.623	17227
906.74	17349
906.857	17105
906.974	17098
907.091	17334
907.208	17334
907.324	17303
907.441	17143
907.557	16930
907.674	16991
907.79	16850
907.907	16927
908.023	16968
908.139	16984
908.256	16934
908.372	16908
908.488	16843
908.604	16812
908.72	16683
908.836	16786
908.952	16683
909.068	16630
909.184	16850
909.3	16702
909.415	16664
909.531	16618
909.647	16386
909.762	16314
909.878	16428
909.993	16394
910.108	16360
910.224	16322
910.339	16295
910.454	16253
910.57	16162
910.685	16200
910.8	16459
910.915	16314
911.03	16192
911.145	16093
911.259	15998
911.374	15949
911.489	15899
911.604	15960
911.718	15682
911.833	15766
911.947	15549
912.062	15561
912.176	15637
912.291	15698
912.405	15800
912.519	15869
912.633	15926
912.748	15766
912.862	15561
912.976	15591
913.09	15397
913.204	15622
913.318	15530
913.431	15644
913.545	15515
913.659	15679
913.772	15485
913.886	15431
914	15386
914.113	15481
914.226	15428
914.34	15428
914.453	15146
914.566	15363
914.68	15313
914.793	15279
914.906	15062
915.019	14990
915.132	14967
915.245	14975
915.358	14990
915.47	15036
915.583	14861
915.696	15039
915.809	15047
915.921	15047
916.034	14918
916.146	14895
916.259	14864
916.371	14990
916.483	14845
916.595	14853
916.708	14830
916.82	14811
916.932	14670
917.044	14735
917.156	14697
917.268	14644
917.38	14648
917.491	14648
917.603	14648
917.715	14705
917.826	14636
917.938	14484
918.049	14511
918.161	14507
918.272	14541
918.384	14632
918.495	14526
918.606	14457
918.717	14263
918.828	14381
918.939	14461
919.05	14240
919.161	14286
919.272	14229
919.383	14111
919.494	14385
919.604	14564
919.715	14366
919.826	14237
919.936	14305
920.047	14469
920.157	14385
920.267	14571
920.378	14320
920.488	14290
920.598	14583
920.708	14602
920.818	14461
920.928	14469
921.038	14549
921.148	14564
921.258	14278
921.368	14202
921.477	14008
921.587	14130
921.697	13989
921.806	14134
921.916	13822
922.025	13837
922.134	13746
922.244	13731
922.353	13731
922.462	13609
922.571	13499
922.68	13438
922.789	13377
922.898	13434
923.007	13247
923.116	13365
923.224	13453
923.333	13270
923.442	13263
923.55	13217
923.659	13278
923.767	13259
923.876	13141
923.984	13270
924.092	13206
924.201	13141
924.309	13103
924.417	13072
924.525	13084
924.633	13004
924.741	13833
924.849	12928
924.956	12935
925.064	12901
925.172	12688
925.279	12783
925.387	12810
925.494	12795
925.602	12882
925.709	12810
925.816	12692
925.924	12783
926.031	12871
926.138	12772
926.245	12772
926.352	12700
926.459	12837
926.566	12821
926.673	12692
926.779	12536
926.886	12509
926.993	12399
927.099	12300
927.206	12289
927.312	12391
927.419	12418
927.525	12342
927.631	12395
927.737	12182
927.843	12216
927.95	12178
928.056	12258
928.162	12190
928.267	12144
928.373	12741
928.479	12323
928.585	11965
928.69	12117
928.796	12190
928.901	12136
929.007	11843
929.112	12030
929.218	11973
929.323	11889
929.428	11935
929.533	12049
929.638	11836
929.743	11836
929.848	11916
929.953	11828
930.058	11771
930.163	11543
930.267	11634
930.372	11726
930.477	11604
930.581	11745
930.685	11627
930.79	11486
930.894	11512
930.998	11516
931.103	11646
931.207	11178
931.311	11212
931.415	11143
931.519	10923
931.623	10790
