Data from test_V78500241_1981.txt Node
Date: Fri Mar 25 15:23:39 CST 2022
User: usil
Spectrometer: V785-0024
Trigger mode: 0
Integration Time (sec): 4.000000E-1
Scans to average: 1
Nonlinearity correction enabled: false
Boxcar width: 0
Storing dark spectrum: false
XAxis mode: Wavelengths
Number of Pixels in Spectrum: 1024
>>>>>Begin Spectral Data<<<<<
801.071	27831
801.214	27857
801.356	27591
801.499	27492
801.641	27504
801.783	27553
801.926	27481
802.068	27416
802.211	27291
802.353	27325
802.496	27119
802.638	26952
802.78	26944
802.923	26895
803.065	26925
803.208	26929
803.35	27009
803.492	27138
803.635	27142
803.777	27165
803.919	27146
804.061	27641
804.204	27386
804.346	27146
804.488	27157
804.63	27226
804.773	27116
804.915	27344
805.057	27370
805.199	27245
805.341	27275
805.483	27378
805.626	27313
805.768	27363
805.91	27313
806.052	27370
806.194	27367
806.336	27545
806.478	27511
806.62	27382
806.762	27511
806.904	27652
807.046	27934
807.188	27595
807.33	27682
807.472	27823
807.614	27770
807.756	27789
807.898	27682
808.04	27652
808.182	27557
808.324	27641
808.465	27682
808.607	27831
808.749	28055
808.891	28192
809.033	28242
809.174	27934
809.316	27964
809.458	27914
809.6	28017
809.741	28109
809.883	28131
810.025	28249
810.166	28291
810.308	28154
810.45	28185
810.591	28181
810.733	28017
810.875	27785
811.016	28051
811.158	27861
811.299	28177
811.441	28306
811.582	28097
811.724	27861
811.865	28051
812.007	27964
812.148	28002
812.29	27960
812.431	28109
812.573	28272
812.714	28447
812.855	28561
812.997	28611
813.138	28710
813.279	28706
813.421	28500
813.562	28428
813.703	28253
813.845	28268
813.986	27892
814.127	27827
814.268	27679
814.41	27755
814.551	27732
814.692	27865
814.833	27564
814.974	27739
815.115	27545
815.256	27625
815.397	27682
815.539	27538
815.68	27462
815.821	27313
815.962	27538
816.103	27481
816.244	27416
816.385	27321
816.526	27298
816.666	27081
816.807	26948
816.948	27112
817.089	27058
817.23	27028
817.371	26861
817.512	26845
817.653	26971
817.793	26963
817.934	27036
818.075	27005
818.216	27005
818.356	26921
818.497	26777
818.638	26686
818.778	26705
818.919	26861
819.06	26857
819.2	26796
819.341	27017
819.481	26929
819.622	27104
819.762	27363
819.903	27214
820.043	27252
820.184	27104
820.324	27047
820.465	27233
820.605	27028
820.746	27055
820.886	27009
821.026	27066
821.167	26895
821.307	27070
821.447	26918
821.588	26826
821.728	26739
821.868	26640
822.008	26594
822.149	26358
822.289	26412
822.429	26176
822.569	26149
822.709	26153
822.849	25986
822.99	26054
823.13	25826
823.27	25959
823.41	25655
823.55	25670
823.69	25894
823.83	25761
823.97	25795
824.11	25597
824.25	25510
824.389	25529
824.529	25658
824.669	25734
824.809	25658
824.949	25624
825.089	25643
825.228	25514
825.368	25563
825.508	25533
825.648	25468
825.787	25571
825.927	25609
826.067	25426
826.206	25449
826.346	25457
826.485	25529
826.625	25479
826.765	25460
826.904	25518
827.044	25171
827.183	25168
827.323	25034
827.462	25263
827.601	25107
827.741	25240
827.88	25236
828.02	25080
828.159	25103
828.298	25168
828.437	25209
828.577	25156
828.716	25297
828.855	24977
828.994	24776
829.134	24989
829.273	24981
829.412	24840
829.551	24814
829.69	24890
829.829	24939
829.968	24958
830.107	24905
830.246	24935
830.385	24829
830.524	24825
830.663	24646
830.802	24654
830.941	24456
831.08	24448
831.219	24517
831.357	24555
831.496	24738
831.635	24574
831.774	24395
831.913	24365
832.051	24319
832.19	24315
832.329	24429
832.467	24171
832.606	24117
832.744	24049
832.883	24129
833.022	24174
833.16	24178
833.299	24205
833.437	24216
833.576	24232
833.714	24148
833.852	24285
833.991	24289
834.129	24285
834.267	24342
834.406	24247
834.544	24235
834.682	24273
834.821	24224
834.959	24498
835.097	24167
835.235	24376
835.373	24178
835.511	24167
835.65	24163
835.788	24057
835.926	23999
836.064	23802
836.202	23958
836.34	24053
836.478	24148
836.615	23885
836.753	23958
836.891	24163
837.029	24022
837.167	23980
837.305	23939
837.443	23935
837.58	23980
837.718	23901
837.856	23840
837.993	23950
838.131	23828
838.269	23870
838.406	23851
838.544	23726
838.681	23490
838.819	23505
838.956	23425
839.094	23402
839.231	23364
839.369	23535
839.506	23687
839.643	23623
839.781	23337
839.918	23482
840.055	23356
840.193	23315
840.33	23258
840.467	23292
840.604	23337
840.742	23482
840.879	23220
841.016	23242
841.153	23258
841.29	23376
841.427	23242
841.564	23235
841.701	23376
841.838	23204
841.975	23208
842.112	23235
842.249	23090
842.385	23018
842.522	23280
842.659	23044
842.796	23113
842.933	22953
843.069	22904
843.206	23025
843.343	23128
843.479	22995
843.616	23006
843.752	22866
843.889	22854
844.025	23064
844.162	22736
844.298	23003
844.435	22820
844.571	22820
844.708	22801
844.844	22984
844.98	22976
845.117	22999
845.253	22763
845.389	22683
845.525	22713
845.661	22573
845.798	22504
845.934	22596
846.07	22603
846.206	22599
846.342	22767
846.478	22672
846.614	22428
846.75	22310
846.886	22287
847.022	22379
847.158	22398
847.294	22386
847.429	22284
847.565	22287
847.701	22554
847.837	22013
847.972	21930
848.108	22162
848.244	22162
848.379	21975
848.515	21888
848.65	21865
848.786	21991
848.921	21979
849.057	21937
849.192	21964
849.328	21854
849.463	21903
849.598	21922
849.734	21778
849.869	21747
850.004	21595
850.14	21682
850.275	21523
850.41	21534
850.545	21485
850.68	21614
850.815	21637
850.95	21644
851.085	21736
851.22	21671
851.355	21743
851.49	21656
851.625	21622
851.76	21618
851.895	21481
852.03	21606
852.165	21561
852.299	21701
852.434	21660
852.569	21648
852.703	21694
852.838	21652
852.973	21812
853.107	21797
853.242	21606
853.376	21466
853.511	21340
853.645	21374
853.78	21542
853.914	21504
854.048	21351
854.183	21538
854.317	21386
854.451	21561
854.585	21397
854.72	21488
854.854	21603
854.988	21431
855.122	21587
855.256	21275
855.39	21481
855.524	21530
855.658	21534
855.792	21538
855.926	21500
856.06	21568
856.194	21485
856.327	21355
856.461	21325
856.595	21405
856.729	21500
856.862	21507
856.996	21370
857.13	21557
857.263	21610
857.397	21515
857.53	21431
857.664	21583
857.797	21473
857.931	21523
858.064	21580
858.197	21545
858.331	21469
858.464	21382
858.597	21450
858.731	21488
858.864	21389
858.997	21344
859.13	21397
859.263	21450
859.396	21488
859.529	21564
859.662	21393
859.795	21393
859.928	21515
860.061	21599
860.194	21622
860.327	21542
860.46	21408
860.592	21587
860.725	21568
860.858	21618
860.99	21382
861.123	21431
861.256	21469
861.388	21450
861.521	22192
861.653	21287
861.786	21294
861.918	21268
862.05	21378
862.183	21447
862.315	21439
862.447	21428
862.58	21466
862.712	21150
862.844	21192
862.976	21249
863.108	21169
863.24	21629
863.372	21154
863.504	21298
863.636	21173
863.768	21291
863.9	21169
864.032	21176
864.164	21222
864.296	21165
864.428	21321
864.559	21313
864.691	21195
864.823	21169
864.954	21230
865.086	21142
865.217	21123
865.349	21005
865.48	21028
865.612	21207
865.743	21192
865.875	21036
866.006	21058
866.137	21165
866.269	21062
866.4	21138
866.531	21100
866.662	20986
866.793	21119
866.924	20956
867.055	21108
867.186	21116
867.317	21100
867.448	21001
867.579	20956
867.71	20914
867.841	20918
867.972	20963
868.103	21005
868.233	21039
868.364	20979
868.495	20994
868.625	21211
868.756	21332
868.886	21176
869.017	21218
869.147	21329
869.278	21397
869.408	21359
869.539	21412
869.669	21233
869.799	21264
869.929	21329
870.06	21397
870.19	21667
870.32	21595
870.45	21557
870.58	21667
870.71	21793
870.84	21755
870.97	21694
871.1	21637
871.23	21880
871.36	21869
871.489	21793
871.619	21686
871.749	21755
871.879	21903
872.008	22002
872.138	21793
872.267	21880
872.397	21690
872.526	21861
872.656	21770
872.785	21648
872.915	21869
873.044	22036
873.173	21953
873.303	21918
873.432	22021
873.561	22051
873.69	21876
873.819	21915
873.948	22013
874.077	21831
874.206	21827
874.335	21850
874.464	22002
874.593	22135
874.722	22067
874.851	22017
874.979	22093
875.108	22147
875.237	22032
875.365	22006
875.494	22162
875.623	22086
875.751	22150
875.88	22105
876.008	22261
876.136	22325
876.265	22527
876.393	22698
876.521	22542
876.65	22615
876.778	22443
876.906	22455
877.034	22447
877.162	22363
877.29	22356
877.418	22451
877.546	22417
877.674	22424
877.802	22512
877.93	22462
878.058	22478
878.185	22344
878.313	22390
878.441	22493
878.568	22268
878.696	22466
878.824	22550
878.951	22440
879.079	22656
879.206	22786
879.333	22569
879.461	22474
879.588	22489
879.715	22626
879.842	22771
879.97	22577
880.097	22360
880.224	22211
880.351	22382
880.478	22356
880.605	22162
880.732	22226
880.859	22519
880.986	22284
881.112	22284
881.239	22158
881.366	22002
881.493	21800
881.619	21766
881.746	21831
881.872	21827
881.999	21736
882.125	21682
882.252	21888
882.378	21690
882.505	21994
882.631	21580
882.757	21614
882.883	21667
883.01	21481
883.136	21561
883.262	21428
883.388	21287
883.514	21637
883.64	21492
883.766	21420
883.892	21260
884.018	21275
884.143	21496
884.269	21564
884.395	21279
884.52	21123
884.646	21260
884.772	21020
884.897	21039
885.023	21119
885.148	21249
885.274	21367
885.399	21195
885.524	21093
885.65	21169
885.775	21176
885.9	21123
886.025	21313
886.15	21268
886.275	21184
886.4	21211
886.525	21062
886.65	21062
886.775	21104
886.9	21161
887.025	21355
887.149	21127
887.274	20956
887.399	20929
887.523	20910
887.648	20952
887.773	20815
887.897	20994
888.021	21001
888.146	20975
888.27	20967
888.395	21013
888.519	21055
888.643	20944
888.767	21009
888.891	20872
889.015	20773
889.139	20842
889.263	20712
889.387	20826
889.511	21138
889.635	20880
889.759	20754
889.883	20765
890.006	20663
890.13	20765
890.254	20705
890.377	20621
890.501	20465
890.624	20484
890.748	20533
890.871	20339
890.995	20396
891.118	20275
891.241	20366
891.364	20347
891.488	20415
891.611	20313
891.734	20214
891.857	20396
891.98	20259
892.103	20370
892.226	20358
892.349	20263
892.471	20062
892.594	20332
892.717	20225
892.839	20149
892.962	20233
893.085	20256
893.207	20339
893.33	20111
893.452	20119
893.575	20259
893.697	20153
893.819	20393
893.941	20355
894.064	20385
894.186	20065
894.308	20237
894.43	20320
894.552	20347
894.674	20294
894.796	20134
894.918	20218
895.04	20218
895.161	20244
895.283	20206
895.405	20172
895.526	20138
895.648	20168
895.769	20275
895.891	20172
896.012	20267
896.134	20275
896.255	20202
896.376	20267
896.498	20130
896.619	20282
896.74	20138
896.861	20206
896.982	20590
897.103	20670
897.224	20431
897.345	20389
897.466	20336
897.587	20427
897.708	20541
897.828	20438
897.949	20351
898.07	20221
898.19	20313
898.311	20522
898.431	20324
898.552	20374
898.672	20514
898.792	20461
898.913	20427
899.033	20298
899.153	20161
899.273	20202
899.393	20122
899.513	20134
899.633	20183
899.753	20164
899.873	20008
899.993	20191
900.113	19989
900.232	20221
900.352	20058
900.472	20031
900.591	19989
900.711	19978
900.83	19887
900.95	20016
901.069	19986
901.189	19928
901.308	19647
901.427	19502
901.546	19529
901.665	19537
901.784	19529
901.904	19377
902.023	19251
902.141	19129
902.26	19046
902.379	19175
902.498	19095
902.617	19015
902.735	19008
902.854	19042
902.973	18905
903.091	18654
903.21	18669
903.328	18692
903.446	18646
903.565	18448
903.683	18551
903.801	18350
903.919	18467
904.038	18509
904.156	18285
904.274	18448
904.392	18357
904.51	18258
904.627	18247
904.745	18388
904.863	18330
904.981	18163
905.098	18030
905.216	17954
905.334	17984
905.451	18011
905.569	17920
905.686	18087
905.803	17923
905.921	17710
906.038	17866
906.155	17783
906.272	17539
906.389	17691
906.506	17512
906.623	17543
906.74	17497
906.857	17356
906.974	17356
907.091	17425
907.208	17516
907.324	17455
907.441	17398
907.557	17212
907.674	17140
907.79	17155
907.907	17204
908.023	17261
908.139	17250
908.256	17140
908.372	17052
908.488	17037
908.604	16938
908.72	16896
908.836	16866
908.952	16915
909.068	16987
909.184	16847
909.3	16881
909.415	16877
909.531	16839
909.647	16672
909.762	16698
909.878	16630
909.993	16656
910.108	16649
910.224	16558
910.339	16618
910.454	16432
910.57	16462
910.685	16394
910.8	16672
910.915	16569
911.03	16474
911.145	16314
911.259	16257
911.374	16284
911.489	16150
911.604	16196
911.718	16032
911.833	15892
911.947	15808
912.062	15762
912.176	16032
912.291	15937
912.405	15873
912.519	16055
912.633	16078
912.748	16082
912.862	15983
912.976	15785
913.09	15766
913.204	15797
913.318	15816
913.431	15804
913.545	15808
913.659	15808
913.772	15747
913.886	15625
914	15682
914.113	15584
914.226	15800
914.34	15667
914.453	15488
914.566	15584
914.68	15435
914.793	15386
914.906	15245
915.019	15157
915.132	15150
915.245	15203
915.358	15146
915.47	15176
915.583	15249
915.696	15127
915.809	15241
915.921	15374
916.034	15173
916.146	15043
916.259	14990
916.371	15146
916.483	15100
916.595	14975
916.708	14986
916.82	14967
916.932	14944
917.044	15009
917.156	14944
917.268	14868
917.38	14849
917.491	14720
917.603	14781
917.715	14902
917.826	14921
917.938	14788
918.049	14640
918.161	14739
918.272	14941
918.384	14834
918.495	14937
918.606	14636
918.717	14545
918.828	14560
918.939	14708
919.05	14473
919.161	14568
919.272	14434
919.383	14446
919.494	14606
919.604	14788
919.715	14533
919.826	14370
919.936	14492
920.047	14621
920.157	14526
920.267	14727
920.378	14552
920.488	14636
920.598	14720
920.708	14743
920.818	14667
920.928	14644
921.038	14712
921.148	14800
921.258	14541
921.368	14419
921.477	14332
921.587	14278
921.697	14248
921.806	14256
921.916	14168
922.025	14062
922.134	13959
922.244	13887
922.353	13970
922.462	13837
922.571	13708
922.68	13655
922.789	13548
922.898	13601
923.007	13445
923.116	13636
923.224	13556
923.333	13518
923.442	13403
923.55	13483
923.659	13460
923.767	13460
923.876	13381
923.984	13396
924.092	13240
924.201	13335
924.309	13213
924.417	13251
924.525	13244
924.633	13327
924.741	14001
924.849	13053
924.956	13164
925.064	13004
925.172	12875
925.279	12890
925.387	12973
925.494	12996
925.602	13084
925.709	13027
925.816	12966
925.924	12859
926.031	12951
926.138	12890
926.245	12966
926.352	12802
926.459	12966
926.566	12962
926.673	12749
926.779	12787
926.886	12711
926.993	12604
927.099	12559
927.206	12589
927.312	12460
927.419	12662
927.525	12585
927.631	12608
927.737	12445
927.843	12380
927.95	12395
928.056	12270
928.162	12414
928.267	12494
928.373	12966
928.479	12403
928.585	12175
928.69	12281
928.796	12334
928.901	12273
929.007	12121
929.112	12216
929.218	12235
929.323	12087
929.428	12038
929.533	12247
929.638	12007
929.743	12015
929.848	12019
929.953	11939
930.058	11851
930.163	11748
930.267	11805
930.372	11901
930.477	11813
930.581	12019
930.685	11779
930.79	11661
930.894	11665
930.998	11589
931.103	11703
931.207	11383
931.311	11364
931.415	11185
931.519	11128
931.623	11083
