Data from test_V78500241_923.txt Node
Date: Fri Mar 25 15:16:17 CST 2022
User: usil
Spectrometer: V785-0024
Trigger mode: 0
Integration Time (sec): 4.000000E-1
Scans to average: 1
Nonlinearity correction enabled: false
Boxcar width: 0
Storing dark spectrum: false
XAxis mode: Wavelengths
Number of Pixels in Spectrum: 1024
>>>>>Begin Spectral Data<<<<<
801.071	28006
801.214	28021
801.356	27888
801.499	27789
801.641	27698
801.783	27679
801.926	27526
802.068	27610
802.211	27603
802.353	27507
802.496	27283
802.638	27230
802.78	27325
802.923	27287
803.065	27351
803.208	27233
803.35	27279
803.492	27408
803.635	27389
803.777	27412
803.919	27599
804.061	27869
804.204	27462
804.346	27348
804.488	27397
804.63	27302
804.773	27378
804.915	27443
805.057	27625
805.199	27523
805.341	27671
805.483	27606
805.626	27732
805.768	27675
805.91	27606
806.052	27583
806.194	27507
806.336	27789
806.478	27774
806.62	27637
806.762	27766
806.904	27960
807.046	28200
807.188	28044
807.33	28086
807.472	28120
807.614	27892
807.756	28120
807.898	27903
808.04	27880
808.182	27850
808.324	27907
808.465	27899
808.607	28036
808.749	28215
808.891	28405
809.033	28432
809.174	28413
809.316	28291
809.458	28451
809.6	28325
809.741	28333
809.883	28371
810.025	28752
810.166	28603
810.308	28569
810.45	28542
810.591	28485
810.733	28226
810.875	28204
811.016	28314
811.158	28417
811.299	28322
811.441	28531
811.582	28325
811.724	28207
811.865	28341
812.007	28265
812.148	28421
812.29	28299
812.431	28588
812.573	28710
812.714	28877
812.855	28873
812.997	28885
813.138	28976
813.279	28957
813.421	28911
813.562	28858
813.703	28645
813.845	28634
813.986	28421
814.127	28196
814.268	28010
814.41	28135
814.551	27968
814.692	28063
814.833	27960
814.974	27937
815.115	27991
815.256	27930
815.397	28010
815.539	27854
815.68	27865
815.821	27816
815.962	27812
816.103	27903
816.244	27720
816.385	27709
816.526	27568
816.666	27435
816.807	27382
816.948	27435
817.089	27435
817.23	27306
817.371	27359
817.512	27378
817.653	27329
817.793	27329
817.934	27325
818.075	27386
818.216	27351
818.356	27382
818.497	27169
818.638	27047
818.778	27093
818.919	27039
819.06	27169
819.2	27302
819.341	27302
819.481	27340
819.622	27386
819.762	27675
819.903	27572
820.043	27488
820.184	27443
820.324	27458
820.465	27526
820.605	27424
820.746	27481
820.886	27279
821.026	27519
821.167	27256
821.307	27458
821.447	27332
821.588	27214
821.728	27146
821.868	27036
822.008	26830
822.149	26701
822.289	26861
822.429	26632
822.569	26469
822.709	26507
822.849	26252
822.99	26218
823.13	26298
823.27	26111
823.41	26073
823.55	25944
823.69	26210
823.83	26183
823.97	26024
824.11	26035
824.25	25845
824.389	25849
824.529	26031
824.669	26043
824.809	25944
824.949	26005
825.089	26111
825.228	26081
825.368	25868
825.508	25791
825.648	25917
825.787	25993
825.927	25845
826.067	25845
826.206	25700
826.346	25909
826.485	25864
826.625	25909
826.765	25951
826.904	25947
827.044	25620
827.183	25552
827.323	25597
827.462	25635
827.601	25533
827.741	25594
827.88	25487
828.02	25460
828.159	25578
828.298	25613
828.437	25639
828.577	25529
828.716	25552
828.855	25468
828.994	25266
829.134	25202
829.273	25179
829.412	25278
829.551	25225
829.69	25293
829.829	25244
829.968	25301
830.107	25278
830.246	25168
830.385	25129
830.524	25095
830.663	25061
830.802	25160
830.941	24817
831.08	24806
831.219	25042
831.357	24905
831.496	25156
831.635	24825
831.774	24821
831.913	24749
832.051	24749
832.19	24707
832.329	24669
832.467	24566
832.606	24601
832.744	24593
832.883	24407
833.022	24471
833.16	24563
833.299	24547
833.437	24582
833.576	24639
833.714	24525
833.852	24627
833.991	24639
834.129	24627
834.267	24669
834.406	24658
834.544	24654
834.682	24475
834.821	24669
834.959	24867
835.097	24388
835.235	24620
835.373	24521
835.511	24536
835.65	24479
835.788	24536
835.926	24251
836.064	24346
836.202	24216
836.34	24426
836.478	24505
836.615	24399
836.753	24433
836.891	24563
837.029	24540
837.167	24407
837.305	24338
837.443	24182
837.58	24205
837.718	24376
837.856	24232
837.993	24148
838.131	24209
838.269	24018
838.406	24140
838.544	24117
838.681	23931
838.819	23779
838.956	23828
839.094	23726
839.231	23904
839.369	24038
839.506	24087
839.643	23954
839.781	23657
839.918	23771
840.055	23832
840.193	23752
840.33	23638
840.467	23767
840.604	23748
840.742	23908
840.879	23474
841.016	23630
841.153	23630
841.29	23798
841.427	23691
841.564	23680
841.701	23737
841.838	23714
841.975	23531
842.112	23558
842.249	23448
842.385	23345
842.522	23524
842.659	23471
842.796	23223
842.933	23387
843.069	23467
843.206	23463
843.343	23410
843.479	23425
843.616	23410
843.752	23299
843.889	23235
844.025	23383
844.162	23189
844.298	23273
844.435	23170
844.571	23166
844.708	23265
844.844	23406
844.98	23326
845.117	23372
845.253	23242
845.389	23044
845.525	23079
845.661	23075
845.798	22980
845.934	22915
846.07	22911
846.206	22892
846.342	23044
846.478	22961
846.614	22668
846.75	22565
846.886	22592
847.022	22713
847.158	22725
847.294	22626
847.429	22672
847.565	22596
847.701	22824
847.837	22478
847.972	22481
848.108	22436
848.244	22519
848.379	22348
848.515	22219
848.65	22280
848.786	22329
848.921	22188
849.057	22265
849.192	22299
849.328	22299
849.463	22291
849.598	22181
849.734	22173
849.869	22211
850.004	21987
850.14	22051
850.275	21956
850.41	21930
850.545	22051
850.68	21922
850.815	22044
850.95	21922
851.085	22166
851.22	22150
851.355	22051
851.49	21937
851.625	22093
851.76	22021
851.895	21884
852.03	21964
852.165	22086
852.299	22021
852.434	22158
852.569	21998
852.703	22002
852.838	21960
852.973	22135
853.107	22310
853.242	22013
853.376	21835
853.511	21728
853.645	21747
853.78	22025
853.914	21812
854.048	21785
854.183	21800
854.317	21911
854.451	21991
854.585	21827
854.72	21804
854.854	21907
854.988	21679
855.122	21937
855.256	21599
855.39	21732
855.524	21869
855.658	21823
855.792	21789
855.926	21838
856.06	21804
856.194	21857
856.327	21747
856.461	21713
856.595	21823
856.729	21701
856.862	22006
856.996	21892
857.13	21945
857.263	21857
857.397	21960
857.53	21747
857.664	21918
857.797	21869
857.931	21880
858.064	21869
858.197	21880
858.331	21808
858.464	21823
858.597	21747
858.731	21789
858.864	21732
858.997	21831
859.13	21888
859.263	21941
859.396	21819
859.529	21736
859.662	21701
859.795	21823
859.928	21930
860.061	21949
860.194	22021
860.327	21892
860.46	21808
860.592	21983
860.725	21964
860.858	21960
860.99	21724
861.123	21732
861.256	21759
861.388	21781
861.521	22687
861.653	21663
861.786	21523
861.918	21599
862.05	21652
862.183	21846
862.315	21717
862.447	21812
862.58	21819
862.712	21599
862.844	21473
862.976	21671
863.108	21682
863.24	21960
863.372	21511
863.504	21603
863.636	21481
863.768	21564
863.9	21496
864.032	21447
864.164	21473
864.296	21580
864.428	21568
864.559	21378
864.691	21660
864.823	21671
864.954	21431
865.086	21564
865.217	21473
865.349	21344
865.48	21401
865.612	21492
865.743	21561
865.875	21507
866.006	21401
866.137	21378
866.269	21336
866.4	21416
866.531	21370
866.662	21363
866.793	21363
866.924	21268
867.055	21272
867.186	21405
867.317	21348
867.448	21256
867.579	21268
867.71	21199
867.841	21252
867.972	21397
868.103	21321
868.233	21245
868.364	21386
868.495	21500
868.625	21553
868.756	21705
868.886	21515
869.017	21576
869.147	21648
869.278	21709
869.408	21595
869.539	21614
869.669	21766
869.799	21622
869.929	21781
870.06	21648
870.19	21816
870.32	21861
870.45	21987
870.58	21979
870.71	22036
870.84	22013
870.97	22029
871.1	21915
871.23	22196
871.36	22230
871.489	22070
871.619	22207
871.749	22139
871.879	22169
872.008	22177
872.138	22192
872.267	22169
872.397	22010
872.526	21956
872.656	22078
872.785	22074
872.915	22147
873.044	22310
873.173	22204
873.303	22287
873.432	22284
873.561	22284
873.69	22177
873.819	22124
873.948	22204
874.077	22200
874.206	22082
874.335	22059
874.464	22280
874.593	22405
874.722	22402
874.851	22447
874.979	22413
875.108	22607
875.237	22242
875.365	22382
875.494	22462
875.623	22478
875.751	22306
875.88	22402
876.008	22478
876.136	22607
876.265	22866
876.393	22881
876.521	22877
876.65	22900
876.778	22763
876.906	22698
877.034	22767
877.162	22809
877.29	22622
877.418	22668
877.546	22835
877.674	22664
877.802	22713
877.93	22919
878.058	22729
878.185	22626
878.313	22672
878.441	22782
878.568	22577
878.696	22634
878.824	22801
878.951	22923
879.079	22896
879.206	23075
879.333	22847
879.461	22797
879.588	22949
879.715	22885
879.842	23128
879.97	22835
880.097	22554
880.224	22630
880.351	22630
880.478	22523
880.605	22512
880.732	22687
880.859	22793
880.986	22615
881.112	22706
881.239	22424
881.366	22329
881.493	22238
881.619	22223
881.746	22105
881.872	22154
881.999	22188
882.125	22059
882.252	22128
882.378	22059
882.505	22135
882.631	21945
882.757	21892
882.883	21819
883.01	21831
883.136	21766
883.262	21682
883.388	21743
883.514	21774
883.64	21907
883.766	21755
883.892	21576
884.018	21682
884.143	21854
884.269	21808
884.395	21652
884.52	21488
884.646	21515
884.772	21523
884.897	21424
885.023	21599
885.148	21587
885.274	21644
885.399	21599
885.524	21477
885.65	21633
885.775	21496
885.9	21450
886.025	21488
886.15	21591
886.275	21454
886.4	21294
886.525	21283
886.65	21416
886.775	21500
886.9	21633
887.025	21736
887.149	21443
887.274	21443
887.399	21233
887.523	21222
887.648	21169
887.773	21207
887.897	21374
888.021	21302
888.146	21325
888.27	21401
888.395	21374
888.519	21310
888.643	21298
888.767	21348
888.891	21211
889.015	21058
889.139	21062
889.263	21116
889.387	21249
889.511	21340
889.635	21150
889.759	21081
889.883	21070
890.006	21173
890.13	21207
890.254	21081
890.377	21020
890.501	20918
890.624	20746
890.748	20842
890.871	20598
890.995	20651
891.118	20480
891.241	20674
891.364	20651
891.488	20762
891.611	20644
891.734	20670
891.857	20663
891.98	20670
892.103	20746
892.226	20590
892.349	20629
892.471	20469
892.594	20587
892.717	20602
892.839	20518
892.962	20617
893.085	20556
893.207	20488
893.33	20465
893.452	20454
893.575	20545
893.697	20518
893.819	20750
893.941	20743
894.064	20590
894.186	20514
894.308	20450
894.43	20587
894.552	20689
894.674	20518
894.796	20469
894.918	20587
895.04	20442
895.161	20545
895.283	20522
895.405	20446
895.526	20552
895.648	20442
895.769	20526
895.891	20621
896.012	20667
896.134	20503
896.255	20412
896.376	20545
896.498	20469
896.619	20526
896.74	20545
896.861	20469
896.982	20887
897.103	20929
897.224	20678
897.345	20712
897.466	20682
897.587	20731
897.708	20834
897.828	20724
897.949	20655
898.07	20541
898.19	20514
898.311	20876
898.431	20693
898.552	20682
898.672	20796
898.792	20727
898.913	20651
899.033	20571
899.153	20507
899.273	20434
899.393	20552
899.513	20495
899.633	20415
899.753	20412
899.873	20450
899.993	20495
900.113	20324
900.232	20476
900.352	20408
900.472	20259
900.591	20100
900.711	20278
900.83	20149
900.95	20278
901.069	20229
901.189	20206
901.308	19909
901.427	19696
901.546	19925
901.665	19734
901.784	19860
901.904	19681
902.023	19647
902.141	19339
902.26	19388
902.379	19384
902.498	19331
902.617	19324
902.735	19480
902.854	19369
902.973	19247
903.091	18920
903.21	18916
903.328	18894
903.446	18913
903.565	18817
903.683	18856
903.801	18658
903.919	18825
904.038	18722
904.156	18513
904.274	18616
904.392	18547
904.51	18555
904.627	18578
904.745	18623
904.863	18623
904.981	18376
905.098	18152
905.216	18232
905.334	18258
905.451	18213
905.569	18243
905.686	18319
905.803	18247
905.921	17984
906.038	18057
906.155	18129
906.272	17859
906.389	17996
906.506	17824
906.623	17802
906.74	17691
906.857	17722
906.974	17581
907.091	17798
907.208	17840
907.324	17665
907.441	17623
907.557	17512
907.674	17501
907.79	17391
907.907	17372
908.023	17444
908.139	17490
908.256	17486
908.372	17341
908.488	17258
908.604	17311
908.72	17090
908.836	17231
908.952	17181
909.068	17220
909.184	17330
909.3	17246
909.415	17060
909.531	17155
909.647	16919
909.762	16881
909.878	16889
909.993	16927
910.108	16942
910.224	16835
910.339	16900
910.454	16805
910.57	16721
910.685	16626
910.8	16854
910.915	16801
911.03	16729
911.145	16599
911.259	16542
911.374	16402
911.489	16382
911.604	16314
911.718	16257
911.833	16268
911.947	16150
912.062	16105
912.176	16097
912.291	16188
912.405	16135
912.519	16344
912.633	16394
912.748	16261
912.862	16158
912.976	16067
913.09	15934
913.204	15979
913.318	16059
913.431	16036
913.545	16040
913.659	16131
913.772	16044
913.886	15937
914	15831
914.113	15926
914.226	16013
914.34	15869
914.453	15739
914.566	15884
914.68	15747
914.793	15591
914.906	15545
915.019	15412
915.132	15382
915.245	15412
915.358	15458
915.47	15420
915.583	15386
915.696	15443
915.809	15492
915.921	15587
916.034	15439
916.146	15363
916.259	15336
916.371	15359
916.483	15336
916.595	15313
916.708	15302
916.82	15252
916.932	15157
917.044	15230
917.156	15085
917.268	15127
917.38	15119
917.491	15005
917.603	15112
917.715	15142
917.826	15142
917.938	15051
918.049	14948
918.161	15017
918.272	15119
918.384	15165
918.495	14876
918.606	14864
918.717	14834
918.828	14804
918.939	14792
919.05	14826
919.161	14708
919.272	14590
919.383	14727
919.494	14845
919.604	15039
919.715	14788
919.826	14651
919.936	14689
920.047	14819
920.157	14750
920.267	14986
920.378	14861
920.488	14731
920.598	14918
920.708	15032
920.818	14906
920.928	14861
921.038	15017
921.148	15032
921.258	14815
921.368	14777
921.477	14503
921.587	14499
921.697	14313
921.806	14568
921.916	14320
922.025	14229
922.134	14134
922.244	14062
922.353	14187
922.462	14077
922.571	13986
922.68	13913
922.789	13723
922.898	13776
923.007	13674
923.116	13795
923.224	13784
923.333	13731
923.442	13639
923.55	13662
923.659	13655
923.767	13738
923.876	13575
923.984	13677
924.092	13480
924.201	13499
924.309	13499
924.417	13483
924.525	13430
924.633	13331
924.741	14343
924.849	13232
924.956	13350
925.064	13194
925.172	13141
925.279	13285
925.387	13137
925.494	13171
925.602	13320
925.709	13190
925.816	13118
925.924	13171
926.031	13244
926.138	13129
926.245	13103
926.352	13152
926.459	13164
926.566	13198
926.673	13069
926.779	12985
926.886	12882
926.993	12791
927.099	12844
927.206	12734
927.312	12700
927.419	12833
927.525	12738
927.631	12745
927.737	12665
927.843	12597
927.95	12525
928.056	12658
928.162	12555
928.267	12642
928.373	13335
928.479	12635
928.585	12327
928.69	12486
928.796	12566
928.901	12479
929.007	12304
929.112	12422
929.218	12464
929.323	12357
929.428	12327
929.533	12399
929.638	12194
929.743	12232
929.848	12258
929.953	12270
930.058	12197
930.163	12026
930.267	11977
930.372	12095
930.477	11927
930.581	12133
930.685	12022
930.79	11821
930.894	11851
930.998	11847
931.103	11999
931.207	11604
931.311	11436
931.415	11448
931.519	11204
931.623	11178
