Data from test_V78500241_1732.txt Node
Date: Fri Mar 25 15:21:55 CST 2022
User: usil
Spectrometer: V785-0024
Trigger mode: 0
Integration Time (sec): 4.000000E-1
Scans to average: 1
Nonlinearity correction enabled: false
Boxcar width: 0
Storing dark spectrum: false
XAxis mode: Wavelengths
Number of Pixels in Spectrum: 1024
>>>>>Begin Spectral Data<<<<<
801.071	27873
801.214	27812
801.356	27549
801.499	27504
801.641	27405
801.783	27279
801.926	27393
802.068	27317
802.211	27469
802.353	27359
802.496	27142
802.638	26910
802.78	27116
802.923	27138
803.065	27017
803.208	26963
803.35	27070
803.492	27195
803.635	27249
803.777	27184
803.919	27226
804.061	27633
804.204	27416
804.346	27123
804.488	27184
804.63	27344
804.773	27146
804.915	27351
805.057	27397
805.199	27245
805.341	27351
805.483	27420
805.626	27374
805.768	27351
805.91	27336
806.052	27500
806.194	27382
806.336	27538
806.478	27481
806.62	27260
806.762	27427
806.904	27705
807.046	27930
807.188	27869
807.33	27854
807.472	27774
807.614	27819
807.756	27755
807.898	27713
808.04	27671
808.182	27599
808.324	27603
808.465	27705
808.607	28013
808.749	28169
808.891	28090
809.033	28124
809.174	28048
809.316	28185
809.458	27854
809.6	27998
809.741	28124
809.883	28261
810.025	28329
810.166	28314
810.308	28219
810.45	28401
810.591	28158
810.733	28051
810.875	27987
811.016	27865
811.158	27808
811.299	28101
811.441	28192
811.582	27994
811.724	27960
811.865	28059
812.007	27983
812.148	28017
812.29	28029
812.431	28265
812.573	28356
812.714	28508
812.855	28622
812.997	28588
813.138	28584
813.279	28668
813.421	28577
813.562	28531
813.703	28455
813.845	28306
813.986	28116
814.127	27838
814.268	27766
814.41	27709
814.551	27770
814.692	27827
814.833	27759
814.974	27644
815.115	27892
815.256	27625
815.397	27606
815.539	27633
815.68	27443
815.821	27443
815.962	27397
816.103	27443
816.244	27427
816.385	27123
816.526	27108
816.666	27135
816.807	27138
816.948	27070
817.089	27108
817.23	27089
817.371	27066
817.512	26979
817.653	26933
817.793	26956
817.934	26880
818.075	26834
818.216	26929
818.356	26933
818.497	26956
818.638	26807
818.778	26632
818.919	26659
819.06	26731
819.2	27116
819.341	27028
819.481	27036
819.622	27161
819.762	27332
819.903	27291
820.043	27192
820.184	27096
820.324	26975
820.465	27165
820.605	27085
820.746	27066
820.886	26872
821.026	26899
821.167	27108
821.307	27119
821.447	27013
821.588	26952
821.728	26857
821.868	26686
822.008	26651
822.149	26362
822.289	26522
822.429	26191
822.569	26259
822.709	26077
822.849	25993
822.99	26058
823.13	25944
823.27	25940
823.41	25856
823.55	25715
823.69	25734
823.83	25772
823.97	25868
824.11	25601
824.25	25567
824.389	25453
824.529	25772
824.669	25620
824.809	25780
824.949	25765
825.089	25693
825.228	25624
825.368	25460
825.508	25510
825.648	25358
825.787	25464
825.927	25540
826.067	25487
826.206	25487
826.346	25525
826.485	25620
826.625	25567
826.765	25518
826.904	25525
827.044	25301
827.183	25076
827.323	25152
827.462	25392
827.601	25126
827.741	25270
827.88	25266
828.02	25072
828.159	25190
828.298	25270
828.437	25312
828.577	25240
828.716	25171
828.855	25118
828.994	24916
829.134	24913
829.273	24985
829.412	24928
829.551	24916
829.69	24856
829.829	24897
829.968	25008
830.107	24817
830.246	24996
830.385	24768
830.524	24806
830.663	24700
830.802	24654
830.941	24601
831.08	24502
831.219	24639
831.357	24620
831.496	24844
831.635	24494
831.774	24505
831.913	24494
832.051	24311
832.19	24254
832.329	24311
832.467	24205
832.606	24243
832.744	24155
832.883	24190
833.022	24224
833.16	24243
833.299	24285
833.437	24114
833.576	24281
833.714	24281
833.852	24399
833.991	24308
834.129	24479
834.267	24186
834.406	24334
834.544	24251
834.682	24357
834.821	24365
834.959	24403
835.097	24159
835.235	24353
835.373	24308
835.511	24334
835.65	24133
835.788	24095
835.926	24083
836.064	24030
836.202	23931
836.34	24220
836.478	24251
836.615	24072
836.753	24194
836.891	24087
837.029	24087
837.167	24041
837.305	24041
837.443	24015
837.58	24015
837.718	24007
837.856	24182
837.993	23843
838.131	24015
838.269	23817
838.406	23863
838.544	23771
838.681	23642
838.819	23649
838.956	23501
839.094	23509
839.231	23573
839.369	23573
839.506	23855
839.643	23642
839.781	23349
839.918	23368
840.055	23512
840.193	23353
840.33	23356
840.467	23334
840.604	23288
840.742	23577
840.879	23174
841.016	23242
841.153	23246
841.29	23379
841.427	23258
841.564	23311
841.701	23349
841.838	23296
841.975	23121
842.112	23341
842.249	23140
842.385	23166
842.522	23372
842.659	23064
842.796	23140
842.933	23124
843.069	23147
843.206	22991
843.343	23162
843.479	23193
843.616	23143
843.752	22839
843.889	22908
844.025	23090
844.162	22801
844.298	23079
844.435	22831
844.571	22900
844.708	22919
844.844	22965
844.98	23067
845.117	22934
845.253	22892
845.389	22767
845.525	22862
845.661	22744
845.798	22645
845.934	22584
846.07	22630
846.206	22786
846.342	22626
846.478	22706
846.614	22341
846.75	22478
846.886	22295
847.022	22443
847.158	22276
847.294	22409
847.429	22375
847.565	22295
847.701	22592
847.837	22002
847.972	22139
848.108	22276
848.244	22093
848.379	21972
848.515	21850
848.65	21945
848.786	22013
848.921	21937
849.057	22078
849.192	21968
849.328	21934
849.463	21953
849.598	21930
849.734	21850
849.869	21762
850.004	21663
850.14	21793
850.275	21747
850.41	21610
850.545	21644
850.68	21705
850.815	21671
850.95	21675
851.085	21781
851.22	21728
851.355	21713
851.49	21804
851.625	21698
851.76	21652
851.895	21568
852.03	21633
852.165	21614
852.299	21850
852.434	21785
852.569	21732
852.703	21652
852.838	21800
852.973	21907
853.107	21869
853.242	21705
853.376	21469
853.511	21393
853.645	21488
853.78	21709
853.914	21507
854.048	21545
854.183	21462
854.317	21660
854.451	21835
854.585	21496
854.72	21572
854.854	21583
854.988	21481
855.122	21603
855.256	21466
855.39	21378
855.524	21690
855.658	21595
855.792	21694
855.926	21549
856.06	21477
856.194	21701
856.327	21526
856.461	21500
856.595	21477
856.729	21530
856.862	21603
856.996	21447
857.13	21545
857.263	21530
857.397	21576
857.53	21530
857.664	21637
857.797	21462
857.931	21603
858.064	21587
858.197	21644
858.331	21481
858.464	21447
858.597	21454
858.731	21481
858.864	21485
858.997	21428
859.13	21511
859.263	21408
859.396	21580
859.529	21462
859.662	21481
859.795	21500
859.928	21549
860.061	21675
860.194	21812
860.327	21618
860.46	21580
860.592	21663
860.725	21572
860.858	21576
860.99	21492
861.123	21443
861.256	21466
861.388	21549
861.521	22284
861.653	21302
861.786	21279
861.918	21302
862.05	21317
862.183	21386
862.315	21515
862.447	21610
862.58	21386
862.712	21211
862.844	21192
862.976	21359
863.108	21317
863.24	21747
863.372	21260
863.504	21256
863.636	21146
863.768	21283
863.9	21298
864.032	21047
864.164	21135
864.296	21382
864.428	21283
864.559	21298
864.691	21313
864.823	21374
864.954	21081
865.086	21207
865.217	21127
865.349	21047
865.48	21024
865.612	21131
865.743	21245
865.875	21089
866.006	21039
866.137	21173
866.269	21207
866.4	21077
866.531	21058
866.662	21070
866.793	21047
866.924	21116
867.055	21062
867.186	21039
867.317	21043
867.448	20967
867.579	21039
867.71	20967
867.841	20929
867.972	20986
868.103	20979
868.233	21119
868.364	21135
868.495	21272
868.625	21233
868.756	21310
868.886	21313
869.017	21294
869.147	21454
869.278	21370
869.408	21405
869.539	21230
869.669	21291
869.799	21279
869.929	21420
870.06	21310
870.19	21667
870.32	21572
870.45	21614
870.58	21690
870.71	21827
870.84	21759
870.97	21755
871.1	21679
871.23	21861
871.36	21743
871.489	21743
871.619	21701
871.749	21949
871.879	21850
872.008	21876
872.138	21865
872.267	21915
872.397	21755
872.526	21660
872.656	21785
872.785	21717
872.915	21884
873.044	21941
873.173	21911
873.303	21949
873.432	22021
873.561	22002
873.69	22017
873.819	21915
873.948	21941
874.077	21842
874.206	21823
874.335	21854
874.464	22112
874.593	22143
874.722	22006
874.851	22124
874.979	22158
875.108	22162
875.237	22173
875.365	22067
875.494	22268
875.623	22200
875.751	22120
875.88	22173
876.008	22226
876.136	22360
876.265	22489
876.393	22615
876.521	22630
876.65	22588
876.778	22622
876.906	22428
877.034	22481
877.162	22451
877.29	22481
877.418	22432
877.546	22512
877.674	22512
877.802	22546
877.93	22443
878.058	22394
878.185	22417
878.313	22466
878.441	22394
878.568	22204
878.696	22440
878.824	22588
878.951	22474
879.079	22626
879.206	22786
879.333	22500
879.461	22455
879.588	22557
879.715	22607
879.842	22778
879.97	22550
880.097	22314
880.224	22306
880.351	22421
880.478	22344
880.605	22181
880.732	22276
880.859	22459
880.986	22447
881.112	22325
881.239	22207
881.366	22040
881.493	22063
881.619	21888
881.746	21884
881.872	21903
881.999	21869
882.125	21720
882.252	21941
882.378	21831
882.505	21968
882.631	21808
882.757	21507
882.883	21698
883.01	21599
883.136	21564
883.262	21420
883.388	21458
883.514	21530
883.64	21595
883.766	21549
883.892	21363
884.018	21344
884.143	21515
884.269	21477
884.395	21264
884.52	21192
884.646	21245
884.772	21195
884.897	21211
885.023	21131
885.148	21192
885.274	21294
885.399	21283
885.524	21222
885.65	21313
885.775	21161
885.9	21184
886.025	21344
886.15	21237
886.275	21176
886.4	21116
886.525	21108
886.65	21173
886.775	21085
886.9	21275
887.025	21344
887.149	21112
887.274	21108
887.399	20967
887.523	21043
887.648	20982
887.773	20929
887.897	20982
888.021	21051
888.146	20891
888.27	20960
888.395	21028
888.519	20971
888.643	20963
888.767	21058
888.891	20758
889.015	20864
889.139	20830
889.263	20765
889.387	20960
889.511	20990
889.635	20960
889.759	20701
889.883	20800
890.006	20762
890.13	20868
890.254	20644
890.377	20830
890.501	20541
890.624	20446
890.748	20476
890.871	20374
890.995	20374
891.118	20267
891.241	20347
891.364	20282
891.488	20431
891.611	20389
891.734	20309
891.857	20434
891.98	20252
892.103	20339
892.226	20256
892.349	20244
892.471	20202
892.594	20263
892.717	20339
892.839	20237
892.962	20206
893.085	20317
893.207	20191
893.33	20054
893.452	20172
893.575	20294
893.697	20263
893.819	20412
893.941	20507
894.064	20317
894.186	20168
894.308	20206
894.43	20358
894.552	20317
894.674	20278
894.796	20202
894.918	20161
895.04	20218
895.161	20355
895.283	20256
895.405	20191
895.526	20195
895.648	20237
895.769	20210
895.891	20259
896.012	20336
896.134	20351
896.255	20229
896.376	20172
896.498	20282
896.619	20309
896.74	20259
896.861	20408
896.982	20507
897.103	20693
897.224	20492
897.345	20351
897.466	20374
897.587	20499
897.708	20606
897.828	20484
897.949	20533
898.07	20149
898.19	20419
898.311	20484
898.431	20358
898.552	20446
898.672	20347
898.792	20530
898.913	20412
899.033	20366
899.153	20172
899.273	20191
899.393	20134
899.513	20286
899.633	20199
899.753	20218
899.873	20130
899.993	20172
900.113	20100
900.232	20233
900.352	20134
900.472	19997
900.591	19947
900.711	19955
900.83	19746
900.95	20024
901.069	20199
901.189	19811
901.308	19628
901.427	19480
901.546	19567
901.665	19586
901.784	19510
901.904	19422
902.023	19441
902.141	19110
902.26	19168
902.379	19145
902.498	19061
902.617	19008
902.735	19046
902.854	18973
902.973	18894
903.091	18791
903.21	18749
903.328	18684
903.446	18726
903.565	18570
903.683	18448
903.801	18361
903.919	18582
904.038	18407
904.156	18277
904.274	18391
904.392	18308
904.51	18281
904.627	18205
904.745	18285
904.863	18292
904.981	18022
905.098	17958
905.216	17965
905.334	18022
905.451	17984
905.569	17931
905.686	18011
905.803	17946
905.921	17783
906.038	17965
906.155	17760
906.272	17726
906.389	17729
906.506	17562
906.623	17501
906.74	17532
906.857	17414
906.974	17577
907.091	17577
907.208	17615
907.324	17463
907.441	17471
907.557	17223
907.674	17372
907.79	17124
907.907	17166
908.023	17280
908.139	17216
908.256	17303
908.372	17083
908.488	17033
908.604	17003
908.72	16850
908.836	16961
908.952	16965
909.068	16984
909.184	17033
909.3	16919
909.415	16999
909.531	16896
909.647	16774
909.762	16599
909.878	16668
909.993	16683
910.108	16672
910.224	16649
910.339	16622
910.454	16558
910.57	16573
910.685	16352
910.8	16691
910.915	16615
911.03	16481
911.145	16379
911.259	16261
911.374	16284
911.489	16276
911.604	16124
911.718	15964
911.833	15998
911.947	15930
912.062	15850
912.176	15918
912.291	15941
912.405	15899
912.519	16226
912.633	16204
912.748	16051
912.862	16025
912.976	15892
913.09	15759
913.204	15717
913.318	15842
913.431	15930
913.545	15949
913.659	15911
913.772	15778
913.886	15603
914	15660
914.113	15682
914.226	15819
914.34	15694
914.453	15629
914.566	15618
914.68	15576
914.793	15549
914.906	15363
915.019	15313
915.132	15230
915.245	15218
915.358	15272
915.47	15336
915.583	15157
915.696	15211
915.809	15393
915.921	15332
916.034	15195
916.146	15150
916.259	15188
916.371	15264
916.483	15252
916.595	15017
916.708	15154
916.82	15085
916.932	15226
917.044	15055
917.156	14918
917.268	14941
917.38	14918
917.491	14887
917.603	14880
917.715	14944
917.826	14986
917.938	14781
918.049	14705
918.161	14849
918.272	14910
918.384	14986
918.495	14811
918.606	14598
918.717	14594
918.828	14731
918.939	14701
919.05	14522
919.161	14556
919.272	14457
919.383	14537
919.494	14674
919.604	14792
919.715	14602
919.826	14499
919.936	14621
920.047	14712
920.157	14727
920.267	14705
920.378	14590
920.488	14606
920.598	14735
920.708	14853
920.818	14724
920.928	14750
921.038	14944
921.148	14727
921.258	14621
921.368	14480
921.477	14389
921.587	14256
921.697	14248
921.806	14343
921.916	14161
922.025	13955
922.134	14008
922.244	13944
922.353	14024
922.462	13898
922.571	13738
922.68	13639
922.789	13605
922.898	13567
923.007	13628
923.116	13715
923.224	13662
923.333	13540
923.442	13419
923.55	13411
923.659	13441
923.767	13460
923.876	13457
923.984	13449
924.092	13327
924.201	13373
924.309	13327
924.417	13434
924.525	13274
924.633	13324
924.741	14107
924.849	13069
924.956	13263
925.064	13027
925.172	12954
925.279	13114
925.387	13012
925.494	13053
925.602	13126
925.709	13023
925.816	12909
925.924	12958
926.031	13000
926.138	12943
926.245	13019
926.352	12894
926.459	13061
926.566	12973
926.673	12935
926.779	12837
926.886	12776
926.993	12639
927.099	12563
927.206	12589
927.312	12494
927.419	12703
927.525	12521
927.631	12521
927.737	12490
927.843	12471
927.95	12388
928.056	12338
928.162	12452
928.267	12456
928.373	13069
928.479	12498
928.585	12277
928.69	12410
928.796	12338
928.901	12247
929.007	12106
929.112	12209
929.218	12311
929.323	12091
929.428	12171
929.533	12239
929.638	12045
929.743	12064
929.848	12167
929.953	12015
930.058	12011
930.163	11904
930.267	11950
930.372	12026
930.477	11798
930.581	12038
930.685	11847
930.79	11748
930.894	11828
930.998	11695
931.103	11790
931.207	11471
931.311	11414
931.415	11220
931.519	11094
931.623	11064
