Data from test_V78500241_761.txt Node
Date: Fri Mar 25 15:15:09 CST 2022
User: usil
Spectrometer: V785-0024
Trigger mode: 0
Integration Time (sec): 4.000000E-1
Scans to average: 1
Nonlinearity correction enabled: false
Boxcar width: 0
Storing dark spectrum: false
XAxis mode: Wavelengths
Number of Pixels in Spectrum: 1024
>>>>>Begin Spectral Data<<<<<
801.071	28055
801.214	27861
801.356	27698
801.499	27736
801.641	27526
801.783	27625
801.926	27606
802.068	27534
802.211	27252
802.353	27363
802.496	27237
802.638	27169
802.78	27180
802.923	27127
803.065	27131
803.208	27165
803.35	27192
803.492	27279
803.635	27458
803.777	27192
803.919	27386
804.061	27610
804.204	27294
804.346	27249
804.488	27298
804.63	27249
804.773	27218
804.915	27325
805.057	27507
805.199	27355
805.341	27561
805.483	27557
805.626	27496
805.768	27336
805.91	27488
806.052	27374
806.194	27454
806.336	27648
806.478	27458
806.62	27530
806.762	27675
806.904	27759
807.046	27998
807.188	27937
807.33	27960
807.472	27998
807.614	27812
807.756	27975
807.898	27576
808.04	27850
808.182	27720
808.324	27835
808.465	27770
808.607	27975
808.749	28314
808.891	28185
809.033	28177
809.174	28238
809.316	28162
809.458	28295
809.6	28109
809.741	28375
809.883	28348
810.025	28459
810.166	28390
810.308	28512
810.45	28322
810.591	28409
810.733	28249
810.875	28105
811.016	28131
811.158	28029
811.299	28211
811.441	28246
811.582	28124
811.724	28067
811.865	28067
812.007	28006
812.148	28177
812.29	28120
812.431	28242
812.573	28390
812.714	28497
812.855	28698
812.997	28767
813.138	28927
813.279	28782
813.421	28908
813.562	28797
813.703	28500
813.845	28249
813.986	28078
814.127	27907
814.268	27892
814.41	27827
814.551	27743
814.692	27930
814.833	27812
814.974	27934
815.115	27766
815.256	27778
815.397	27682
815.539	27713
815.68	27652
815.821	27576
815.962	27652
816.103	27682
816.244	27614
816.385	27466
816.526	27401
816.666	27214
816.807	27195
816.948	27157
817.089	27256
817.23	27192
817.371	27203
817.512	27237
817.653	27188
817.793	27039
817.934	27138
818.075	27195
818.216	27176
818.356	27173
818.497	26986
818.638	26857
818.778	26899
818.919	26788
819.06	26960
819.2	27184
819.341	27043
819.481	27039
819.622	27298
819.762	27485
819.903	27389
820.043	27344
820.184	27329
820.324	27340
820.465	27287
820.605	27214
820.746	27184
820.886	27100
821.026	27344
821.167	27283
821.307	27294
821.447	27176
821.588	27062
821.728	27020
821.868	26667
822.008	26712
822.149	26663
822.289	26571
822.429	26412
822.569	26450
822.709	26381
822.849	26256
822.99	26244
823.13	26130
823.27	25940
823.41	25913
823.55	25807
823.69	25837
823.83	25982
823.97	25936
824.11	25605
824.25	25746
824.389	25803
824.529	25765
824.669	25864
824.809	25830
824.949	25963
825.089	25887
825.228	25833
825.368	25639
825.508	25445
825.648	25647
825.787	25613
825.927	25727
826.067	25620
826.206	25628
826.346	25780
826.485	25635
826.625	25514
826.765	25700
826.904	25757
827.044	25468
827.183	25449
827.323	25304
827.462	25358
827.601	25365
827.741	25297
827.88	25331
828.02	25301
828.159	25304
828.298	25278
828.437	25381
828.577	25221
828.716	25491
828.855	25346
828.994	25091
829.134	25088
829.273	25228
829.412	25065
829.551	24943
829.69	25107
829.829	25148
829.968	25156
830.107	25088
830.246	25190
830.385	25122
830.524	24958
830.663	24901
830.802	24753
830.941	24681
831.08	24711
831.219	24749
831.357	24658
831.496	24901
831.635	24639
831.774	24658
831.913	24654
832.051	24464
832.19	24467
832.329	24551
832.467	24254
832.606	24235
832.744	24448
832.883	24338
833.022	24277
833.16	24361
833.299	24429
833.437	24422
833.576	24391
833.714	24471
833.852	24376
833.991	24578
834.129	24426
834.267	24426
834.406	24441
834.544	24456
834.682	24505
834.821	24433
834.959	24517
835.097	24426
835.235	24498
835.373	24399
835.511	24243
835.65	24376
835.788	24319
835.926	24254
836.064	24197
836.202	24117
836.34	24121
836.478	24357
836.615	24152
836.753	24205
836.891	24391
837.029	24220
837.167	24213
837.305	24083
837.443	24133
837.58	24106
837.718	24049
837.856	24060
837.993	24087
838.131	24144
838.269	24072
838.406	23977
838.544	24057
838.681	23726
838.819	23627
838.956	23558
839.094	23566
839.231	23524
839.369	23809
839.506	24026
839.643	23836
839.781	23539
839.918	23512
840.055	23474
840.193	23501
840.33	23474
840.467	23573
840.604	23478
840.742	23790
840.879	23311
841.016	23414
841.153	23334
841.29	23566
841.427	23429
841.564	23429
841.701	23543
841.838	23474
841.975	23337
842.112	23421
842.249	23345
842.385	23162
842.522	23414
842.659	23143
842.796	23132
842.933	23242
843.069	23113
843.206	23227
843.343	23296
843.479	23159
843.616	23258
843.752	22965
843.889	23109
844.025	23105
844.162	22869
844.298	23223
844.435	22938
844.571	22984
844.708	23071
844.844	23086
844.98	23132
845.117	23113
845.253	22816
845.389	22949
845.525	22938
845.661	22805
845.798	22615
845.934	22866
846.07	22660
846.206	22713
846.342	22949
846.478	22744
846.614	22531
846.75	22451
846.886	22508
847.022	22478
847.158	22497
847.294	22417
847.429	22542
847.565	22386
847.701	22653
847.837	22204
847.972	22158
848.108	22204
848.244	22253
848.379	22109
848.515	22025
848.65	21975
848.786	22150
848.921	22150
849.057	22215
849.192	22181
849.328	22048
849.463	22082
849.598	22025
849.734	21895
849.869	22036
850.004	21850
850.14	21774
850.275	21861
850.41	21751
850.545	21679
850.68	21698
850.815	21713
850.95	21720
851.085	21941
851.22	22040
851.355	21816
851.49	21876
851.625	21865
851.76	21762
851.895	21587
852.03	21701
852.165	21800
852.299	21819
852.434	21804
852.569	21774
852.703	21800
852.838	21892
852.973	21781
853.107	21934
853.242	21804
853.376	21652
853.511	21637
853.645	21606
853.78	21785
853.914	21690
854.048	21568
854.183	21519
854.317	21705
854.451	21774
854.585	21622
854.72	21576
854.854	21778
854.988	21595
855.122	21717
855.256	21504
855.39	21679
855.524	21690
855.658	21739
855.792	21720
855.926	21644
856.06	21614
856.194	21648
856.327	21690
856.461	21545
856.595	21587
856.729	21656
856.862	21816
856.996	21717
857.13	21800
857.263	21819
857.397	21743
857.53	21610
857.664	21713
857.797	21717
857.931	21762
858.064	21671
858.197	21850
858.331	21542
858.464	21583
858.597	21644
858.731	21644
858.864	21526
858.997	21580
859.13	21629
859.263	21679
859.396	21694
859.529	21694
859.662	21637
859.795	21534
859.928	21690
860.061	21774
860.194	21880
860.327	21572
860.46	21625
860.592	21747
860.725	21850
860.858	21618
860.99	21587
861.123	21561
861.256	21545
861.388	21675
861.521	22394
861.653	21496
861.786	21428
861.918	21549
862.05	21462
862.183	21515
862.315	21507
862.447	21610
862.58	21507
862.712	21431
862.844	21344
862.976	21397
863.108	21389
863.24	21591
863.372	21195
863.504	21393
863.636	21344
863.768	21450
863.9	21386
864.032	21256
864.164	21272
864.296	21370
864.428	21431
864.559	21469
864.691	21302
864.823	21283
864.954	21321
865.086	21256
865.217	21188
865.349	21081
865.48	21218
865.612	21252
865.743	21325
865.875	21431
866.006	21218
866.137	21233
866.269	21291
866.4	21287
866.531	21214
866.662	21089
866.793	21074
866.924	21085
867.055	21188
867.186	21184
867.317	21108
867.448	21142
867.579	21085
867.71	21077
867.841	21036
867.972	21138
868.103	21104
868.233	21131
868.364	21214
868.495	21317
868.625	21389
868.756	21477
868.886	21317
869.017	21443
869.147	21507
869.278	21462
869.408	21473
869.539	21488
869.669	21648
869.799	21386
869.929	21523
870.06	21477
870.19	21603
870.32	21728
870.45	21682
870.58	21865
870.71	21804
870.84	21861
870.97	21629
871.1	21797
871.23	21930
871.36	22021
871.489	21831
871.619	21949
871.749	22032
871.879	22021
872.008	22120
872.138	22078
872.267	21956
872.397	21850
872.526	21743
872.656	21816
872.785	21732
872.915	21949
873.044	22116
873.173	21975
873.303	22067
873.432	22051
873.561	22120
873.69	22021
873.819	22067
873.948	22112
874.077	22032
874.206	21949
874.335	21953
874.464	22070
874.593	22226
874.722	22173
874.851	22246
874.979	22200
875.108	22310
875.237	22204
875.365	22078
875.494	22185
875.623	22257
875.751	22143
875.88	22135
876.008	22306
876.136	22284
876.265	22675
876.393	22664
876.521	22664
876.65	22618
876.778	22596
876.906	22519
877.034	22565
877.162	22603
877.29	22538
877.418	22531
877.546	22462
877.674	22626
877.802	22538
877.93	22592
878.058	22687
878.185	22417
878.313	22451
878.441	22443
878.568	22379
878.696	22516
878.824	22653
878.951	22656
879.079	22607
879.206	22854
879.333	22713
879.461	22717
879.588	22820
879.715	22698
879.842	22835
879.97	22622
880.097	22375
880.224	22485
880.351	22363
880.478	22382
880.605	22299
880.732	22265
880.859	22622
880.986	22360
881.112	22329
881.239	22261
881.366	22158
881.493	22070
881.619	21975
881.746	21903
881.872	22029
881.999	21846
882.125	21922
882.252	21953
882.378	21835
882.505	22010
882.631	21751
882.757	21686
882.883	21682
883.01	21648
883.136	21660
883.262	21481
883.388	21496
883.514	21667
883.64	21622
883.766	21481
883.892	21401
884.018	21477
884.143	21553
884.269	21675
884.395	21367
884.52	21298
884.646	21355
884.772	21279
884.897	21176
885.023	21237
885.148	21378
885.274	21393
885.399	21431
885.524	21249
885.65	21287
885.775	21389
885.9	21165
886.025	21378
886.15	21298
886.275	21249
886.4	21154
886.525	21291
886.65	21268
886.775	21294
886.9	21329
887.025	21458
887.149	21370
887.274	21176
887.399	21043
887.523	21070
887.648	20902
887.773	21074
887.897	21173
888.021	21119
888.146	21013
888.27	21192
888.395	21150
888.519	21093
888.643	21009
888.767	21077
888.891	20948
889.015	20952
889.139	20872
889.263	20842
889.387	20963
889.511	20990
889.635	20986
889.759	20864
889.883	20781
890.006	20902
890.13	20998
890.254	20804
890.377	20754
890.501	20598
890.624	20533
890.748	20579
890.871	20533
890.995	20271
891.118	20450
891.241	20465
891.364	20499
891.488	20480
891.611	20389
891.734	20476
891.857	20423
891.98	20454
892.103	20473
892.226	20434
892.349	20400
892.471	20240
892.594	20336
892.717	20309
892.839	20343
892.962	20267
893.085	20457
893.207	20389
893.33	20225
893.452	20240
893.575	20324
893.697	20351
893.819	20476
893.941	20530
894.064	20480
894.186	20263
894.308	20221
894.43	20423
894.552	20408
894.674	20370
894.796	20214
894.918	20412
895.04	20347
895.161	20419
895.283	20290
895.405	20229
895.526	20358
895.648	20301
895.769	20320
895.891	20233
896.012	20278
896.134	20336
896.255	20275
896.376	20275
896.498	20320
896.619	20438
896.74	20294
896.861	20507
896.982	20613
897.103	20743
897.224	20587
897.345	20480
897.466	20438
897.587	20484
897.708	20629
897.828	20442
897.949	20530
898.07	20358
898.19	20537
898.311	20648
898.431	20469
898.552	20473
898.672	20545
898.792	20587
898.913	20533
899.033	20370
899.153	20343
899.273	20157
899.393	20240
899.513	20278
899.633	20248
899.753	20381
899.873	20191
899.993	20294
900.113	20320
900.232	20259
900.352	20092
900.472	20073
900.591	20050
900.711	20107
900.83	20111
900.95	20119
901.069	20187
901.189	19951
901.308	19674
901.427	19647
901.546	19738
901.665	19795
901.784	19696
901.904	19537
902.023	19388
902.141	19194
902.26	19133
902.379	19320
902.498	19171
902.617	19114
902.735	19183
902.854	19107
902.973	19069
903.091	18840
903.21	18776
903.328	18863
903.446	18730
903.565	18555
903.683	18642
903.801	18441
903.919	18506
904.038	18593
904.156	18426
904.274	18464
904.392	18346
904.51	18327
904.627	18342
904.745	18327
904.863	18357
904.981	18228
905.098	18144
905.216	18121
905.334	18106
905.451	18079
905.569	18060
905.686	18148
905.803	18038
905.921	17882
906.038	17950
906.155	17836
906.272	17726
906.389	17748
906.506	17474
906.623	17512
906.74	17520
906.857	17490
906.974	17501
907.091	17528
907.208	17615
907.324	17554
907.441	17368
907.557	17341
907.674	17292
907.79	17220
907.907	17185
908.023	17250
908.139	17292
908.256	17124
908.372	17105
908.488	17189
908.604	17052
908.72	17048
908.836	17029
908.952	16980
909.068	17014
909.184	17098
909.3	16999
909.415	17071
909.531	17022
909.647	16801
909.762	16812
909.878	16729
909.993	16729
910.108	16691
910.224	16653
910.339	16706
910.454	16618
910.57	16527
910.685	16455
910.8	16717
910.915	16706
911.03	16459
911.145	16386
911.259	16318
911.374	16325
911.489	16234
911.604	16173
911.718	16055
911.833	16105
911.947	15983
912.062	15884
912.176	16013
912.291	15979
912.405	16048
912.519	16234
912.633	16173
912.748	16010
912.862	16002
912.976	15930
913.09	15686
913.204	15816
913.318	15922
913.431	15934
913.545	15915
913.659	15915
913.772	15804
913.886	15709
914	15587
914.113	15831
914.226	15816
914.34	15679
914.453	15587
914.566	15698
914.68	15614
914.793	15500
914.906	15435
915.019	15272
915.132	15218
915.245	15188
915.358	15279
915.47	15279
915.583	15287
915.696	15283
915.809	15435
915.921	15401
916.034	15218
916.146	15089
916.259	15195
916.371	15180
916.483	15192
916.595	15131
916.708	15058
916.82	15047
916.932	15131
917.044	15020
917.156	15089
917.268	14982
917.38	14853
917.491	14956
917.603	14910
917.715	15017
917.826	14963
917.938	14826
918.049	14769
918.161	14830
918.272	14918
918.384	14902
918.495	14823
918.606	14701
918.717	14701
918.828	14610
918.939	14598
919.05	14636
919.161	14610
919.272	14446
919.383	14583
919.494	14720
919.604	14842
919.715	14667
919.826	14556
919.936	14727
920.047	14701
920.157	14678
920.267	14815
920.378	14636
920.488	14492
920.598	14849
920.708	14956
920.818	14777
920.928	14796
921.038	14975
921.148	14807
921.258	14621
921.368	14385
921.477	14362
921.587	14370
921.697	14244
921.806	14358
921.916	14164
922.025	14058
922.134	14024
922.244	13959
922.353	14046
922.462	13879
922.571	13803
922.68	13772
922.789	13655
922.898	13708
923.007	13636
923.116	13715
923.224	13628
923.333	13651
923.442	13411
923.55	13407
923.659	13441
923.767	13445
923.876	13457
923.984	13400
924.092	13308
924.201	13320
924.309	13438
924.417	13350
924.525	13247
924.633	13285
924.741	14043
924.849	13099
924.956	13251
925.064	13061
925.172	12996
925.279	13031
925.387	13046
925.494	13065
925.602	13164
925.709	13057
925.816	12935
925.924	12996
926.031	13076
926.138	12951
926.245	13065
926.352	12939
926.459	13019
926.566	13031
926.673	12962
926.779	12875
926.886	12715
926.993	12585
927.099	12608
927.206	12555
927.312	12612
927.419	12646
927.525	12627
927.631	12585
927.737	12498
927.843	12528
927.95	12357
928.056	12475
928.162	12391
928.267	12433
928.373	13156
928.479	12502
928.585	12296
928.69	12399
928.796	12479
928.901	12296
929.007	12205
929.112	12292
929.218	12304
929.323	12129
929.428	12171
929.533	12243
929.638	12106
929.743	12159
929.848	12190
929.953	12167
930.058	12057
930.163	11832
930.267	11912
930.372	11992
930.477	11798
930.581	11999
930.685	11790
930.79	11775
930.894	11710
930.998	11764
931.103	11863
931.207	11512
931.311	11379
931.415	11330
931.519	11094
931.623	11090
