Data from test_V78500241_703.txt Node
Date: Fri Mar 25 15:14:45 CST 2022
User: usil
Spectrometer: V785-0024
Trigger mode: 0
Integration Time (sec): 4.000000E-1
Scans to average: 1
Nonlinearity correction enabled: false
Boxcar width: 0
Storing dark spectrum: false
XAxis mode: Wavelengths
Number of Pixels in Spectrum: 1024
>>>>>Begin Spectral Data<<<<<
801.071	27888
801.214	27827
801.356	27713
801.499	27606
801.641	27576
801.783	27504
801.926	27587
802.068	27427
802.211	27336
802.353	27351
802.496	27074
802.638	27176
802.78	27211
802.923	27070
803.065	27233
803.208	27112
803.35	27272
803.492	27306
803.635	27500
803.777	27370
803.919	27348
804.061	27618
804.204	27336
804.346	27283
804.488	27477
804.63	27401
804.773	27245
804.915	27348
805.057	27370
805.199	27325
805.341	27424
805.483	27504
805.626	27511
805.768	27256
805.91	27473
806.052	27492
806.194	27382
806.336	27686
806.478	27549
806.62	27496
806.762	27633
806.904	27823
807.046	27975
807.188	27918
807.33	27778
807.472	27968
807.614	27922
807.756	27880
807.898	27770
808.04	27663
808.182	27774
808.324	27800
808.465	27846
808.607	27953
808.749	28090
808.891	28135
809.033	28234
809.174	28299
809.316	28063
809.458	28131
809.6	28230
809.741	28268
809.883	28158
810.025	28413
810.166	28546
810.308	28371
810.45	28329
810.591	28405
810.733	28192
810.875	27991
811.016	28025
811.158	27972
811.299	28246
811.441	28295
811.582	28226
811.724	28196
811.865	28051
812.007	28124
812.148	28162
812.29	28090
812.431	28462
812.573	28409
812.714	28584
812.855	28630
812.997	28763
813.138	28854
813.279	28976
813.421	28668
813.562	28740
813.703	28592
813.845	28394
813.986	28215
814.127	28013
814.268	27888
814.41	27861
814.551	27732
814.692	27770
814.833	27846
814.974	27728
815.115	27781
815.256	27713
815.397	27724
815.539	27717
815.68	27610
815.821	27564
815.962	27663
816.103	27564
816.244	27538
816.385	27405
816.526	27477
816.666	27176
816.807	27180
816.948	27226
817.089	27310
817.23	27237
817.371	27279
817.512	27397
817.653	27226
817.793	27028
817.934	27096
818.075	27112
818.216	27230
818.356	27195
818.497	27036
818.638	26887
818.778	26990
818.919	26944
819.06	27066
819.2	27131
819.341	27173
819.481	27157
819.622	27279
819.762	27435
819.903	27272
820.043	27348
820.184	27420
820.324	27199
820.465	27317
820.605	27291
820.746	27119
820.886	27055
821.026	27275
821.167	27116
821.307	27279
821.447	27249
821.588	27028
821.728	26861
821.868	26693
822.008	26617
822.149	26689
822.289	26564
822.429	26499
822.569	26320
822.709	26286
822.849	26164
822.99	26081
823.13	26107
823.27	26043
823.41	25959
823.55	25795
823.69	25917
823.83	25928
823.97	25909
824.11	25677
824.25	25875
824.389	25753
824.529	25784
824.669	25818
824.809	25940
824.949	25883
825.089	25742
825.228	25868
825.368	25651
825.508	25776
825.648	25571
825.787	25685
825.927	25685
826.067	25639
826.206	25685
826.346	25708
826.485	25655
826.625	25563
826.765	25822
826.904	25609
827.044	25529
827.183	25346
827.323	25327
827.462	25460
827.601	25411
827.741	25324
827.88	25502
828.02	25301
828.159	25358
828.298	25400
828.437	25365
828.577	25183
828.716	25407
828.855	25270
828.994	25168
829.134	24913
829.273	25244
829.412	25069
829.551	24989
829.69	25156
829.829	25114
829.968	25072
830.107	25069
830.246	25129
830.385	24928
830.524	25122
830.663	24829
830.802	24798
830.941	24707
831.08	24604
831.219	24696
831.357	24829
831.496	24909
831.635	24837
831.774	24498
831.913	24429
832.051	24604
832.19	24353
832.329	24399
832.467	24414
832.606	24247
832.744	24319
832.883	24289
833.022	24155
833.16	24353
833.299	24429
833.437	24441
833.576	24429
833.714	24376
833.852	24448
833.991	24407
834.129	24315
834.267	24540
834.406	24517
834.544	24285
834.682	24342
834.821	24384
834.959	24509
835.097	24422
835.235	24479
835.373	24513
835.511	24357
835.65	24228
835.788	24338
835.926	24277
836.064	24098
836.202	24079
836.34	24197
836.478	24327
836.615	24338
836.753	24194
836.891	24213
837.029	24163
837.167	24277
837.305	24319
837.443	24053
837.58	24148
837.718	23942
837.856	23961
837.993	23992
838.131	24026
838.269	23965
838.406	23798
838.544	23893
838.681	23767
838.819	23714
838.956	23463
839.094	23600
839.231	23585
839.369	23703
839.506	23908
839.643	23779
839.781	23543
839.918	23440
840.055	23482
840.193	23497
840.33	23436
840.467	23402
840.604	23531
840.742	23737
840.879	23239
841.016	23440
841.153	23493
841.29	23478
841.427	23353
841.564	23497
841.701	23482
841.838	23360
841.975	23242
842.112	23395
842.249	23113
842.385	23071
842.522	23368
842.659	23216
842.796	23121
842.933	23113
843.069	23094
843.206	23094
843.343	23322
843.479	23200
843.616	23121
843.752	22911
843.889	22976
844.025	23086
844.162	22999
844.298	23113
844.435	23025
844.571	22972
844.708	22908
844.844	23147
844.98	22889
845.117	23208
845.253	22930
845.389	22828
845.525	22869
845.661	22786
845.798	22679
845.934	22854
846.07	22694
846.206	22634
846.342	22869
846.478	22656
846.614	22649
846.75	22443
846.886	22371
847.022	22462
847.158	22386
847.294	22405
847.429	22546
847.565	22417
847.701	22698
847.837	22318
847.972	22025
848.108	22306
848.244	22242
848.379	22101
848.515	22036
848.65	22044
848.786	21968
848.921	21987
849.057	22207
849.192	22139
849.328	22215
849.463	22040
849.598	21956
849.734	21960
849.869	21892
850.004	21857
850.14	21865
850.275	21808
850.41	21793
850.545	21682
850.68	21804
850.815	21747
850.95	21743
851.085	21960
851.22	21800
851.355	21846
851.49	21755
851.625	21698
851.76	21774
851.895	21686
852.03	21812
852.165	21827
852.299	21907
852.434	21838
852.569	21812
852.703	21880
852.838	21812
852.973	21797
853.107	21926
853.242	21641
853.376	21625
853.511	21564
853.645	21485
853.78	21812
853.914	21530
854.048	21652
854.183	21720
854.317	21709
854.451	21682
854.585	21682
854.72	21454
854.854	21675
854.988	21564
855.122	21698
855.256	21542
855.39	21572
855.524	21629
855.658	21694
855.792	21663
855.926	21679
856.06	21663
856.194	21633
856.327	21622
856.461	21549
856.595	21564
856.729	21595
856.862	21671
856.996	21595
857.13	21557
857.263	21838
857.397	21770
857.53	21603
857.664	21591
857.797	21572
857.931	21770
858.064	21618
858.197	21717
858.331	21583
858.464	21705
858.597	21488
858.731	21564
858.864	21652
858.997	21614
859.13	21610
859.263	21614
859.396	21595
859.529	21549
859.662	21496
859.795	21542
859.928	21644
860.061	21774
860.194	21755
860.327	21622
860.46	21587
860.592	21778
860.725	21842
860.858	21679
860.99	21583
861.123	21534
861.256	21553
861.388	21473
861.521	22462
861.653	21500
861.786	21507
861.918	21530
862.05	21481
862.183	21526
862.315	21648
862.447	21526
862.58	21386
862.712	21272
862.844	21306
862.976	21359
863.108	21473
863.24	21644
863.372	21279
863.504	21256
863.636	21245
863.768	21431
863.9	21214
864.032	21233
864.164	21374
864.296	21401
864.428	21458
864.559	21412
864.691	21401
864.823	21306
864.954	21363
865.086	21272
865.217	21241
865.349	21199
865.48	21363
865.612	21252
865.743	21325
865.875	21222
866.006	21146
866.137	21230
866.269	21226
866.4	21119
866.531	21108
866.662	21085
866.793	21154
866.924	21112
867.055	21203
867.186	21100
867.317	21169
867.448	21089
867.579	21047
867.71	21127
867.841	21043
867.972	21005
868.103	21131
868.233	21256
868.364	21081
868.495	21150
868.625	21321
868.756	21477
868.886	21233
869.017	21405
869.147	21401
869.278	21443
869.408	21458
869.539	21275
869.669	21488
869.799	21348
869.929	21405
870.06	21435
870.19	21663
870.32	21698
870.45	21610
870.58	21675
870.71	21781
870.84	21911
870.97	21762
871.1	21861
871.23	21842
871.36	21968
871.489	21975
871.619	21918
871.749	21983
871.879	22040
872.008	22013
872.138	22082
872.267	21964
872.397	21717
872.526	21854
872.656	21823
872.785	21808
872.915	21937
873.044	22090
873.173	22010
873.303	22025
873.432	22082
873.561	22036
873.69	21987
873.819	21975
873.948	22082
874.077	21968
874.206	21907
874.335	22021
874.464	22055
874.593	22200
874.722	22139
874.851	22207
874.979	22226
875.108	22230
875.237	22333
875.365	22147
875.494	22143
875.623	22341
875.751	22230
875.88	22226
876.008	22333
876.136	22272
876.265	22550
876.393	22687
876.521	22649
876.65	22736
876.778	22656
876.906	22622
877.034	22519
877.162	22653
877.29	22542
877.418	22660
877.546	22557
877.674	22565
877.802	22546
877.93	22603
878.058	22573
878.185	22440
878.313	22569
878.441	22424
878.568	22405
878.696	22573
878.824	22588
878.951	22691
879.079	22702
879.206	22927
879.333	22740
879.461	22599
879.588	22687
879.715	22748
879.842	22812
879.97	22599
880.097	22333
880.224	22367
880.351	22348
880.478	22417
880.605	22291
880.732	22402
880.859	22542
880.986	22428
881.112	22386
881.239	22284
881.366	22120
881.493	21926
881.619	21865
881.746	22032
881.872	21968
881.999	21907
882.125	21827
882.252	22029
882.378	21888
882.505	22078
882.631	21797
882.757	21656
882.883	21797
883.01	21572
883.136	21587
883.262	21572
883.388	21481
883.514	21583
883.64	21728
883.766	21656
883.892	21355
884.018	21355
884.143	21553
884.269	21618
884.395	21332
884.52	21268
884.646	21374
884.772	21268
884.897	21169
885.023	21355
885.148	21367
885.274	21462
885.399	21340
885.524	21332
885.65	21405
885.775	21249
885.9	21321
886.025	21424
886.15	21428
886.275	21291
886.4	21081
886.525	21298
886.65	21195
886.775	21199
886.9	21458
887.025	21439
887.149	21222
887.274	21028
887.399	21116
887.523	20990
887.648	21058
887.773	20933
887.897	21157
888.021	21051
888.146	20982
888.27	21112
888.395	21055
888.519	21157
888.643	21070
888.767	21058
888.891	20986
889.015	20807
889.139	20910
889.263	20663
889.387	20975
889.511	21047
889.635	20944
889.759	20804
889.883	20880
890.006	20823
890.13	20868
890.254	20708
890.377	20754
890.501	20716
890.624	20667
890.748	20686
890.871	20465
890.995	20427
891.118	20404
891.241	20408
891.364	20450
891.488	20476
891.611	20454
891.734	20351
891.857	20374
891.98	20446
892.103	20412
892.226	20309
892.349	20351
892.471	20351
892.594	20336
892.717	20351
892.839	20324
892.962	20336
893.085	20275
893.207	20347
893.33	20161
893.452	20225
893.575	20438
893.697	20206
893.819	20438
893.941	20495
894.064	20412
894.186	20290
894.308	20183
894.43	20389
894.552	20526
894.674	20271
894.796	20313
894.918	20202
895.04	20298
895.161	20404
895.283	20408
895.405	20328
895.526	20286
895.648	20355
895.769	20305
895.891	20278
896.012	20442
896.134	20328
896.255	20415
896.376	20275
896.498	20237
896.619	20389
896.74	20336
896.861	20278
896.982	20686
897.103	20773
897.224	20575
897.345	20434
897.466	20457
897.587	20492
897.708	20648
897.828	20480
897.949	20446
898.07	20396
898.19	20385
898.311	20606
898.431	20355
898.552	20571
898.672	20446
898.792	20575
898.913	20735
899.033	20393
899.153	20271
899.273	20259
899.393	20328
899.513	20328
899.633	20294
899.753	20267
899.873	20252
899.993	20298
900.113	20168
900.232	20191
900.352	20035
900.472	20130
900.591	20005
900.711	20039
900.83	19970
900.95	20092
901.069	20107
901.189	19947
901.308	19738
901.427	19605
901.546	19700
901.665	19658
901.784	19651
901.904	19518
902.023	19468
902.141	19206
902.26	19240
902.379	19179
902.498	19187
902.617	19061
902.735	19145
902.854	19156
902.973	18989
903.091	18791
903.21	18837
903.328	18806
903.446	18745
903.565	18684
903.683	18639
903.801	18563
903.919	18502
904.038	18475
904.156	18357
904.274	18372
904.392	18433
904.51	18448
904.627	18319
904.745	18311
904.863	18384
904.981	18121
905.098	18019
905.216	18064
905.334	18079
905.451	18019
905.569	18022
905.686	18045
905.803	17996
905.921	17863
906.038	17897
906.155	17992
906.272	17809
906.389	17775
906.506	17684
906.623	17524
906.74	17532
906.857	17353
906.974	17482
907.091	17638
907.208	17657
907.324	17528
907.441	17471
907.557	17318
907.674	17311
907.79	17280
907.907	17254
908.023	17372
908.139	17220
908.256	17292
908.372	17174
908.488	17113
908.604	17006
908.72	16927
908.836	16957
908.952	16953
909.068	17033
909.184	17117
909.3	17003
909.415	17113
909.531	17022
909.647	16721
909.762	16752
909.878	16679
909.993	16790
910.108	16694
910.224	16694
910.339	16668
910.454	16626
910.57	16508
910.685	16447
910.8	16706
910.915	16569
911.03	16470
911.145	16341
911.259	16322
911.374	16299
911.489	16238
911.604	16169
911.718	16086
911.833	16040
911.947	15956
912.062	15846
912.176	16032
912.291	16013
912.405	15953
912.519	16131
912.633	16154
912.748	16135
912.862	16093
912.976	15835
913.09	15690
913.204	15846
913.318	15873
913.431	15983
913.545	15903
913.659	15884
913.772	15759
913.886	15766
914	15663
914.113	15717
914.226	15709
914.34	15732
914.453	15568
914.566	15587
914.68	15603
914.793	15549
914.906	15310
915.019	15389
915.132	15226
915.245	15180
915.358	15294
915.47	15302
915.583	15291
915.696	15325
915.809	15408
915.921	15298
916.034	15237
916.146	15093
916.259	15146
916.371	15329
916.483	15165
916.595	15074
916.708	15028
916.82	15055
916.932	14967
917.044	15089
917.156	14994
917.268	14933
917.38	14960
917.491	14842
917.603	14880
917.715	14918
917.826	15017
917.938	14861
918.049	14811
918.161	14868
918.272	15013
918.384	14982
918.495	14883
918.606	14769
918.717	14594
918.828	14598
918.939	14655
919.05	14610
919.161	14716
919.272	14480
919.383	14522
919.494	14712
919.604	14758
919.715	14621
919.826	14610
919.936	14629
920.047	14845
920.157	14598
920.267	14781
920.378	14655
920.488	14590
920.598	14842
920.708	14948
920.818	14762
920.928	14720
921.038	14872
921.148	14861
921.258	14579
921.368	14549
921.477	14343
921.587	14358
921.697	14252
921.806	14377
921.916	14218
922.025	14168
922.134	14145
922.244	13936
922.353	14123
922.462	13917
922.571	13936
922.68	13708
922.789	13753
922.898	13700
923.007	13628
923.116	13658
923.224	13651
923.333	13639
923.442	13609
923.55	13518
923.659	13540
923.767	13540
923.876	13472
923.984	13582
924.092	13369
924.201	13457
924.309	13434
924.417	13426
924.525	13343
924.633	13407
924.741	14088
924.849	13240
924.956	13228
925.064	13221
925.172	13061
925.279	13069
925.387	13103
925.494	13023
925.602	13217
925.709	13053
925.816	13065
925.924	13095
926.031	13228
926.138	12989
926.245	13042
926.352	12962
926.459	13042
926.566	13145
926.673	13095
926.779	12863
926.886	12840
926.993	12707
927.099	12601
927.206	12703
927.312	12566
927.419	12738
927.525	12559
927.631	12722
927.737	12517
927.843	12506
927.95	12456
928.056	12445
928.162	12494
928.267	12547
928.373	13183
928.479	12506
928.585	12311
928.69	12437
928.796	12486
928.901	12327
929.007	12239
929.112	12292
929.218	12361
929.323	12251
929.428	12311
929.533	12342
929.638	12182
929.743	12175
929.848	12182
929.953	12110
930.058	12098
930.163	11863
930.267	11908
930.372	12038
930.477	11828
930.581	12030
930.685	11889
930.79	11760
930.894	11771
930.998	11699
931.103	11843
931.207	11448
931.311	11467
931.415	11349
931.519	11094
931.623	11147
