Data from test_V78500241_1398.txt Node
Date: Fri Mar 25 15:19:35 CST 2022
User: usil
Spectrometer: V785-0024
Trigger mode: 0
Integration Time (sec): 4.000000E-1
Scans to average: 1
Nonlinearity correction enabled: false
Boxcar width: 0
Storing dark spectrum: false
XAxis mode: Wavelengths
Number of Pixels in Spectrum: 1024
>>>>>Begin Spectral Data<<<<<
801.071	28223
801.214	28185
801.356	27880
801.499	27926
801.641	27614
801.783	27614
801.926	27819
802.068	27762
802.211	27759
802.353	27679
802.496	27564
802.638	27378
802.78	27359
802.923	27389
803.065	27367
803.208	27393
803.35	27336
803.492	27663
803.635	27564
803.777	27515
803.919	27542
804.061	27953
804.204	27679
804.346	27564
804.488	27454
804.63	27572
804.773	27583
804.915	27724
805.057	27633
805.199	27633
805.341	27583
805.483	27759
805.626	27736
805.768	27747
805.91	27732
806.052	27728
806.194	27739
806.336	28002
806.478	27770
806.62	27793
806.762	27850
806.904	28109
807.046	28211
807.188	28249
807.33	28112
807.472	28314
807.614	28192
807.756	28101
807.898	28032
808.04	28048
808.182	28013
808.324	28082
808.465	28169
808.607	28219
808.749	28257
808.891	28413
809.033	28500
809.174	28394
809.316	28268
809.458	28474
809.6	28337
809.741	28462
809.883	28603
810.025	28713
810.166	28729
810.308	28653
810.45	28645
810.591	28584
810.733	28573
810.875	28344
811.016	28287
811.158	28261
811.299	28481
811.441	28542
811.582	28611
811.724	28409
811.865	28265
812.007	28295
812.148	28428
812.29	28356
812.431	28664
812.573	28847
812.714	28786
812.855	28987
812.997	29037
813.138	29242
813.279	29079
813.421	29064
813.562	28984
813.703	28656
813.845	28653
813.986	28280
814.127	28139
814.268	28226
814.41	28162
814.551	28063
814.692	28238
814.833	28070
814.974	28010
815.115	28196
815.256	28055
815.397	28048
815.539	27991
815.68	27960
815.821	27949
815.962	27983
816.103	27895
816.244	27884
816.385	27701
816.526	27583
816.666	27595
816.807	27443
816.948	27526
817.089	27572
817.23	27488
817.371	27374
817.512	27496
817.653	27329
817.793	27332
817.934	27427
818.075	27504
818.216	27507
818.356	27306
818.497	27348
818.638	27085
818.778	27146
818.919	27294
819.06	27283
819.2	27367
819.341	27420
819.481	27363
819.622	27507
819.762	27732
819.903	27819
820.043	27679
820.184	27496
820.324	27500
820.465	27530
820.605	27458
820.746	27450
820.886	27401
821.026	27488
821.167	27492
821.307	27496
821.447	27443
821.588	27249
821.728	27336
821.868	27089
822.008	26925
822.149	26990
822.289	26785
822.429	26511
822.569	26530
822.709	26404
822.849	26450
822.99	26522
823.13	26503
823.27	26358
823.41	26191
823.55	26001
823.69	26221
823.83	26309
823.97	26153
824.11	26103
824.25	26016
824.389	25963
824.529	26103
824.669	25993
824.809	26237
824.949	26050
825.089	26183
825.228	26077
825.368	25936
825.508	25890
825.648	26016
825.787	25833
825.927	26043
826.067	25909
826.206	25795
826.346	25982
826.485	25944
826.625	25818
826.765	26050
826.904	25925
827.044	25799
827.183	25578
827.323	25704
827.462	25704
827.601	25624
827.741	25582
827.88	25712
828.02	25514
828.159	25567
828.298	25712
828.437	25704
828.577	25445
828.716	25700
828.855	25674
828.994	25411
829.134	25354
829.273	25346
829.412	25346
829.551	25282
829.69	25198
829.829	25365
829.968	25419
830.107	25381
830.246	25343
830.385	25225
830.524	25354
830.663	25103
830.802	25126
830.941	25019
831.08	24920
831.219	25072
831.357	25042
831.496	25164
831.635	24867
831.774	24798
831.913	24783
832.051	24779
832.19	24814
832.329	24711
832.467	24681
832.606	24483
832.744	24475
832.883	24593
833.022	24528
833.16	24593
833.299	24620
833.437	24654
833.576	24779
833.714	24589
833.852	24738
833.991	24635
834.129	24661
834.267	24722
834.406	24608
834.544	24616
834.682	24681
834.821	24719
834.959	24817
835.097	24650
835.235	24700
835.373	24589
835.511	24681
835.65	24566
835.788	24525
835.926	24483
836.064	24254
836.202	24391
836.34	24399
836.478	24536
836.615	24399
836.753	24452
836.891	24448
837.029	24566
837.167	24350
837.305	24429
837.443	24289
837.58	24304
837.718	24372
837.856	24391
837.993	24182
838.131	24418
838.269	24273
838.406	24350
838.544	24197
838.681	23927
838.819	23920
838.956	23710
839.094	23722
839.231	23809
839.369	23840
839.506	24285
839.643	24057
839.781	23878
839.918	23779
840.055	23748
840.193	23748
840.33	23600
840.467	23668
840.604	23752
840.742	23893
840.879	23509
841.016	23634
841.153	23615
841.29	23665
841.427	23783
841.564	23672
841.701	23710
841.838	23486
841.975	23497
842.112	23528
842.249	23417
842.385	23459
842.522	23562
842.659	23398
842.796	23368
842.933	23520
843.069	23356
843.206	23425
843.343	23425
843.479	23387
843.616	23337
843.752	23231
843.889	23231
844.025	23360
844.162	23292
844.298	23178
844.435	23220
844.571	23113
844.708	23159
844.844	23436
844.98	23334
845.117	23315
845.253	23124
845.389	23159
845.525	23052
845.661	23132
845.798	22965
845.934	23006
846.07	22900
846.206	23018
846.342	23003
846.478	22839
846.614	22736
846.75	22668
846.886	22710
847.022	22698
847.158	22675
847.294	22805
847.429	22736
847.565	22767
847.701	22900
847.837	22542
847.972	22409
848.108	22557
848.244	22485
848.379	22268
848.515	22287
848.65	22204
848.786	22352
848.921	22238
849.057	22299
849.192	22470
849.328	22360
849.463	22356
849.598	22185
849.734	22200
849.869	22120
850.004	22013
850.14	22124
850.275	22124
850.41	21888
850.545	22093
850.68	22093
850.815	21918
850.95	22021
851.085	22226
851.22	22162
851.355	22021
851.49	22002
851.625	21941
851.76	22006
851.895	21937
852.03	21869
852.165	22078
852.299	22036
852.434	22006
852.569	22021
852.703	21964
852.838	22204
852.973	22101
853.107	22082
853.242	21846
853.376	21743
853.511	21751
853.645	21751
853.78	21911
853.914	21949
854.048	21766
854.183	21804
854.317	21838
854.451	21983
854.585	21888
854.72	21789
854.854	21934
854.988	21873
855.122	21838
855.256	21838
855.39	21915
855.524	21960
855.658	21827
855.792	21892
855.926	21869
856.06	21857
856.194	21991
856.327	21994
856.461	21793
856.595	21804
856.729	21956
856.862	22032
856.996	21880
857.13	21835
857.263	21972
857.397	21937
857.53	21857
857.664	21861
857.797	21857
857.931	21922
858.064	21804
858.197	21960
858.331	21842
858.464	21808
858.597	21789
858.731	21804
858.864	21793
858.997	21698
859.13	21899
859.263	21907
859.396	21808
859.529	21846
859.662	21747
859.795	21789
859.928	21983
860.061	21884
860.194	22082
860.327	21987
860.46	21816
860.592	21968
860.725	21983
860.858	21991
860.99	21930
861.123	21762
861.256	21785
861.388	21781
861.521	22466
861.653	21835
861.786	21648
861.918	21610
862.05	21793
862.183	21637
862.315	21797
862.447	21835
862.58	21755
862.712	21603
862.844	21428
862.976	21667
863.108	21397
863.24	21838
863.372	21447
863.504	21401
863.636	21511
863.768	21564
863.9	21504
864.032	21496
864.164	21488
864.296	21526
864.428	21709
864.559	21599
864.691	21557
864.823	21526
864.954	21511
865.086	21591
865.217	21496
865.349	21275
865.48	21363
865.612	21447
865.743	21447
865.875	21378
866.006	21405
866.137	21416
866.269	21378
866.4	21405
866.531	21431
866.662	21272
866.793	21363
866.924	21447
867.055	21405
867.186	21412
867.317	21401
867.448	21389
867.579	21348
867.71	21367
867.841	21222
867.972	21393
868.103	21317
868.233	21382
868.364	21116
868.495	21439
868.625	21557
868.756	21564
868.886	21420
869.017	21671
869.147	21846
869.278	21679
869.408	21679
869.539	21743
869.669	21747
869.799	21542
869.929	21762
870.06	21728
870.19	21949
870.32	21770
870.45	21941
870.58	22006
870.71	22131
870.84	22063
870.97	21941
871.1	22051
871.23	22109
871.36	22070
871.489	22223
871.619	22128
871.749	22093
871.879	22215
872.008	22238
872.138	22272
872.267	22200
872.397	22055
872.526	21873
872.656	21926
872.785	22040
872.915	22181
873.044	22215
873.173	22276
873.303	22348
873.432	22211
873.561	22344
873.69	22348
873.819	22169
873.948	22223
874.077	22257
874.206	22223
874.335	22276
874.464	22356
874.593	22478
874.722	22375
874.851	22474
874.979	22519
875.108	22500
875.237	22409
875.365	22329
875.494	22478
875.623	22538
875.751	22276
875.88	22363
876.008	22485
876.136	22637
876.265	22885
876.393	22778
876.521	22847
876.65	22850
876.778	22820
876.906	22736
877.034	22809
877.162	22805
877.29	22717
877.418	22786
877.546	22694
877.674	22763
877.802	22748
877.93	22687
878.058	22729
878.185	22660
878.313	22725
878.441	22809
878.568	22538
878.696	22634
878.824	22752
878.951	22774
879.079	23018
879.206	23098
879.333	22900
879.461	22767
879.588	22892
879.715	22885
879.842	23003
879.97	22835
880.097	22584
880.224	22542
880.351	22649
880.478	22557
880.605	22584
880.732	22615
880.859	22790
880.986	22538
881.112	22599
881.239	22421
881.366	22421
881.493	22166
881.619	22150
881.746	22143
881.872	22154
881.999	22147
882.125	22082
882.252	22211
882.378	22196
882.505	22287
882.631	22086
882.757	21781
882.883	22044
883.01	21842
883.136	21793
883.262	21751
883.388	21553
883.514	21953
883.64	21857
883.766	21797
883.892	21603
884.018	21759
884.143	21766
884.269	21766
884.395	21511
884.52	21378
884.646	21610
884.772	21473
884.897	21355
885.023	21378
885.148	21405
885.274	21633
885.399	21549
885.524	21580
885.65	21336
885.775	21420
885.9	21416
886.025	21625
886.15	21515
886.275	21389
886.4	21382
886.525	21428
886.65	21435
886.775	21412
886.9	21610
887.025	21629
887.149	21351
887.274	21241
887.399	21317
887.523	21195
887.648	21157
887.773	21116
887.897	21291
888.021	21329
888.146	21123
888.27	21302
888.395	21397
888.519	21226
888.643	21378
888.767	21283
888.891	21222
889.015	20967
889.139	21058
889.263	21066
889.387	21192
889.511	21264
889.635	21131
889.759	21001
889.883	21100
890.006	20952
890.13	21020
890.254	20979
890.377	21024
890.501	20864
890.624	20857
890.748	20754
890.871	20720
890.995	20629
891.118	20461
891.241	20636
891.364	20556
891.488	20613
891.611	20552
891.734	20541
891.857	20583
891.98	20518
892.103	20545
892.226	20606
892.349	20530
892.471	20374
892.594	20457
892.717	20629
892.839	20476
892.962	20469
893.085	20533
893.207	20495
893.33	20450
893.452	20450
893.575	20564
893.697	20522
893.819	20602
893.941	20663
894.064	20686
894.186	20271
894.308	20370
894.43	20648
894.552	20674
894.674	20590
894.796	20355
894.918	20396
895.04	20465
895.161	20549
895.283	20632
895.405	20419
895.526	20419
895.648	20484
895.769	20431
895.891	20499
896.012	20636
896.134	20583
896.255	20552
896.376	20298
896.498	20503
896.619	20492
896.74	20526
896.861	20507
896.982	20712
897.103	20788
897.224	20849
897.345	20735
897.466	20644
897.587	20727
897.708	20807
897.828	20689
897.949	20629
898.07	20415
898.19	20602
898.311	20743
898.431	20746
898.552	20644
898.672	20659
898.792	20720
898.913	20648
899.033	20530
899.153	20492
899.273	20332
899.393	20438
899.513	20465
899.633	20484
899.753	20419
899.873	20259
899.993	20518
900.113	20370
900.232	20309
900.352	20290
900.472	20267
900.591	20168
900.711	20305
900.83	20149
900.95	20286
901.069	20294
901.189	20122
901.308	19928
901.427	19902
901.546	19715
901.665	19833
901.784	19852
901.904	19620
902.023	19571
902.141	19327
902.26	19411
902.379	19339
902.498	19358
902.617	19293
902.735	19362
902.854	19236
902.973	19263
903.091	18897
903.21	18973
903.328	18985
903.446	18890
903.565	18764
903.683	18787
903.801	18669
903.919	18772
904.038	18700
904.156	18498
904.274	18650
904.392	18597
904.51	18448
904.627	18570
904.745	18616
904.863	18559
904.981	18308
905.098	18076
905.216	18098
905.334	18300
905.451	18110
905.569	18178
905.686	18285
905.803	18190
905.921	18019
906.038	18003
906.155	17863
906.272	17889
906.389	17866
906.506	17745
906.623	17737
906.74	17718
906.857	17661
906.974	17642
907.091	17843
907.208	17946
907.324	17661
907.441	17665
907.557	17463
907.674	17364
907.79	17421
907.907	17360
908.023	17417
908.139	17429
908.256	17311
908.372	17197
908.488	17284
908.604	17261
908.72	17105
908.836	17102
908.952	17185
909.068	17060
909.184	17364
909.3	17151
909.415	17189
909.531	17170
909.647	16919
909.762	16923
909.878	16790
909.993	16873
910.108	16801
910.224	16862
910.339	16809
910.454	16675
910.57	16721
910.685	16573
910.8	16805
910.915	16748
911.03	16649
911.145	16421
911.259	16474
911.374	16421
911.489	16462
911.604	16261
911.718	16093
911.833	16318
911.947	16063
912.062	15964
912.176	16215
912.291	16120
912.405	16200
912.519	16363
912.633	16390
912.748	16173
912.862	16105
912.976	15972
913.09	16032
913.204	15926
913.318	15956
913.431	16071
913.545	16090
913.659	16010
913.772	16002
913.886	15941
914	15808
914.113	15865
914.226	15880
914.34	15804
914.453	15648
914.566	15816
914.68	15701
914.793	15663
914.906	15469
915.019	15370
915.132	15355
915.245	15317
915.358	15405
915.47	15458
915.583	15329
915.696	15378
915.809	15515
915.921	15523
916.034	15389
916.146	15310
916.259	15260
916.371	15344
916.483	15325
916.595	15275
916.708	15195
916.82	15241
916.932	15195
917.044	15169
917.156	15077
917.268	15005
917.38	15043
917.491	14975
917.603	15085
917.715	15093
917.826	15104
917.938	14975
918.049	14796
918.161	14960
918.272	15108
918.384	15089
918.495	14960
918.606	14861
918.717	14830
918.828	14906
918.939	14910
919.05	14735
919.161	14743
919.272	14533
919.383	14640
919.494	14785
919.604	14990
919.715	14762
919.826	14705
919.936	14705
920.047	14796
920.157	14743
920.267	14902
920.378	14777
920.488	14743
920.598	15001
920.708	14971
920.818	14887
920.928	14861
921.038	15051
921.148	14971
921.258	14712
921.368	14594
921.477	14400
921.587	14347
921.697	14366
921.806	14419
921.916	14259
922.025	14210
922.134	14054
922.244	14031
922.353	14126
922.462	14027
922.571	13871
922.68	13833
922.789	13742
922.898	13780
923.007	13727
923.116	13841
923.224	13639
923.333	13772
923.442	13616
923.55	13537
923.659	13571
923.767	13677
923.876	13578
923.984	13651
924.092	13594
924.201	13506
924.309	13400
924.417	13487
924.525	13392
924.633	13460
924.741	14145
924.849	13175
924.956	13354
925.064	13171
925.172	13110
925.279	13164
925.387	13194
925.494	13126
925.602	13270
925.709	13285
925.816	13069
925.924	13129
926.031	13099
926.138	13088
926.245	12989
926.352	12970
926.459	13069
926.566	13168
926.673	12958
926.779	12913
926.886	12863
926.993	12772
927.099	12749
927.206	12646
927.312	12597
927.419	12692
927.525	12741
927.631	12734
927.737	12601
927.843	12563
927.95	12426
928.056	12547
928.162	12563
928.267	12559
928.373	13179
928.479	12559
928.585	12399
928.69	12483
928.796	12509
928.901	12456
929.007	12323
929.112	12380
929.218	12407
929.323	12258
929.428	12243
929.533	12369
929.638	12144
929.743	12163
929.848	12178
929.953	12224
930.058	12083
930.163	11874
930.267	11927
930.372	12030
930.477	11889
930.581	12106
930.685	12030
930.79	11817
930.894	11798
930.998	11779
931.103	11927
931.207	11608
931.311	11459
931.415	11455
931.519	11208
931.623	11193
