Data from test_V78500241_2412.txt Node
Date: Fri Mar 25 15:26:39 CST 2022
User: usil
Spectrometer: V785-0024
Trigger mode: 0
Integration Time (sec): 4.000000E-1
Scans to average: 1
Nonlinearity correction enabled: false
Boxcar width: 0
Storing dark spectrum: false
XAxis mode: Wavelengths
Number of Pixels in Spectrum: 1024
>>>>>Begin Spectral Data<<<<<
801.071	27192
801.214	27157
801.356	26899
801.499	26777
801.641	26758
801.783	26754
801.926	26769
802.068	26541
802.211	26693
802.353	26533
802.496	26423
802.638	26469
802.78	26282
802.923	26164
803.065	26229
803.208	26206
803.35	26225
803.492	26358
803.635	26579
803.777	26431
803.919	26473
804.061	26842
804.204	26492
804.346	26389
804.488	26400
804.63	26461
804.773	26412
804.915	26434
805.057	26648
805.199	26514
805.341	26488
805.483	26594
805.626	26651
805.768	26518
805.91	26556
806.052	26632
806.194	26530
806.336	26743
806.478	26663
806.62	26552
806.762	26731
806.904	26842
807.046	27009
807.188	26948
807.33	27058
807.472	27039
807.614	27047
807.756	26990
807.898	26838
808.04	26769
808.182	26724
808.324	26914
808.465	26895
808.607	27146
808.749	27230
808.891	27302
809.033	27317
809.174	27256
809.316	27028
809.458	27138
809.6	27245
809.741	27272
809.883	27313
810.025	27443
810.166	27427
810.308	27431
810.45	27405
810.591	27313
810.733	27188
810.875	27131
811.016	27104
811.158	27013
811.299	27176
811.441	27340
811.582	27203
811.724	27100
811.865	27138
812.007	27077
812.148	27222
812.29	27173
812.431	27348
812.573	27336
812.714	27526
812.855	27572
812.997	27789
813.138	28082
813.279	27789
813.421	27755
813.562	27606
813.703	27439
813.845	27344
813.986	27077
814.127	26933
814.268	26918
814.41	26906
814.551	26705
814.692	26765
814.833	26781
814.974	26868
815.115	26838
815.256	26765
815.397	26693
815.539	26746
815.68	26594
815.821	26648
815.962	26568
816.103	26625
816.244	26571
816.385	26343
816.526	26347
816.666	26256
816.807	26031
816.948	26172
817.089	26191
817.23	26058
817.371	26191
817.512	26062
817.653	26039
817.793	26100
817.934	26161
818.075	26206
818.216	26024
818.356	26081
818.497	26024
818.638	25784
818.778	25791
818.919	25849
819.06	25890
819.2	25993
819.341	26012
819.481	26122
819.622	26187
819.762	26446
819.903	26339
820.043	26202
820.184	26081
820.324	26138
820.465	26244
820.605	26084
820.746	26138
820.886	26077
821.026	26191
821.167	26206
821.307	26210
821.447	25997
821.588	26115
821.728	25852
821.868	25651
822.008	25601
822.149	25647
822.289	25556
822.429	25358
822.569	25282
822.709	25152
822.849	25091
822.99	25148
823.13	25076
823.27	25012
823.41	24943
823.55	24745
823.69	24970
823.83	24878
823.97	24791
824.11	24776
824.25	24772
824.389	24734
824.529	24776
824.669	24650
824.809	24894
824.949	24741
825.089	24738
825.228	24722
825.368	24532
825.508	24639
825.648	24563
825.787	24513
825.927	24681
826.067	24433
826.206	24544
826.346	24601
826.485	24703
826.625	24582
826.765	24703
826.904	24528
827.044	24361
827.183	24365
827.323	24186
827.462	24407
827.601	24254
827.741	24262
827.88	24289
828.02	24140
828.159	24182
828.298	24251
828.437	24311
828.577	24197
828.716	24270
828.855	24178
828.994	24129
829.134	23961
829.273	24083
829.412	23870
829.551	23942
829.69	23904
829.829	24041
829.968	24133
830.107	24041
830.246	24003
830.385	23821
830.524	23855
830.663	23840
830.802	23748
830.941	23512
831.08	23589
831.219	23665
831.357	23729
831.496	23828
831.635	23684
831.774	23520
831.913	23398
832.051	23410
832.19	23406
832.329	23455
832.467	23383
832.606	23235
832.744	23318
832.883	23402
833.022	23227
833.16	23299
833.299	23372
833.437	23337
833.576	23353
833.714	23398
833.852	23417
833.991	23376
834.129	23471
834.267	23421
834.406	23277
834.544	23398
834.682	23322
834.821	23334
834.959	23493
835.097	23307
835.235	23417
835.373	23227
835.511	23330
835.65	23162
835.788	23178
835.926	22991
836.064	22961
836.202	23029
836.34	23143
836.478	23227
836.615	23109
836.753	23189
836.891	23273
837.029	23181
837.167	23140
837.305	23113
837.443	23048
837.58	23090
837.718	23041
837.856	23006
837.993	22908
838.131	22911
838.269	22927
838.406	23048
838.544	22767
838.681	22774
838.819	22645
838.956	22485
839.094	22474
839.231	22569
839.369	22721
839.506	22828
839.643	22847
839.781	22466
839.918	22443
840.055	22489
840.193	22519
840.33	22413
840.467	22402
840.604	22447
840.742	22660
840.879	22325
841.016	22261
841.153	22375
841.29	22474
841.427	22386
841.564	22424
841.701	22363
841.838	22432
841.975	22204
842.112	22219
842.249	22322
842.385	22090
842.522	22371
842.659	22192
842.796	22196
842.933	22223
843.069	22082
843.206	22128
843.343	22097
843.479	22181
843.616	22223
843.752	22013
843.889	22006
844.025	22177
844.162	21926
844.298	22067
844.435	21895
844.571	21903
844.708	22010
844.844	22093
844.98	22223
845.117	22055
845.253	22021
845.389	21865
845.525	21793
845.661	21808
845.798	21789
845.934	21728
846.07	21690
846.206	21770
846.342	21831
846.478	21690
846.614	21568
846.75	21363
846.886	21549
847.022	21561
847.158	21439
847.294	21428
847.429	21374
847.565	21435
847.701	21660
847.837	21252
847.972	21081
848.108	21310
848.244	21264
848.379	21062
848.515	21020
848.65	21017
848.786	21051
848.921	20967
849.057	21157
849.192	21180
849.328	21237
849.463	20960
849.598	20910
849.734	20979
849.869	20899
850.004	20796
850.14	20842
850.275	20765
850.41	20731
850.545	20830
850.68	20868
850.815	20857
850.95	20739
851.085	20906
851.22	20914
851.355	20872
851.49	20743
851.625	20716
851.76	20811
851.895	20708
852.03	20629
852.165	20788
852.299	20876
852.434	20849
852.569	20811
852.703	20777
852.838	20872
852.973	20853
853.107	20925
853.242	20762
853.376	20621
853.511	20541
853.645	20564
853.78	20659
853.914	20689
854.048	20609
854.183	20720
854.317	20670
854.451	20902
854.585	20697
854.72	20629
854.854	20670
854.988	20541
855.122	20575
855.256	20629
855.39	20541
855.524	20739
855.658	20697
855.792	20655
855.926	20552
856.06	20750
856.194	20785
856.327	20606
856.461	20632
856.595	20560
856.729	20686
856.862	20701
856.996	20823
857.13	20545
857.263	20720
857.397	20739
857.53	20724
857.664	20632
857.797	20640
857.931	20693
858.064	20499
858.197	20697
858.331	20644
858.464	20598
858.597	20579
858.731	20579
858.864	20632
858.997	20621
859.13	20583
859.263	20617
859.396	20731
859.529	20503
859.662	20655
859.795	20511
859.928	20518
860.061	20735
860.194	20861
860.327	20724
860.46	20663
860.592	20792
860.725	20792
860.858	20686
860.99	20724
861.123	20670
861.256	20446
861.388	20579
861.521	21131
861.653	20480
861.786	20499
861.918	20457
862.05	20480
862.183	20514
862.315	20644
862.447	20606
862.58	20564
862.712	20355
862.844	20412
862.976	20362
863.108	20499
863.24	20682
863.372	20370
863.504	20263
863.636	20286
863.768	20286
863.9	20362
864.032	20324
864.164	20278
864.296	20339
864.428	20374
864.559	20427
864.691	20457
864.823	20355
864.954	20290
865.086	20275
865.217	20195
865.349	20240
865.48	20313
865.612	20286
865.743	20412
865.875	20324
866.006	20187
866.137	20332
866.269	20252
866.4	20218
866.531	20199
866.662	20145
866.793	20119
866.924	20351
867.055	20248
867.186	20240
867.317	20195
867.448	20142
867.579	20168
867.71	20054
867.841	20145
867.972	20218
868.103	20115
868.233	20130
868.364	20271
868.495	20256
868.625	20419
868.756	20552
868.886	20385
869.017	20442
869.147	20587
869.278	20602
869.408	20446
869.539	20434
869.669	20457
869.799	20537
869.929	20594
870.06	20552
870.19	20735
870.32	20731
870.45	20815
870.58	20826
870.71	20838
870.84	20864
870.97	20739
871.1	20785
871.23	20929
871.36	20982
871.489	20971
871.619	20925
871.749	21070
871.879	21104
872.008	21135
872.138	21036
872.267	20963
872.397	20838
872.526	20895
872.656	20895
872.785	20777
872.915	21100
873.044	20963
873.173	21036
873.303	21089
873.432	21096
873.561	21142
873.69	21036
873.819	21100
873.948	21123
874.077	20990
874.206	20906
874.335	21066
874.464	21184
874.593	21416
874.722	21218
874.851	21367
874.979	21283
875.108	21332
875.237	21154
875.365	21161
875.494	21192
875.623	21367
875.751	21226
875.88	21332
876.008	21374
876.136	21412
876.265	21572
876.393	21732
876.521	21797
876.65	21705
876.778	21637
876.906	21648
877.034	21717
877.162	21701
877.29	21667
877.418	21641
877.546	21648
877.674	21633
877.802	21652
877.93	21694
878.058	21557
878.185	21526
878.313	21561
878.441	21549
878.568	21534
878.696	21591
878.824	21637
878.951	21633
879.079	21827
879.206	21869
879.333	21945
879.461	21759
879.588	21770
879.715	21747
879.842	21892
879.97	21717
880.097	21549
880.224	21405
880.351	21447
880.478	21401
880.605	21408
880.732	21492
880.859	21732
880.986	21568
881.112	21549
881.239	21355
881.366	21074
881.493	21241
881.619	21070
881.746	21142
881.872	20998
881.999	21127
882.125	21039
882.252	20986
882.378	21024
882.505	21085
882.631	20937
882.757	20861
882.883	20861
883.01	20720
883.136	20701
883.262	20625
883.388	20587
883.514	20788
883.64	20868
883.766	20674
883.892	20522
884.018	20606
884.143	20629
884.269	20651
884.395	20526
884.52	20408
884.646	20377
884.772	20423
884.897	20377
885.023	20400
885.148	20549
885.274	20537
885.399	20476
885.524	20374
885.65	20282
885.775	20339
885.9	20377
886.025	20625
886.15	20480
886.275	20404
886.4	20309
886.525	20389
886.65	20309
886.775	20317
886.9	20514
887.025	20625
887.149	20377
887.274	20343
887.399	20218
887.523	20195
887.648	20126
887.773	20046
887.897	20252
888.021	20210
888.146	20119
888.27	20290
888.395	20339
888.519	20142
888.643	20164
888.767	20233
888.891	20062
889.015	19982
889.139	20039
889.263	19974
889.387	20142
889.511	20240
889.635	20126
889.759	19921
889.883	19944
890.006	20039
890.13	20054
890.254	19936
890.377	19917
890.501	19864
890.624	19776
890.748	19715
890.871	19784
890.995	19609
891.118	19521
891.241	19605
891.364	19567
891.488	19738
891.611	19643
891.734	19548
891.857	19845
891.98	19601
892.103	19590
892.226	19681
892.349	19586
892.471	19384
892.594	19533
892.717	19426
892.839	19495
892.962	19491
893.085	19590
893.207	19502
893.33	19388
893.452	19460
893.575	19472
893.697	19651
893.819	19750
893.941	19753
894.064	19624
894.186	19514
894.308	19434
894.43	19616
894.552	19685
894.674	19594
894.796	19377
894.918	19438
895.04	19620
895.161	19571
895.283	19556
895.405	19453
895.526	19639
895.648	19575
895.769	19571
895.891	19525
896.012	19670
896.134	19647
896.255	19575
896.376	19491
896.498	19624
896.619	19609
896.74	19609
896.861	19525
896.982	19955
897.103	20027
897.224	19830
897.345	19772
897.466	19757
897.587	19776
897.708	19753
897.828	19731
897.949	19731
898.07	19544
898.19	19784
898.311	19864
898.431	19734
898.552	19696
898.672	19864
898.792	19795
898.913	19757
899.033	19586
899.153	19552
899.273	19540
899.393	19468
899.513	19510
899.633	19457
899.753	19544
899.873	19441
899.993	19502
900.113	19419
900.232	19510
900.352	19384
900.472	19445
900.591	19274
900.711	19373
900.83	19236
900.95	19419
901.069	19335
901.189	19152
901.308	18954
901.427	19000
901.546	18901
901.665	18943
901.784	18833
901.904	18688
902.023	18688
902.141	18448
902.26	18426
902.379	18486
902.498	18399
902.617	18429
902.735	18475
902.854	18433
902.973	18262
903.091	18053
903.21	18060
903.328	17996
903.446	18053
903.565	17878
903.683	17821
903.801	17821
903.919	17863
904.038	17863
904.156	17718
904.274	17764
904.392	17646
904.51	17573
904.627	17672
904.745	17710
904.863	17703
904.981	17490
905.098	17341
905.216	17284
905.334	17364
905.451	17391
905.569	17265
905.686	17379
905.803	17341
905.921	17086
906.038	17265
906.155	17204
906.272	17010
906.389	17105
906.506	16942
906.623	16892
906.74	16713
906.857	16763
906.974	16748
907.091	16911
907.208	16968
907.324	16976
907.441	16831
907.557	16752
907.674	16672
907.79	16580
907.907	16672
908.023	16672
908.139	16637
908.256	16523
908.372	16500
908.488	16531
908.604	16356
908.72	16272
908.836	16405
908.952	16295
909.068	16386
909.184	16531
909.3	16272
909.415	16314
909.531	16310
909.647	16086
909.762	16025
909.878	16032
909.993	16086
910.108	16010
910.224	15983
910.339	16090
910.454	15861
910.57	15857
910.685	15808
910.8	16002
910.915	16059
911.03	15850
911.145	15629
911.259	15652
911.374	15660
911.489	15496
911.604	15458
911.718	15477
911.833	15370
911.947	15298
912.062	15218
912.176	15291
912.291	15485
912.405	15408
912.519	15485
912.633	15606
912.748	15348
912.862	15287
912.976	15195
913.09	15256
913.204	15123
913.318	15150
913.431	15355
913.545	15283
913.659	15363
913.772	15173
913.886	15009
914	15013
914.113	15157
914.226	15203
914.34	15207
914.453	14956
914.566	15085
914.68	14921
914.793	14811
914.906	14735
915.019	14644
915.132	14575
915.245	14625
915.358	14629
915.47	14716
915.583	14686
915.696	14663
915.809	14811
915.921	14670
916.034	14621
916.146	14598
916.259	14488
916.371	14598
916.483	14610
916.595	14541
916.708	14507
916.82	14442
916.932	14412
917.044	14488
917.156	14404
917.268	14336
917.38	14358
917.491	14290
917.603	14305
917.715	14385
917.826	14442
917.938	14259
918.049	14199
918.161	14309
918.272	14427
918.384	14362
918.495	14267
918.606	14130
918.717	14031
918.828	14142
918.939	14218
919.05	13963
919.161	14035
919.272	13864
919.383	13947
919.494	14134
919.604	14225
919.715	14073
919.826	14035
919.936	13993
920.047	14195
920.157	14073
920.267	14328
920.378	14039
920.488	14027
920.598	14107
920.708	14351
920.818	14229
920.928	14202
921.038	14355
921.148	14324
921.258	14062
921.368	13989
921.477	13936
921.587	13788
921.697	13666
921.806	13750
921.916	13655
922.025	13506
922.134	13533
922.244	13445
922.353	13483
922.462	13324
922.571	13304
922.68	13080
922.789	13141
922.898	13183
923.007	13126
923.116	13084
923.224	13164
923.333	13072
923.442	13046
923.55	12916
923.659	12973
923.767	12993
923.876	12852
923.984	12996
924.092	12806
924.201	12901
924.309	12859
924.417	12859
924.525	12703
924.633	12878
924.741	13712
924.849	12566
924.956	12681
925.064	12532
925.172	12566
925.279	12604
925.387	12585
925.494	12544
925.602	12593
925.709	12631
925.816	12521
925.924	12494
926.031	12582
926.138	12460
926.245	12570
926.352	12429
926.459	12517
926.566	12536
926.673	12384
926.779	12315
926.886	12308
926.993	12117
927.099	12159
927.206	12110
927.312	12098
927.419	12148
927.525	12148
927.631	12197
927.737	12034
927.843	11980
927.95	11958
928.056	11980
928.162	11935
928.267	12038
928.373	12506
928.479	12022
928.585	11756
928.69	11904
928.796	11939
928.901	11745
929.007	11710
929.112	11840
929.218	11805
929.323	11737
929.428	11630
929.533	11809
929.638	11657
929.743	11642
929.848	11726
929.953	11688
930.058	11539
930.163	11379
930.267	11444
930.372	11505
930.477	11307
930.581	11589
930.685	11528
930.79	11277
930.894	11299
930.998	11265
931.103	11429
931.207	11071
931.311	10946
931.415	10889
931.519	10656
931.623	10710
