Data from test_V78500241_87.txt Node
Date: Fri Mar 25 15:10:28 CST 2022
User: usil
Spectrometer: V785-0024
Trigger mode: 0
Integration Time (sec): 4.000000E-1
Scans to average: 1
Nonlinearity correction enabled: false
Boxcar width: 0
Storing dark spectrum: false
XAxis mode: Wavelengths
Number of Pixels in Spectrum: 1024
>>>>>Begin Spectral Data<<<<<
801.071	28626
801.214	28653
801.356	28440
801.499	28341
801.641	28219
801.783	28230
801.926	28112
802.068	28063
802.211	28010
802.353	27991
802.496	27717
802.638	27869
802.78	27857
802.923	27682
803.065	27572
803.208	27580
803.35	27770
803.492	27888
803.635	27918
803.777	27762
803.919	27895
804.061	28261
804.204	27907
804.346	27857
804.488	27747
804.63	27819
804.773	27595
804.915	27751
805.057	27903
805.199	27857
805.341	27808
805.483	27899
805.626	27835
805.768	27846
805.91	28063
806.052	27972
806.194	27865
806.336	28082
806.478	28017
806.62	27842
806.762	27960
806.904	28063
807.046	28466
807.188	28284
807.33	28310
807.472	28352
807.614	28219
807.756	28303
807.898	28044
808.04	28074
808.182	28044
808.324	28158
808.465	28090
808.607	28242
808.749	28322
808.891	28386
809.033	28569
809.174	28470
809.316	28481
809.458	28523
809.6	28371
809.741	28508
809.883	28535
810.025	28542
810.166	28546
810.308	28713
810.45	28538
810.591	28485
810.733	28466
810.875	28371
811.016	28371
811.158	28177
811.299	28394
811.441	28356
811.582	28333
811.724	28257
811.865	28363
812.007	28314
812.148	28284
812.29	28432
812.431	28413
812.573	28721
812.714	28755
812.855	28710
812.997	28797
813.138	29124
813.279	28961
813.421	28949
813.562	28927
813.703	28615
813.845	28577
813.986	28348
814.127	27983
814.268	27930
814.41	27907
814.551	27819
814.692	28192
814.833	28021
814.974	27998
815.115	27888
815.256	27907
815.397	27781
815.539	27835
815.68	27766
815.821	27637
815.962	27785
816.103	27694
816.244	27477
816.385	27462
816.526	27450
816.666	27199
816.807	27123
816.948	27310
817.089	27325
817.23	27218
817.371	27154
817.512	27199
817.653	27135
817.793	27017
817.934	27116
818.075	27169
818.216	27203
818.356	27005
818.497	26842
818.638	26819
818.778	26906
818.919	26781
819.06	26815
819.2	26979
819.341	26963
819.481	26880
819.622	27085
819.762	27359
819.903	27272
820.043	27313
820.184	27085
820.324	27116
820.465	27154
820.605	27009
820.746	27093
820.886	27028
821.026	27116
821.167	26918
821.307	27055
821.447	26990
821.588	26838
821.728	26796
821.868	26609
822.008	26469
822.149	26427
822.289	26434
822.429	26195
822.569	26294
822.709	26122
822.849	25868
822.99	25925
823.13	25921
823.27	25921
823.41	25811
823.55	25674
823.69	25799
823.83	25704
823.97	25845
824.11	25544
824.25	25586
824.389	25567
824.529	25609
824.669	25499
824.809	25597
824.949	25518
825.089	25578
825.228	25666
825.368	25381
825.508	25377
825.648	25232
825.787	25369
825.927	25472
826.067	25255
826.206	25312
826.346	25388
826.485	25343
826.625	25270
826.765	25487
826.904	25289
827.044	25236
827.183	24935
827.323	25065
827.462	25012
827.601	24989
827.741	24966
827.88	25103
828.02	24875
828.159	25114
828.298	24970
828.437	25076
828.577	25019
828.716	25088
828.855	24916
828.994	24696
829.134	24726
829.273	24776
829.412	24555
829.551	24612
829.69	24692
829.829	24608
829.968	24604
830.107	24661
830.246	24764
830.385	24642
830.524	24616
830.663	24441
830.802	24452
830.941	24361
831.08	24194
831.219	24254
831.357	24327
831.496	24448
831.635	24174
831.774	24155
831.913	24095
832.051	24053
832.19	23904
832.329	24003
832.467	23847
832.606	23783
832.744	23885
832.883	23809
833.022	23851
833.16	23927
833.299	23882
833.437	23912
833.576	23729
833.714	23821
833.852	23931
833.991	23958
834.129	23897
834.267	23851
834.406	23992
834.544	23939
834.682	23843
834.821	23771
834.959	23965
835.097	23764
835.235	23832
835.373	23828
835.511	23832
835.65	23668
835.788	23672
835.926	23562
836.064	23524
836.202	23596
836.34	23630
836.478	23722
836.615	23687
836.753	23630
836.891	23805
837.029	23676
837.167	23733
837.305	23543
837.443	23501
837.58	23539
837.718	23570
837.856	23478
837.993	23493
838.131	23482
838.269	23341
838.406	23452
838.544	23345
838.681	23174
838.819	23147
838.956	22885
839.094	22942
839.231	22938
839.369	23037
839.506	23402
839.643	23079
839.781	22831
839.918	22923
840.055	22816
840.193	22748
840.33	22847
840.467	22725
840.604	22873
840.742	23060
840.879	22717
841.016	22805
841.153	22706
841.29	22953
841.427	22824
841.564	22782
841.701	22831
841.838	22759
841.975	22660
842.112	22740
842.249	22531
842.385	22584
842.522	22748
842.659	22584
842.796	22497
842.933	22325
843.069	22489
843.206	22402
843.343	22527
843.479	22535
843.616	22466
843.752	22257
843.889	22196
844.025	22276
844.162	22230
844.298	22375
844.435	22135
844.571	22196
844.708	22162
844.844	22352
844.98	22371
845.117	22356
845.253	22135
845.389	21991
845.525	22044
845.661	22074
845.798	21979
845.934	21926
846.07	21949
846.206	21972
846.342	21968
846.478	21991
846.614	21778
846.75	21671
846.886	21682
847.022	21690
847.158	21572
847.294	21694
847.429	21667
847.565	21656
847.701	21915
847.837	21492
847.972	21439
848.108	21534
848.244	21515
848.379	21165
848.515	21291
848.65	21241
848.786	21287
848.921	21161
849.057	21378
849.192	21230
849.328	21256
849.463	21268
849.598	21157
849.734	21241
849.869	21207
850.004	21058
850.14	20944
850.275	21047
850.41	20971
850.545	20956
850.68	20994
850.815	21047
850.95	20967
851.085	21093
851.22	21116
851.355	21013
851.49	20982
851.625	20994
851.76	20891
851.895	20834
852.03	20830
852.165	20845
852.299	20872
852.434	20918
852.569	20883
852.703	20849
852.838	20944
852.973	20948
853.107	21081
853.242	20910
853.376	20735
853.511	20686
853.645	20743
853.78	20769
853.914	20716
854.048	20663
854.183	20739
854.317	20781
854.451	20975
854.585	20830
854.72	20762
854.854	20762
854.988	20678
855.122	20686
855.256	20667
855.39	20697
855.524	20899
855.658	20754
855.792	20777
855.926	20712
856.06	20727
856.194	20788
856.327	20724
856.461	20758
856.595	20530
856.729	20804
856.862	20765
856.996	20750
857.13	20876
857.263	20887
857.397	20686
857.53	20674
857.664	20667
857.797	20769
857.931	20727
858.064	20712
858.197	20830
858.331	20575
858.464	20636
858.597	20560
858.731	20712
858.864	20575
858.997	20701
859.13	20648
859.263	20659
859.396	20792
859.529	20739
859.662	20743
859.795	20632
859.928	20686
860.061	20792
860.194	20788
860.327	20731
860.46	20636
860.592	20762
860.725	20800
860.858	20914
860.99	20667
861.123	20522
861.256	20674
861.388	20564
861.521	21192
861.653	20465
861.786	20499
861.918	20632
862.05	20594
862.183	20651
862.315	20823
862.447	20838
862.58	20636
862.712	20526
862.844	20377
862.976	20507
863.108	20549
863.24	20853
863.372	20313
863.504	20328
863.636	20457
863.768	20408
863.9	20336
864.032	20237
864.164	20343
864.296	20438
864.428	20423
864.559	20404
864.691	20465
864.823	20404
864.954	20370
865.086	20351
865.217	20355
865.349	20290
865.48	20172
865.612	20332
865.743	20400
865.875	20385
866.006	20233
866.137	20278
866.269	20275
866.4	20225
866.531	20275
866.662	20069
866.793	20100
866.924	20149
867.055	20237
867.186	20233
867.317	20111
867.448	19986
867.579	20221
867.71	20043
867.841	20081
867.972	20145
868.103	20130
868.233	20145
868.364	20142
868.495	20225
868.625	20415
868.756	20461
868.886	20298
869.017	20389
869.147	20594
869.278	20606
869.408	20469
869.539	20366
869.669	20526
869.799	20465
869.929	20473
870.06	20495
870.19	20746
870.32	20670
870.45	20880
870.58	20746
870.71	20849
870.84	20929
870.97	20727
871.1	20811
871.23	21024
871.36	20929
871.489	20918
871.619	21043
871.749	21017
871.879	20979
872.008	21146
872.138	21127
872.267	20971
872.397	20944
872.526	20815
872.656	20887
872.785	20815
872.915	20963
873.044	21237
873.173	21112
873.303	21104
873.432	21150
873.561	21108
873.69	20975
873.819	21089
873.948	21230
874.077	21055
874.206	20899
874.335	21039
874.464	21017
874.593	21252
874.722	21291
874.851	21291
874.979	21302
875.108	21237
875.237	21279
875.365	21245
875.494	21344
875.623	21294
875.751	21321
875.88	21268
876.008	21321
876.136	21458
876.265	21739
876.393	21682
876.521	21770
876.65	21808
876.778	21717
876.906	21759
877.034	21622
877.162	21682
877.29	21492
877.418	21690
877.546	21736
877.674	21652
877.802	21549
877.93	21720
878.058	21576
878.185	21583
878.313	21583
878.441	21587
878.568	21454
878.696	21545
878.824	21568
878.951	21652
879.079	21732
879.206	21907
879.333	21774
879.461	21656
879.588	21675
879.715	21865
879.842	21892
879.97	21660
880.097	21450
880.224	21408
880.351	21473
880.478	21469
880.605	21511
880.732	21431
880.859	21743
880.986	21481
881.112	21496
881.239	21310
881.366	21116
881.493	21119
881.619	21081
881.746	21176
881.872	21039
881.999	21058
882.125	20967
882.252	21127
882.378	20979
882.505	21165
882.631	20948
882.757	20830
882.883	20971
883.01	20739
883.136	20720
883.262	20708
883.388	20575
883.514	20842
883.64	20838
883.766	20762
883.892	20492
884.018	20526
884.143	20621
884.269	20887
884.395	20484
884.52	20385
884.646	20419
884.772	20370
884.897	20290
885.023	20370
885.148	20530
885.274	20511
885.399	20587
885.524	20385
885.65	20415
885.775	20412
885.9	20343
886.025	20533
886.15	20385
886.275	20347
886.4	20263
886.525	20374
886.65	20328
886.775	20355
886.9	20450
887.025	20594
887.149	20492
887.274	20313
887.399	20187
887.523	20202
887.648	20100
887.773	20088
887.897	20069
888.021	20210
888.146	20088
888.27	20290
888.395	20229
888.519	20161
888.643	20210
888.767	20225
888.891	20024
889.015	20096
889.139	20092
889.263	19959
889.387	20081
889.511	20020
889.635	20073
889.759	19875
889.883	19940
890.006	20065
890.13	20058
890.254	19833
890.377	19826
890.501	19674
890.624	19628
890.748	19776
890.871	19655
890.995	19590
891.118	19491
891.241	19537
891.364	19529
891.488	19616
891.611	19559
891.734	19468
891.857	19518
891.98	19518
892.103	19635
892.226	19590
892.349	19441
892.471	19217
892.594	19468
892.717	19582
892.839	19518
892.962	19521
893.085	19502
893.207	19518
893.33	19339
893.452	19419
893.575	19487
893.697	19392
893.819	19620
893.941	19510
894.064	19662
894.186	19499
894.308	19350
894.43	19510
894.552	19578
894.674	19453
894.796	19480
894.918	19392
895.04	19453
895.161	19483
895.283	19567
895.405	19312
895.526	19434
895.648	19441
895.769	19537
895.891	19392
896.012	19540
896.134	19529
896.255	19396
896.376	19521
896.498	19514
896.619	19567
896.74	19540
896.861	19685
896.982	19887
897.103	20065
897.224	19807
897.345	19742
897.466	19662
897.587	19727
897.708	19795
897.828	19814
897.949	19582
898.07	19548
898.19	19658
898.311	19731
898.431	19635
898.552	19643
898.672	19826
898.792	19708
898.913	19693
899.033	19460
899.153	19525
899.273	19293
899.393	19407
899.513	19434
899.633	19373
899.753	19392
899.873	19301
899.993	19499
900.113	19407
900.232	19365
900.352	19316
900.472	19156
900.591	19042
900.711	19285
900.83	19156
900.95	19289
901.069	19240
901.189	19107
901.308	18977
901.427	18806
901.546	18768
901.665	18856
901.784	18795
901.904	18642
902.023	18536
902.141	18372
902.26	18391
902.379	18369
902.498	18251
902.617	18334
902.735	18270
902.854	18304
902.973	18235
903.091	18110
903.21	17999
903.328	17946
903.446	17851
903.565	17866
903.683	17817
903.801	17638
903.919	17836
904.038	17741
904.156	17577
904.274	17661
904.392	17566
904.51	17490
904.627	17421
904.745	17722
904.863	17589
904.981	17364
905.098	17269
905.216	17315
905.334	17185
905.451	17239
905.569	17212
905.686	17246
905.803	17140
905.921	17025
906.038	17147
906.155	17086
906.272	16755
906.389	16892
906.506	16763
906.623	16729
906.74	16748
906.857	16656
906.974	16687
907.091	16839
907.208	16831
907.324	16748
907.441	16645
907.557	16489
907.674	16554
907.79	16360
907.907	16421
908.023	16413
908.139	16436
908.256	16455
908.372	16257
908.488	16303
908.604	16124
908.72	16135
908.836	16185
908.952	16223
909.068	16173
909.184	16166
909.3	16086
909.415	16185
909.531	16147
909.647	15861
909.762	15819
909.878	15812
909.993	15873
910.108	15854
910.224	15812
910.339	15778
910.454	15797
910.57	15641
910.685	15584
910.8	15953
910.915	15762
911.03	15675
911.145	15481
911.259	15447
911.374	15363
911.489	15401
911.604	15363
911.718	15291
911.833	15165
911.947	14990
912.062	14963
912.176	15180
912.291	15169
912.405	15180
912.519	15359
912.633	15313
912.748	15173
912.862	15135
912.976	14941
913.09	14899
913.204	14857
913.318	15077
913.431	14990
913.545	15043
913.659	15093
913.772	14986
913.886	14823
914	14853
914.113	14887
914.226	14899
914.34	14883
914.453	14773
914.566	14834
914.68	14708
914.793	14682
914.906	14503
915.019	14438
915.132	14393
915.245	14324
915.358	14473
915.47	14415
915.583	14473
915.696	14454
915.809	14503
915.921	14545
916.034	14377
916.146	14339
916.259	14275
916.371	14374
916.483	14275
916.595	14355
916.708	14233
916.82	14355
916.932	14233
917.044	14233
917.156	14206
917.268	14134
917.38	14138
917.491	14107
917.603	14244
917.715	14202
917.826	14240
917.938	14024
918.049	14035
918.161	14077
918.272	14172
918.384	14191
918.495	14054
918.606	13940
918.717	13803
918.828	13974
918.939	13803
919.05	13757
919.161	13814
919.272	13719
919.383	13731
919.494	13879
919.604	14016
919.715	13852
919.826	13742
919.936	13841
920.047	13925
920.157	13822
920.267	13959
920.378	13746
920.488	13719
920.598	14031
920.708	14073
920.818	13894
920.928	13932
921.038	14024
921.148	14065
921.258	13734
921.368	13674
921.477	13525
921.587	13639
921.697	13449
921.806	13556
921.916	13396
922.025	13228
922.134	13179
922.244	13110
922.353	13255
922.462	13027
922.571	13015
922.68	12852
922.789	12749
922.898	12852
923.007	12802
923.116	12878
923.224	12787
923.333	12696
923.442	12791
923.55	12612
923.659	12696
923.767	12734
923.876	12612
923.984	12730
924.092	12601
924.201	12597
924.309	12566
924.417	12578
924.525	12445
924.633	12517
924.741	13343
924.849	12289
924.956	12441
925.064	12338
925.172	12254
925.279	12209
925.387	12258
925.494	12327
925.602	12467
925.709	12422
925.816	12209
925.924	12270
926.031	12376
926.138	12216
926.245	12251
926.352	12186
926.459	12292
926.566	12270
926.673	12243
926.779	12087
926.886	12041
926.993	11977
927.099	11832
927.206	11832
927.312	11878
927.419	11908
927.525	11946
927.631	11927
927.737	11764
927.843	11718
927.95	11657
928.056	11703
928.162	11779
928.267	11737
928.373	12281
928.479	11802
928.585	11528
928.69	11653
928.796	11737
928.901	11592
929.007	11471
929.112	11573
929.218	11573
929.323	11478
929.428	11516
929.533	11577
929.638	11402
929.743	11436
929.848	11570
929.953	11391
930.058	11296
930.163	11174
930.267	11140
930.372	11349
930.477	11094
930.581	11311
930.685	11216
930.79	11056
930.894	11029
930.998	11086
931.103	11117
931.207	10786
931.311	10649
931.415	10584
931.519	10417
931.623	10382
