Data from test_V78500241_3106.txt Node
Date: Fri Mar 25 15:31:29 CST 2022
User: usil
Spectrometer: V785-0024
Trigger mode: 0
Integration Time (sec): 4.000000E-1
Scans to average: 1
Nonlinearity correction enabled: false
Boxcar width: 0
Storing dark spectrum: false
XAxis mode: Wavelengths
Number of Pixels in Spectrum: 1024
>>>>>Begin Spectral Data<<<<<
801.071	26777
801.214	26621
801.356	26343
801.499	26324
801.641	26191
801.783	26172
801.926	26153
802.068	26183
802.211	26012
802.353	25947
802.496	25803
802.638	25944
802.78	25837
802.923	25681
803.065	25769
803.208	25742
803.35	25811
803.492	25856
803.635	25959
803.777	25849
803.919	25906
804.061	26081
804.204	25944
804.346	25864
804.488	25791
804.63	25917
804.773	25715
804.915	25875
805.057	25883
805.199	25795
805.341	25852
805.483	26103
805.626	26043
805.768	25837
805.91	25932
806.052	26081
806.194	25879
806.336	26046
806.478	25955
806.62	25966
806.762	26138
806.904	26111
807.046	26393
807.188	26366
807.33	26507
807.472	26575
807.614	26210
807.756	26244
807.898	26088
808.04	26218
808.182	26153
808.324	26237
808.465	26187
808.607	26336
808.749	26442
808.891	26526
809.033	26720
809.174	26537
809.316	26530
809.458	26533
809.6	26473
809.741	26735
809.883	26617
810.025	26880
810.166	26746
810.308	26868
810.45	26845
810.591	26632
810.733	26476
810.875	26583
811.016	26465
811.158	26362
811.299	26587
811.441	26872
811.582	26594
811.724	26609
811.865	26492
812.007	26461
812.148	26590
812.29	26598
812.431	26731
812.573	26876
812.714	26982
812.855	26857
812.997	26998
813.138	27294
813.279	27188
813.421	26994
813.562	26990
813.703	26743
813.845	26655
813.986	26290
814.127	26347
814.268	26077
814.41	26088
814.551	26046
814.692	26180
814.833	26176
814.974	26145
815.115	26183
815.256	26126
815.397	26027
815.539	26012
815.68	25818
815.821	25833
815.962	25963
816.103	25917
816.244	25700
816.385	25624
816.526	25571
816.666	25548
816.807	25221
816.948	25449
817.089	25464
817.23	25548
817.371	25278
817.512	25422
817.653	25468
817.793	25244
817.934	25392
818.075	25381
818.216	25335
818.356	25354
818.497	25282
818.638	25095
818.778	25190
818.919	25179
819.06	25190
819.2	25362
819.341	25365
819.481	25415
819.622	25400
819.762	25727
819.903	25590
820.043	25460
820.184	25426
820.324	25514
820.465	25559
820.605	25499
820.746	25476
820.886	25274
821.026	25479
821.167	25476
821.307	25514
821.447	25285
821.588	25308
821.728	25168
821.868	24954
822.008	24848
822.149	24833
822.289	24776
822.429	24597
822.569	24490
822.709	24490
822.849	24422
822.99	24323
823.13	24315
823.27	24270
823.41	24114
823.55	24186
823.69	24201
823.83	24068
823.97	24098
824.11	23859
824.25	23988
824.389	24018
824.529	24068
824.669	23939
824.809	24102
824.949	24155
825.089	24041
825.228	23939
825.368	23843
825.508	23897
825.648	23817
825.787	23805
825.927	23843
826.067	23748
826.206	23798
826.346	23904
826.485	23980
826.625	23889
826.765	23942
826.904	23878
827.044	23577
827.183	23509
827.323	23516
827.462	23775
827.601	23516
827.741	23497
827.88	23524
828.02	23490
828.159	23391
828.298	23646
828.437	23539
828.577	23528
828.716	23573
828.855	23368
828.994	23223
829.134	23280
829.273	23345
829.412	23235
829.551	23090
829.69	23193
829.829	23334
829.968	23345
830.107	23265
830.246	23288
830.385	23140
830.524	23105
830.663	23003
830.802	22953
830.941	22835
831.08	22725
831.219	22881
831.357	22881
831.496	22980
831.635	22824
831.774	22820
831.913	22679
832.051	22542
832.19	22565
832.329	22691
832.467	22561
832.606	22531
832.744	22462
832.883	22516
833.022	22523
833.16	22417
833.299	22561
833.437	22550
833.576	22538
833.714	22603
833.852	22713
833.991	22656
834.129	22653
834.267	22626
834.406	22516
834.544	22691
834.682	22634
834.821	22588
834.959	22694
835.097	22497
835.235	22580
835.373	22637
835.511	22729
835.65	22508
835.788	22417
835.926	22314
836.064	22253
836.202	22306
836.34	22382
836.478	22504
836.615	22424
836.753	22398
836.891	22508
837.029	22546
837.167	22409
837.305	22265
837.443	22246
837.58	22249
837.718	22386
837.856	22215
837.993	22310
838.131	22356
838.269	22067
838.406	22219
838.544	22169
838.681	21861
838.819	21926
838.956	21694
839.094	21720
839.231	21793
839.369	21945
839.506	22051
839.643	22010
839.781	21808
839.918	21641
840.055	21770
840.193	21656
840.33	21739
840.467	21717
840.604	21709
840.742	22040
840.879	21526
841.016	21785
841.153	21583
841.29	21732
841.427	21660
841.564	21755
841.701	21629
841.838	21637
841.975	21614
842.112	21679
842.249	21603
842.385	21496
842.522	21797
842.659	21500
842.796	21583
842.933	21378
843.069	21439
843.206	21481
843.343	21496
843.479	21515
843.616	21580
843.752	21173
843.889	21283
844.025	21382
844.162	21233
844.298	21321
844.435	21245
844.571	21272
844.708	21275
844.844	21443
844.98	21488
845.117	21329
845.253	21100
845.389	21039
845.525	21169
845.661	21252
845.798	20906
845.934	20925
846.07	21017
846.206	20979
846.342	21108
846.478	20960
846.614	20796
846.75	20659
846.886	20693
847.022	20891
847.158	20651
847.294	20769
847.429	20765
847.565	20735
847.701	20933
847.837	20457
847.972	20454
848.108	20571
848.244	20503
848.379	20385
848.515	20389
848.65	20332
848.786	20355
848.921	20286
849.057	20450
849.192	20374
849.328	20366
849.463	20362
849.598	20225
849.734	20214
849.869	20259
850.004	20164
850.14	20172
850.275	20248
850.41	20149
850.545	20027
850.68	20065
850.815	20119
850.95	20016
851.085	20240
851.22	20149
851.355	20111
851.49	20020
851.625	20149
851.76	20149
851.895	19913
852.03	19902
852.165	20027
852.299	20176
852.434	20176
852.569	20153
852.703	20069
852.838	20149
852.973	20161
853.107	20157
853.242	19959
853.376	19833
853.511	19788
853.645	19883
853.78	19970
853.914	19928
854.048	19902
854.183	19928
854.317	19970
854.451	20073
854.585	19997
854.72	19868
854.854	20027
854.988	19723
855.122	20039
855.256	19750
855.39	19928
855.524	19940
855.658	19970
855.792	19852
855.926	20039
856.06	20008
856.194	19925
856.327	19856
856.461	19864
856.595	19822
856.729	19830
856.862	19879
856.996	19917
857.13	19894
857.263	19887
857.397	20039
857.53	19986
857.664	20012
857.797	19963
857.931	20016
858.064	19875
858.197	19906
858.331	19902
858.464	20005
858.597	19784
858.731	19860
858.864	19913
858.997	19894
859.13	19898
859.263	19868
859.396	20016
859.529	19959
859.662	19788
859.795	19791
859.928	20050
860.061	20050
860.194	20058
860.327	19906
860.46	20001
860.592	19944
860.725	20180
860.858	20054
860.99	19856
861.123	19742
861.256	19871
861.388	19860
861.521	20450
861.653	19791
861.786	19613
861.918	19769
862.05	19826
862.183	19803
862.315	19906
862.447	19833
862.58	19807
862.712	19662
862.844	19609
862.976	19742
863.108	19681
863.24	20035
863.372	19597
863.504	19647
863.636	19731
863.768	19757
863.9	19670
864.032	19533
864.164	19499
864.296	19601
864.428	19769
864.559	19662
864.691	19601
864.823	19651
864.954	19658
865.086	19613
865.217	19525
865.349	19506
865.48	19525
865.612	19472
865.743	19712
865.875	19594
866.006	19464
866.137	19563
866.269	19594
866.4	19586
866.531	19491
866.662	19369
866.793	19571
866.924	19480
867.055	19438
867.186	19571
867.317	19487
867.448	19392
867.579	19480
867.71	19449
867.841	19464
867.972	19521
868.103	19502
868.233	19594
868.364	19521
868.495	19472
868.625	19769
868.756	19890
868.886	19639
869.017	19613
869.147	19769
869.278	19753
869.408	19830
869.539	19685
869.669	19658
869.799	19791
869.929	19788
870.06	19944
870.19	20012
870.32	20008
870.45	20191
870.58	20062
870.71	20214
870.84	20199
870.97	20065
871.1	20149
871.23	20267
871.36	20332
871.489	20328
871.619	20259
871.749	20309
871.879	20320
872.008	20507
872.138	20404
872.267	20404
872.397	20176
872.526	20187
872.656	20103
872.785	20237
872.915	20248
873.044	20465
873.173	20358
873.303	20408
873.432	20366
873.561	20579
873.69	20336
873.819	20522
873.948	20408
874.077	20351
874.206	20393
874.335	20374
874.464	20431
874.593	20659
874.722	20575
874.851	20667
874.979	20632
875.108	20598
875.237	20765
875.365	20446
875.494	20625
875.623	20609
875.751	20541
875.88	20655
876.008	20625
876.136	20830
876.265	21047
876.393	21150
876.521	21066
876.65	21157
876.778	21093
876.906	20975
877.034	20971
877.162	20929
877.29	20948
877.418	21024
877.546	20941
877.674	21020
877.802	20948
877.93	20876
878.058	21024
878.185	20914
878.313	20880
878.441	20857
878.568	20743
878.696	20868
878.824	20963
878.951	21001
879.079	21233
879.206	21199
879.333	21146
879.461	21077
879.588	21154
879.715	21066
879.842	21329
879.97	20982
880.097	20861
880.224	20781
880.351	20845
880.478	20868
880.605	20727
880.732	20670
880.859	20979
880.986	20853
881.112	20830
881.239	20762
881.366	20579
881.493	20415
881.619	20438
881.746	20511
881.872	20488
881.999	20294
882.125	20404
882.252	20415
882.378	20427
882.505	20484
882.631	20256
882.757	20145
882.883	20298
883.01	20168
883.136	20020
883.262	20005
883.388	20081
883.514	20130
883.64	20176
883.766	20058
883.892	19940
884.018	19902
884.143	20062
884.269	20100
884.395	19887
884.52	19879
884.646	19807
884.772	19597
884.897	19685
885.023	19837
885.148	19963
885.274	19868
885.399	19932
885.524	19803
885.65	19681
885.775	19700
885.9	19750
886.025	19898
886.15	19826
886.275	19571
886.4	19666
886.525	19719
886.65	19616
886.775	19689
886.9	19894
887.025	19837
887.149	19734
887.274	19639
887.399	19434
887.523	19540
887.648	19525
887.773	19480
887.897	19734
888.021	19590
888.146	19559
888.27	19601
888.395	19628
888.519	19597
888.643	19628
888.767	19533
888.891	19571
889.015	19346
889.139	19400
889.263	19343
889.387	19487
889.511	19552
889.635	19563
889.759	19324
889.883	19384
890.006	19457
890.13	19388
890.254	19320
890.377	19225
890.501	19171
890.624	18981
890.748	19160
890.871	19080
890.995	18935
891.118	18871
891.241	18996
891.364	18863
891.488	19152
891.611	18947
891.734	18943
891.857	19027
891.98	19012
892.103	18935
892.226	18939
892.349	18798
892.471	18791
892.594	18859
892.717	18951
892.839	18939
892.962	18916
893.085	18958
893.207	18920
893.33	18745
893.452	18852
893.575	19012
893.697	18909
893.819	19061
893.941	19118
894.064	19088
894.186	18814
894.308	18821
894.43	18977
894.552	19084
894.674	19038
894.796	18878
894.918	18894
895.04	18848
895.161	18928
895.283	18943
895.405	18867
895.526	19008
895.648	18958
895.769	18954
895.891	18943
896.012	18973
896.134	18993
896.255	18932
896.376	18920
896.498	18852
896.619	18996
896.74	18943
896.861	18973
896.982	19217
897.103	19422
897.224	19133
897.345	19171
897.466	19050
897.587	19152
897.708	19259
897.828	19232
897.949	19012
898.07	18970
898.19	19053
898.311	19259
898.431	19046
898.552	19187
898.672	19217
898.792	19202
898.913	19213
899.033	18985
899.153	18981
899.273	18867
899.393	18932
899.513	19095
899.633	18913
899.753	18890
899.873	18916
899.993	18886
900.113	18989
900.232	18939
900.352	18837
900.472	18669
900.591	18768
900.711	18692
900.83	18665
900.95	18768
901.069	18897
901.189	18623
901.308	18353
901.427	18365
901.546	18399
901.665	18407
901.784	18296
901.904	18209
902.023	18091
902.141	17855
902.26	17878
902.379	17904
902.498	17912
902.617	17802
902.735	17984
902.854	17771
902.973	17733
903.091	17516
903.21	17570
903.328	17532
903.446	17410
903.565	17379
903.683	17337
903.801	17303
903.919	17322
904.038	17311
904.156	17136
904.274	17105
904.392	17056
904.51	17136
904.627	17143
904.745	17143
904.863	17128
904.981	16839
905.098	16774
905.216	16831
905.334	16740
905.451	16824
905.569	16702
905.686	16847
905.803	16904
905.921	16599
906.038	16698
906.155	16675
906.272	16546
906.389	16436
906.506	16306
906.623	16360
906.74	16333
906.857	16128
906.974	16360
907.091	16493
907.208	16428
907.324	16322
907.441	16276
907.557	16147
907.674	16131
907.79	16006
907.907	16013
908.023	16025
908.139	16074
908.256	15960
908.372	16010
908.488	15979
908.604	15915
908.72	15857
908.836	15865
908.952	15751
909.068	15797
909.184	15873
909.3	15747
909.415	15857
909.531	15736
909.647	15656
909.762	15595
909.878	15466
909.993	15542
910.108	15439
910.224	15542
910.339	15507
910.454	15359
910.57	15336
910.685	15260
910.8	15530
910.915	15435
911.03	15363
911.145	15138
911.259	15150
911.374	15039
911.489	14963
911.604	15001
911.718	14910
911.833	14925
911.947	14743
912.062	14739
912.176	14956
912.291	14910
912.405	14929
912.519	15135
912.633	14998
912.748	14986
912.862	14792
912.976	14632
913.09	14552
913.204	14629
913.318	14655
913.431	14804
913.545	14708
913.659	14842
913.772	14579
913.886	14651
914	14514
914.113	14674
914.226	14613
914.34	14602
914.453	14499
914.566	14594
914.68	14473
914.793	14480
914.906	14183
915.019	14100
915.132	14073
915.245	14119
915.358	14142
915.47	14183
915.583	14134
915.696	14142
915.809	14339
915.921	14210
916.034	14161
916.146	14100
916.259	14058
916.371	14107
916.483	14088
916.595	13986
916.708	14005
916.82	13951
916.932	14046
917.044	13974
917.156	13967
917.268	13845
917.38	13822
917.491	13856
917.603	13906
917.715	13898
917.826	13932
917.938	13837
918.049	13636
918.161	13864
918.272	13902
918.384	13894
918.495	13898
918.606	13647
918.717	13636
918.828	13597
918.939	13540
919.05	13472
919.161	13658
919.272	13343
919.383	13525
919.494	13643
919.604	13791
919.715	13666
919.826	13533
919.936	13639
920.047	13624
920.157	13571
920.267	13837
920.378	13616
920.488	13556
920.598	13731
920.708	13909
920.818	13704
920.928	13788
921.038	13978
921.148	13875
921.258	13616
921.368	13510
921.477	13373
921.587	13422
921.697	13152
921.806	13445
921.916	13213
922.025	13103
922.134	13053
922.244	12981
922.353	13023
922.462	12859
922.571	12825
922.68	12662
922.789	12692
922.898	12798
923.007	12532
923.116	12711
923.224	12688
923.333	12616
923.442	12566
923.55	12528
923.659	12517
923.767	12593
923.876	12456
923.984	12536
924.092	12429
924.201	12376
924.309	12380
924.417	12475
924.525	12372
924.633	12323
924.741	13278
924.849	12201
924.956	12334
925.064	12220
925.172	12129
925.279	12072
925.387	12216
925.494	12144
925.602	12190
925.709	12129
925.816	12041
925.924	12152
926.031	12220
926.138	12079
926.245	12144
926.352	11992
926.459	12102
926.566	12114
926.673	12034
926.779	11942
926.886	11843
926.993	11771
927.099	11767
927.206	11710
927.312	11695
927.419	11764
927.525	11760
927.631	11889
927.737	11611
927.843	11585
927.95	11482
928.056	11577
928.162	11676
928.267	11493
928.373	12319
928.479	11543
928.585	11505
928.69	11539
928.796	11558
928.901	11429
929.007	11345
929.112	11452
929.218	11395
929.323	11330
929.428	11299
929.533	11493
929.638	11273
929.743	11345
929.848	11292
929.953	11258
930.058	11147
930.163	11014
930.267	10984
930.372	11216
930.477	10961
930.581	11178
930.685	11045
930.79	10984
930.894	10980
930.998	10877
931.103	11052
931.207	10710
931.311	10603
931.415	10550
931.519	10367
931.623	10322
