Data from test_V78500241_72.txt Node
Date: Fri Mar 25 15:10:21 CST 2022
User: usil
Spectrometer: V785-0024
Trigger mode: 0
Integration Time (sec): 4.000000E-1
Scans to average: 1
Nonlinearity correction enabled: false
Boxcar width: 0
Storing dark spectrum: false
XAxis mode: Wavelengths
Number of Pixels in Spectrum: 1024
>>>>>Begin Spectral Data<<<<<
801.071	28831
801.214	28683
801.356	28348
801.499	28337
801.641	28314
801.783	28211
801.926	28322
802.068	28253
802.211	28154
802.353	27998
802.496	27956
802.638	27888
802.78	27831
802.923	27819
803.065	27759
803.208	27671
803.35	27720
803.492	28029
803.635	27918
803.777	27964
803.919	27956
804.061	28131
804.204	27949
804.346	27918
804.488	27812
804.63	27816
804.773	27736
804.915	27953
805.057	28017
805.199	27983
805.341	27964
805.483	28063
805.626	28013
805.768	27895
805.91	27960
806.052	28124
806.194	28013
806.336	28124
806.478	28029
806.62	27945
806.762	28109
806.904	28181
807.046	28405
807.188	28352
807.33	28295
807.472	28329
807.614	28219
807.756	28177
807.898	28226
808.04	28078
808.182	28215
808.324	28280
808.465	28044
808.607	28394
808.749	28413
808.891	28481
809.033	28656
809.174	28512
809.316	28432
809.458	28470
809.6	28466
809.741	28531
809.883	28455
810.025	28691
810.166	28721
810.308	28755
810.45	28641
810.591	28675
810.733	28417
810.875	28466
811.016	28280
811.158	28154
811.299	28447
811.441	28557
811.582	28512
811.724	28413
811.865	28432
812.007	28451
812.148	28462
812.29	28451
812.431	28485
812.573	28683
812.714	28725
812.855	28793
812.997	28991
813.138	29181
813.279	29079
813.421	28866
813.562	28778
813.703	28660
813.845	28459
813.986	28318
814.127	28036
814.268	27987
814.41	27960
814.551	27987
814.692	28166
814.833	27854
814.974	28044
815.115	27922
815.256	27812
815.397	28006
815.539	27861
815.68	27701
815.821	27720
815.962	27793
816.103	27667
816.244	27618
816.385	27523
816.526	27568
816.666	27298
816.807	27184
816.948	27359
817.089	27439
817.23	27089
817.371	27062
817.512	27203
817.653	27005
817.793	27142
817.934	27085
818.075	27199
818.216	27108
818.356	27013
818.497	26948
818.638	26754
818.778	26838
818.919	26948
819.06	26910
819.2	26998
819.341	27062
819.481	27123
819.622	27188
819.762	27370
819.903	27233
820.043	27283
820.184	27180
820.324	27074
820.465	27165
820.605	27146
820.746	27081
820.886	26956
821.026	27043
821.167	27005
821.307	27279
821.447	26986
821.588	26937
821.728	26849
821.868	26758
822.008	26537
822.149	26495
822.289	26511
822.429	26419
822.569	26248
822.709	26168
822.849	25890
822.99	26058
823.13	25917
823.27	25818
823.41	25746
823.55	25605
823.69	25750
823.83	25871
823.97	25712
824.11	25514
824.25	25578
824.389	25476
824.529	25693
824.669	25464
824.809	25635
824.949	25704
825.089	25510
825.228	25502
825.368	25476
825.508	25266
825.648	25327
825.787	25350
825.927	25259
826.067	25293
826.206	25228
826.346	25407
826.485	25388
826.625	25247
826.765	25426
826.904	25266
827.044	25099
827.183	25103
827.323	25110
827.462	25004
827.601	25004
827.741	24928
827.88	25008
828.02	24852
828.159	24829
828.298	25031
828.437	25129
828.577	24833
828.716	25148
828.855	24913
828.994	24817
829.134	24741
829.273	24677
829.412	24612
829.551	24692
829.69	24684
829.829	24623
829.968	24642
830.107	24703
830.246	24555
830.385	24505
830.524	24426
830.663	24308
830.802	24247
830.941	24232
831.08	24152
831.219	24292
831.357	24372
831.496	24292
831.635	24121
831.774	24083
831.913	24087
832.051	23950
832.19	23790
832.329	23965
832.467	23771
832.606	23855
832.744	23821
832.883	23767
833.022	23710
833.16	23855
833.299	23805
833.437	23897
833.576	23821
833.714	23980
833.852	23912
833.991	23866
834.129	23916
834.267	24011
834.406	23817
834.544	23889
834.682	23889
834.821	23699
834.959	23996
835.097	23707
835.235	23802
835.373	23802
835.511	23741
835.65	23760
835.788	23535
835.926	23440
836.064	23364
836.202	23493
836.34	23604
836.478	23668
836.615	23592
836.753	23634
836.891	23547
837.029	23809
837.167	23630
837.305	23627
837.443	23554
837.58	23459
837.718	23516
837.856	23535
837.993	23421
838.131	23543
838.269	23280
838.406	23372
838.544	23254
838.681	23239
838.819	23159
838.956	22923
839.094	22904
839.231	22923
839.369	23067
839.506	23433
839.643	23056
839.781	22835
839.918	22725
840.055	22812
840.193	22694
840.33	22736
840.467	22820
840.604	22862
840.742	23022
840.879	22637
841.016	22596
841.153	22672
841.29	22740
841.427	22847
841.564	22816
841.701	22729
841.838	22687
841.975	22660
842.112	22653
842.249	22493
842.385	22436
842.522	22774
842.659	22535
842.796	22478
842.933	22493
843.069	22440
843.206	22424
843.343	22474
843.479	22508
843.616	22276
843.752	22246
843.889	22169
844.025	22325
844.162	22192
844.298	22147
844.435	22101
844.571	22158
844.708	22219
844.844	22253
844.98	22329
845.117	22280
845.253	22101
845.389	22090
845.525	22154
845.661	22059
845.798	21819
845.934	21991
846.07	21930
846.206	21899
846.342	21934
846.478	21892
846.614	21732
846.75	21614
846.886	21587
847.022	21743
847.158	21720
847.294	21713
847.429	21713
847.565	21500
847.701	21880
847.837	21367
847.972	21374
848.108	21477
848.244	21477
848.379	21199
848.515	21237
848.65	21169
848.786	21154
848.921	21180
849.057	21188
849.192	21268
849.328	21203
849.463	21112
849.598	21112
849.734	21157
849.869	21020
850.004	20956
850.14	20952
850.275	20887
850.41	20956
850.545	20861
850.68	20861
850.815	20971
850.95	20963
851.085	21074
851.22	20925
851.355	21055
851.49	20838
851.625	20948
851.76	20864
851.895	20849
852.03	20708
852.165	20807
852.299	20849
852.434	20849
852.569	20815
852.703	20830
852.838	21043
852.973	21009
853.107	20971
853.242	20804
853.376	20758
853.511	20667
853.645	20724
853.78	20807
853.914	20708
854.048	20712
854.183	20727
854.317	20708
854.451	20769
854.585	20724
854.72	20625
854.854	20819
854.988	20621
855.122	20663
855.256	20541
855.39	20663
855.524	20826
855.658	20697
855.792	20800
855.926	20686
856.06	20845
856.194	20758
856.327	20689
856.461	20648
856.595	20625
856.729	20678
856.862	20861
856.996	20670
857.13	20720
857.263	20823
857.397	20785
857.53	20682
857.664	20777
857.797	20758
857.931	20762
858.064	20689
858.197	20796
858.331	20640
858.464	20492
858.597	20552
858.731	20587
858.864	20632
858.997	20503
859.13	20484
859.263	20594
859.396	20701
859.529	20507
859.662	20549
859.795	20602
859.928	20602
860.061	20872
860.194	20724
860.327	20648
860.46	20560
860.592	20708
860.725	20727
860.858	20731
860.99	20613
861.123	20461
861.256	20431
861.388	20594
861.521	21203
861.653	20484
861.786	20518
861.918	20522
862.05	20609
862.183	20670
862.315	20640
862.447	20788
862.58	20507
862.712	20336
862.844	20320
862.976	20412
863.108	20339
863.24	20792
863.372	20229
863.504	20404
863.636	20320
863.768	20404
863.9	20328
864.032	20278
864.164	20248
864.296	20355
864.428	20404
864.559	20415
864.691	20370
864.823	20381
864.954	20161
865.086	20317
865.217	20259
865.349	20096
865.48	20168
865.612	20149
865.743	20263
865.875	20294
866.006	20199
866.137	20153
866.269	20195
866.4	20271
866.531	20164
866.662	20134
866.793	20130
866.924	20069
867.055	20221
867.186	20115
867.317	20248
867.448	20122
867.579	20134
867.71	20073
867.841	20096
867.972	20187
868.103	20187
868.233	20153
868.364	20161
868.495	20092
868.625	20389
868.756	20408
868.886	20305
869.017	20358
869.147	20446
869.278	20442
869.408	20332
869.539	20240
869.669	20377
869.799	20476
869.929	20488
870.06	20336
870.19	20773
870.32	20682
870.45	20693
870.58	20739
870.71	20941
870.84	20815
870.97	20792
871.1	20773
871.23	20925
871.36	20937
871.489	20895
871.619	20826
871.749	21051
871.879	20857
872.008	21066
872.138	20975
872.267	20845
872.397	20834
872.526	20792
872.656	20693
872.785	20792
872.915	20868
873.044	20990
873.173	20982
873.303	21096
873.432	20963
873.561	21108
873.69	21104
873.819	20956
873.948	21127
874.077	21055
874.206	20929
874.335	20990
874.464	20998
874.593	21306
874.722	21184
874.851	21336
874.979	21367
875.108	21393
875.237	21211
875.365	21131
875.494	21180
875.623	21294
875.751	21207
875.88	21180
876.008	21348
876.136	21416
876.265	21652
876.393	21804
876.521	21705
876.65	21671
876.778	21625
876.906	21583
877.034	21488
877.162	21587
877.29	21595
877.418	21564
877.546	21633
877.674	21591
877.802	21553
877.93	21542
878.058	21591
878.185	21458
878.313	21530
878.441	21663
878.568	21424
878.696	21428
878.824	21682
878.951	21701
879.079	21709
879.206	21880
879.333	21603
879.461	21629
879.588	21675
879.715	21865
879.842	22067
879.97	21671
880.097	21294
880.224	21477
880.351	21507
880.478	21492
880.605	21287
880.732	21504
880.859	21606
880.986	21477
881.112	21496
881.239	21294
881.366	21165
881.493	21070
881.619	21062
881.746	20944
881.872	21009
881.999	21032
882.125	20910
882.252	20975
882.378	20948
882.505	21226
882.631	20891
882.757	20842
882.883	20785
883.01	20750
883.136	20674
883.262	20526
883.388	20545
883.514	20796
883.64	20769
883.766	20621
883.892	20575
884.018	20473
884.143	20701
884.269	20735
884.395	20389
884.52	20427
884.646	20423
884.772	20427
884.897	20275
885.023	20252
885.148	20465
885.274	20556
885.399	20480
885.524	20495
885.65	20488
885.775	20385
885.9	20309
886.025	20442
886.15	20480
886.275	20244
886.4	20164
886.525	20419
886.65	20313
886.775	20259
886.9	20381
887.025	20442
887.149	20366
887.274	20202
887.399	20096
887.523	20221
887.648	20103
887.773	19951
887.897	20054
888.021	20168
888.146	20157
888.27	20221
888.395	20259
888.519	20039
888.643	20191
888.767	20107
888.891	20016
889.015	20001
889.139	19894
889.263	19868
889.387	19906
889.511	20256
889.635	20031
889.759	19890
889.883	19917
890.006	19909
890.13	20069
890.254	19784
890.377	19765
890.501	19689
890.624	19769
890.748	19647
890.871	19441
890.995	19438
891.118	19445
891.241	19552
891.364	19495
891.488	19552
891.611	19521
891.734	19514
891.857	19540
891.98	19464
892.103	19411
892.226	19460
892.349	19441
892.471	19270
892.594	19510
892.717	19365
892.839	19316
892.962	19293
893.085	19384
893.207	19464
893.33	19274
893.452	19244
893.575	19491
893.697	19381
893.819	19605
893.941	19616
894.064	19575
894.186	19403
894.308	19365
894.43	19540
894.552	19521
894.674	19476
894.796	19441
894.918	19350
895.04	19411
895.161	19483
895.283	19438
895.405	19270
895.526	19518
895.648	19403
895.769	19350
895.891	19438
896.012	19609
896.134	19510
896.255	19445
896.376	19407
896.498	19544
896.619	19529
896.74	19400
896.861	19495
896.982	19860
897.103	19940
897.224	19784
897.345	19677
897.466	19544
897.587	19727
897.708	19856
897.828	19776
897.949	19620
898.07	19620
898.19	19594
898.311	19677
898.431	19578
898.552	19559
898.672	19738
898.792	19628
898.913	19613
899.033	19563
899.153	19441
899.273	19301
899.393	19289
899.513	19343
899.633	19350
899.753	19415
899.873	19441
899.993	19308
900.113	19377
900.232	19362
900.352	19396
900.472	19190
900.591	19099
900.711	19175
900.83	19042
900.95	19225
901.069	19240
901.189	19088
901.308	18920
901.427	18692
901.546	18772
901.665	18734
901.784	18833
901.904	18650
902.023	18486
902.141	18380
902.26	18342
902.379	18365
902.498	18262
902.617	18197
902.735	18315
902.854	18300
902.973	18064
903.091	17996
903.21	17901
903.328	17950
903.446	17836
903.565	17703
903.683	17745
903.801	17627
903.919	17714
904.038	17672
904.156	17516
904.274	17608
904.392	17512
904.51	17493
904.627	17528
904.745	17566
904.863	17452
904.981	17334
905.098	17159
905.216	17269
905.334	17162
905.451	17231
905.569	17166
905.686	17223
905.803	17223
905.921	16934
906.038	17060
906.155	17014
906.272	16915
906.389	16946
906.506	16725
906.623	16698
906.74	16752
906.857	16550
906.974	16577
907.091	16771
907.208	16767
907.324	16710
907.441	16603
907.557	16409
907.674	16394
907.79	16371
907.907	16276
908.023	16363
908.139	16371
908.256	16352
908.372	16226
908.488	16272
908.604	16074
908.72	16078
908.836	16082
908.952	16059
909.068	16120
909.184	16147
909.3	16048
909.415	16109
909.531	16067
909.647	15865
909.762	15793
909.878	15785
909.993	15793
910.108	15770
910.224	15660
910.339	15800
910.454	15545
910.57	15603
910.685	15492
910.8	15892
910.915	15800
911.03	15667
911.145	15401
911.259	15321
911.374	15374
911.489	15310
911.604	15287
911.718	15116
911.833	15131
911.947	14994
912.062	14967
912.176	15138
912.291	15085
912.405	15047
912.519	15302
912.633	15260
912.748	15123
912.862	15165
912.976	14944
913.09	14785
913.204	15005
913.318	15047
913.431	14982
913.545	14986
913.659	15108
913.772	14944
913.886	14739
914	14762
914.113	14800
914.226	14807
914.34	14724
914.453	14583
914.566	14750
914.68	14682
914.793	14670
914.906	14427
915.019	14362
915.132	14343
915.245	14339
915.358	14431
915.47	14400
915.583	14404
915.696	14343
915.809	14488
915.921	14537
916.034	14313
916.146	14278
916.259	14259
916.371	14461
916.483	14324
916.595	14225
916.708	14145
916.82	14282
916.932	14195
917.044	14206
917.156	14161
917.268	14005
917.38	14046
917.491	14081
917.603	14119
917.715	14096
917.826	14153
917.938	14024
918.049	13925
918.161	14039
918.272	14153
918.384	14142
918.495	13951
918.606	13890
918.717	13734
918.828	13887
918.939	13879
919.05	13753
919.161	13753
919.272	13594
919.383	13689
919.494	13875
919.604	13989
919.715	13731
919.826	13651
919.936	13746
920.047	13753
920.157	13818
920.267	13902
920.378	13712
920.488	13811
920.598	13928
920.708	14096
920.818	13970
920.928	13913
921.038	14100
921.148	13997
921.258	13734
921.368	13693
921.477	13502
921.587	13449
921.697	13339
921.806	13540
921.916	13384
922.025	13122
922.134	13114
922.244	13202
922.353	13213
922.462	13065
922.571	12962
922.68	12817
922.789	12726
922.898	12875
923.007	12772
923.116	12798
923.224	12837
923.333	12760
923.442	12677
923.55	12544
923.659	12711
923.767	12703
923.876	12593
923.984	12654
924.092	12582
924.201	12604
924.309	12574
924.417	12555
924.525	12498
924.633	12452
924.741	13285
924.849	12258
924.956	12433
925.064	12273
925.172	12216
925.279	12254
925.387	12308
925.494	12285
925.602	12479
925.709	12380
925.816	12270
925.924	12251
926.031	12342
926.138	12117
926.245	12247
926.352	12079
926.459	12243
926.566	12281
926.673	12171
926.779	12026
926.886	12072
926.993	11771
927.099	11874
927.206	11908
927.312	11794
927.419	11916
927.525	11790
927.631	11897
927.737	11737
927.843	11657
927.95	11589
928.056	11638
928.162	11794
928.267	11691
928.373	12216
928.479	11737
928.585	11524
928.69	11596
928.796	11680
928.901	11516
929.007	11356
929.112	11539
929.218	11474
929.323	11410
929.428	11387
929.533	11486
929.638	11322
929.743	11406
929.848	11398
929.953	11421
930.058	11178
930.163	11132
930.267	11090
930.372	11223
930.477	11064
930.581	11360
930.685	11220
930.79	10968
930.894	11010
930.998	10965
931.103	11014
931.207	10672
931.311	10683
931.415	10558
931.519	10306
931.623	10337
