Data from test_V78500241_1124.txt Node
Date: Fri Mar 25 15:17:41 CST 2022
User: usil
Spectrometer: V785-0024
Trigger mode: 0
Integration Time (sec): 4.000000E-1
Scans to average: 1
Nonlinearity correction enabled: false
Boxcar width: 0
Storing dark spectrum: false
XAxis mode: Wavelengths
Number of Pixels in Spectrum: 1024
>>>>>Begin Spectral Data<<<<<
801.071	28284
801.214	28147
801.356	27869
801.499	27785
801.641	27884
801.783	27797
801.926	27987
802.068	27736
802.211	27876
802.353	27720
802.496	27572
802.638	27492
802.78	27447
802.923	27443
803.065	27283
803.208	27382
803.35	27386
803.492	27545
803.635	27610
803.777	27576
803.919	27694
804.061	27956
804.204	27652
804.346	27694
804.488	27408
804.63	27610
804.773	27473
804.915	27679
805.057	27671
805.199	27705
805.341	27873
805.483	27808
805.626	27842
805.768	27648
805.91	27945
806.052	27880
806.194	27800
806.336	28074
806.478	27903
806.62	27808
806.762	27819
806.904	28128
807.046	28428
807.188	28070
807.33	28230
807.472	28276
807.614	28063
807.756	28105
807.898	28120
808.04	28040
808.182	28029
808.324	28074
808.465	28070
808.607	28223
808.749	28557
808.891	28523
809.033	28550
809.174	28565
809.316	28485
809.458	28516
809.6	28489
809.741	28527
809.883	28565
810.025	28812
810.166	28702
810.308	28596
810.45	28664
810.591	28580
810.733	28653
810.875	28443
811.016	28337
811.158	28306
811.299	28546
811.441	28428
811.582	28725
811.724	28428
811.865	28447
812.007	28394
812.148	28424
812.29	28421
812.431	28763
812.573	28774
812.714	28896
812.855	28949
812.997	29060
813.138	29292
813.279	29200
813.421	28987
813.562	29025
813.703	28752
813.845	28649
813.986	28421
814.127	28382
814.268	28173
814.41	28337
814.551	28078
814.692	28207
814.833	28036
814.974	28040
815.115	28082
815.256	27998
815.397	28181
815.539	28124
815.68	27907
815.821	28059
815.962	27956
816.103	28048
816.244	27949
816.385	27667
816.526	27728
816.666	27614
816.807	27496
816.948	27580
817.089	27648
817.23	27462
817.371	27454
817.512	27488
817.653	27435
817.793	27504
817.934	27469
818.075	27515
818.216	27488
818.356	27363
818.497	27416
818.638	27329
818.778	27279
818.919	27294
819.06	27294
819.2	27348
819.341	27466
819.481	27557
819.622	27557
819.762	27827
819.903	27778
820.043	27762
820.184	27576
820.324	27717
820.465	27618
820.605	27561
820.746	27557
820.886	27523
821.026	27705
821.167	27606
821.307	27663
821.447	27473
821.588	27370
821.728	27241
821.868	27173
822.008	26918
822.149	26887
822.289	27036
822.429	26743
822.569	26655
822.709	26716
822.849	26317
822.99	26465
823.13	26389
823.27	26385
823.41	26351
823.55	26271
823.69	26343
823.83	26358
823.97	26199
824.11	26180
824.25	26050
824.389	26046
824.529	26370
824.669	26191
824.809	26351
824.949	26164
825.089	26309
825.228	26073
825.368	25951
825.508	25959
825.648	25963
825.787	25940
825.927	26130
826.067	26024
826.206	26027
826.346	26043
826.485	25986
826.625	25982
826.765	26164
826.904	25966
827.044	25928
827.183	25738
827.323	25765
827.462	25921
827.601	25849
827.741	25757
827.88	25765
828.02	25647
828.159	25685
828.298	25795
828.437	25852
828.577	25837
828.716	25947
828.855	25727
828.994	25434
829.134	25441
829.273	25411
829.412	25460
829.551	25400
829.69	25438
829.829	25464
829.968	25548
830.107	25445
830.246	25590
830.385	25388
830.524	25403
830.663	25232
830.802	25240
830.941	25152
831.08	25129
831.219	25168
831.357	25183
831.496	25308
831.635	25019
831.774	25095
831.913	24905
832.051	24909
832.19	24848
832.329	24852
832.467	24745
832.606	24612
832.744	24681
832.883	24760
833.022	24745
833.16	24730
833.299	24768
833.437	24833
833.576	24947
833.714	24817
833.852	24878
833.991	24856
834.129	24875
834.267	24817
834.406	24935
834.544	24939
834.682	24878
834.821	24810
834.959	24890
835.097	24726
835.235	24810
835.373	24779
835.511	24798
835.65	24707
835.788	24715
835.926	24661
836.064	24517
836.202	24517
836.34	24616
836.478	24757
836.615	24677
836.753	24620
836.891	24745
837.029	24620
837.167	24658
837.305	24551
837.443	24494
837.58	24399
837.718	24525
837.856	24551
837.993	24399
838.131	24494
838.269	24285
838.406	24448
838.544	24296
838.681	24087
838.819	24087
838.956	24102
839.094	23958
839.231	23950
839.369	24140
839.506	24403
839.643	24254
839.781	24072
839.918	23847
840.055	23958
840.193	23969
840.33	23832
840.467	24038
840.604	23802
840.742	24087
840.879	23756
841.016	23840
841.153	23684
841.29	24034
841.427	23958
841.564	23980
841.701	23809
841.838	23767
841.975	23707
842.112	23665
842.249	23760
842.385	23672
842.522	23775
842.659	23668
842.796	23642
842.933	23794
843.069	23649
843.206	23676
843.343	23608
843.479	23672
843.616	23570
843.752	23417
843.889	23547
844.025	23455
844.162	23505
844.298	23501
844.435	23463
844.571	23440
844.708	23619
844.844	23581
844.98	23551
845.117	23566
845.253	23368
845.389	23254
845.525	23273
845.661	23292
845.798	23075
845.934	23265
846.07	23200
846.206	23052
846.342	23292
846.478	23117
846.614	22949
846.75	22717
846.886	22858
847.022	22881
847.158	22942
847.294	22942
847.429	22866
847.565	22767
847.701	23155
847.837	22679
847.972	22557
848.108	22687
848.244	22763
848.379	22497
848.515	22542
848.65	22436
848.786	22504
848.921	22500
849.057	22649
849.192	22546
849.328	22508
849.463	22413
849.598	22470
849.734	22519
849.869	22333
850.004	22382
850.14	22329
850.275	22394
850.41	22204
850.545	22131
850.68	22055
850.815	22230
850.95	22185
851.085	22371
851.22	22318
851.355	22226
851.49	22192
851.625	22162
851.76	22223
851.895	22109
852.03	22162
852.165	22188
852.299	22295
852.434	22295
852.569	22177
852.703	22158
852.838	22322
852.973	22303
853.107	22371
853.242	22185
853.376	22139
853.511	21987
853.645	22006
853.78	22124
853.914	22044
854.048	21968
854.183	21934
854.317	22135
854.451	22272
854.585	22006
854.72	21991
854.854	22120
854.988	21895
855.122	22078
855.256	21895
855.39	22086
855.524	22105
855.658	21991
855.792	21941
855.926	22169
856.06	22048
856.194	21991
856.327	22029
856.461	22002
856.595	21968
856.729	21937
856.862	22074
856.996	22143
857.13	22128
857.263	22265
857.397	22082
857.53	22109
857.664	22124
857.797	22067
857.931	22032
858.064	22147
858.197	22166
858.331	21964
858.464	21960
858.597	21987
858.731	22032
858.864	21895
858.997	22017
859.13	21994
859.263	22219
859.396	22059
859.529	22128
859.662	21964
859.795	22040
859.928	22040
860.061	22253
860.194	22200
860.327	22162
860.46	22093
860.592	22177
860.725	22185
860.858	22215
860.99	22017
861.123	21918
861.256	22070
861.388	21937
861.521	22736
861.653	21797
861.786	21899
861.918	21918
862.05	22063
862.183	21968
862.315	21880
862.447	22044
862.58	21972
862.712	21644
862.844	21682
862.976	21785
863.108	21861
863.24	22177
863.372	21667
863.504	21720
863.636	21732
863.768	21789
863.9	21720
864.032	21679
864.164	21785
864.296	21793
864.428	21884
864.559	21842
864.691	21823
864.823	21804
864.954	21736
865.086	21629
865.217	21732
865.349	21477
865.48	21614
865.612	21660
865.743	21781
865.875	21774
866.006	21549
866.137	21759
866.269	21732
866.4	21580
866.531	21424
866.662	21424
866.793	21542
866.924	21637
867.055	21557
867.186	21637
867.317	21606
867.448	21466
867.579	21530
867.71	21481
867.841	21492
867.972	21523
868.103	21572
868.233	21542
868.364	21644
868.495	21675
868.625	21720
868.756	21918
868.886	21644
869.017	21709
869.147	21873
869.278	21953
869.408	21869
869.539	21869
869.669	21781
869.799	21884
869.929	21979
870.06	21915
870.19	22177
870.32	22063
870.45	22158
870.58	22287
870.71	22318
870.84	22303
870.97	22192
871.1	22196
871.23	22375
871.36	22409
871.489	22249
871.619	22272
871.749	22322
871.879	22424
872.008	22481
872.138	22531
872.267	22485
872.397	22257
872.526	22192
872.656	22185
872.785	22299
872.915	22440
873.044	22538
873.173	22348
873.303	22394
873.432	22451
873.561	22462
873.69	22455
873.819	22447
873.948	22424
874.077	22356
874.206	22447
874.335	22443
874.464	22588
874.593	22569
874.722	22713
874.851	22565
874.979	22538
875.108	22630
875.237	22630
875.365	22531
875.494	22618
875.623	22672
875.751	22630
875.88	22611
876.008	22763
876.136	22683
876.265	23048
876.393	23075
876.521	23155
876.65	23132
876.778	23029
876.906	22976
877.034	23029
877.162	22904
877.29	22858
877.418	22850
877.546	22987
877.674	22934
877.802	22987
877.93	22946
878.058	22957
878.185	22816
878.313	22828
878.441	23041
878.568	22744
878.696	22942
878.824	23029
878.951	23044
879.079	22991
879.206	23197
879.333	23105
879.461	23033
879.588	22995
879.715	23132
879.842	23178
879.97	23056
880.097	22889
880.224	22615
880.351	22854
880.478	22812
880.605	22687
880.732	22812
880.859	23010
880.986	22824
881.112	22877
881.239	22713
881.366	22519
881.493	22360
881.619	22360
881.746	22424
881.872	22295
881.999	22367
882.125	22325
882.252	22398
882.378	22402
882.505	22440
882.631	22242
882.757	22120
882.883	22013
883.01	22074
883.136	22074
883.262	21994
883.388	21857
883.514	22093
883.64	22074
883.766	21899
883.892	21842
884.018	21876
884.143	21968
884.269	22196
884.395	21720
884.52	21507
884.646	21675
884.772	21644
884.897	21564
885.023	21663
885.148	21778
885.274	21899
885.399	21762
885.524	21701
885.65	21705
885.775	21686
885.9	21663
886.025	21816
886.15	21736
886.275	21606
886.4	21561
886.525	21576
886.65	21572
886.775	21660
886.9	21827
887.025	21797
887.149	21705
887.274	21450
887.399	21439
887.523	21469
887.648	21340
887.773	21393
887.897	21431
888.021	21603
888.146	21393
888.27	21534
888.395	21507
888.519	21389
888.643	21401
888.767	21507
888.891	21272
889.015	21123
889.139	21252
889.263	21199
889.387	21355
889.511	21348
889.635	21321
889.759	21268
889.883	21268
890.006	21317
890.13	21226
890.254	21138
890.377	21089
890.501	20986
890.624	20906
890.748	21146
890.871	20895
890.995	20754
891.118	20750
891.241	20746
891.364	20834
891.488	20933
891.611	20853
891.734	20788
891.857	20785
891.98	20792
892.103	20788
892.226	20712
892.349	20762
892.471	20583
892.594	20655
892.717	20781
892.839	20644
892.962	20815
893.085	20651
893.207	20606
893.33	20640
893.452	20701
893.575	20640
893.697	20613
893.819	20762
893.941	20777
894.064	20674
894.186	20697
894.308	20575
894.43	20606
894.552	20910
894.674	20807
894.796	20602
894.918	20663
895.04	20545
895.161	20845
895.283	20701
895.405	20533
895.526	20621
895.648	20533
895.769	20792
895.891	20727
896.012	20678
896.134	20735
896.255	20720
896.376	20629
896.498	20670
896.619	20640
896.74	20659
896.861	20724
896.982	20979
897.103	21176
897.224	20921
897.345	20765
897.466	20834
897.587	20910
897.708	20914
897.828	20952
897.949	20750
898.07	20823
898.19	20864
898.311	20762
898.431	20788
898.552	20914
898.672	20868
898.792	20823
898.913	20861
899.033	20731
899.153	20629
899.273	20530
899.393	20514
899.513	20701
899.633	20579
899.753	20590
899.873	20526
899.993	20648
900.113	20400
900.232	20457
900.352	20564
900.472	20446
900.591	20377
900.711	20476
900.83	20309
900.95	20385
901.069	20385
901.189	20290
901.308	20088
901.427	19989
901.546	19890
901.665	19925
901.784	19993
901.904	19761
902.023	19723
902.141	19582
902.26	19548
902.379	19457
902.498	19434
902.617	19438
902.735	19358
902.854	19312
902.973	19377
903.091	19118
903.21	19168
903.328	19069
903.446	19118
903.565	18852
903.683	18897
903.801	18825
903.919	18787
904.038	18943
904.156	18711
904.274	18825
904.392	18684
904.51	18623
904.627	18749
904.745	18684
904.863	18783
904.981	18490
905.098	18300
905.216	18292
905.334	18372
905.451	18365
905.569	18384
905.686	18376
905.803	18388
905.921	18064
906.038	18182
906.155	18186
906.272	18174
906.389	18003
906.506	17901
906.623	17901
906.74	17950
906.857	17767
906.974	17729
907.091	18007
907.208	17950
907.324	17893
907.441	17695
907.557	17649
907.674	17615
907.79	17562
907.907	17524
908.023	17577
908.139	17562
908.256	17486
908.372	17471
908.488	17516
908.604	17398
908.72	17364
908.836	17326
908.952	17372
909.068	17311
909.184	17406
909.3	17311
909.415	17349
909.531	17284
909.647	16976
909.762	17083
909.878	16984
909.993	17003
910.108	17022
910.224	16984
910.339	16946
910.454	16904
910.57	16919
910.685	16820
910.8	17037
910.915	16900
911.03	16869
911.145	16702
911.259	16725
911.374	16546
911.489	16630
911.604	16504
911.718	16257
911.833	16329
911.947	16291
912.062	16181
912.176	16306
912.291	16306
912.405	16280
912.519	16535
912.633	16493
912.748	16447
912.862	16272
912.976	16158
913.09	16078
913.204	16074
913.318	16181
913.431	16280
913.545	16280
913.659	16276
913.772	16162
913.886	15953
914	15945
914.113	16112
914.226	16013
914.34	15949
914.453	15785
914.566	15953
914.68	15835
914.793	15842
914.906	15637
915.019	15507
915.132	15530
915.245	15428
915.358	15504
915.47	15648
915.583	15557
915.696	15534
915.809	15523
915.921	15774
916.034	15466
916.146	15450
916.259	15397
916.371	15462
916.483	15412
916.595	15340
916.708	15374
916.82	15397
916.932	15439
917.044	15310
917.156	15203
917.268	15100
917.38	15245
917.491	15199
917.603	15157
917.715	15226
917.826	15306
917.938	15180
918.049	15005
918.161	15203
918.272	15245
918.384	15207
918.495	15032
918.606	15020
918.717	14845
918.828	14956
918.939	14933
919.05	14941
919.161	14914
919.272	14682
919.383	14769
919.494	14937
919.604	14960
919.715	14914
919.826	14845
919.936	14960
920.047	15051
920.157	14933
920.267	15062
920.378	14880
920.488	14849
920.598	15066
920.708	15131
920.818	15028
920.928	14975
921.038	15135
921.148	15138
921.258	14872
921.368	14674
921.477	14670
921.587	14613
921.697	14560
921.806	14651
921.916	14480
922.025	14339
922.134	14248
922.244	14225
922.353	14237
922.462	14058
922.571	14100
922.68	13932
922.789	13894
922.898	13860
923.007	13890
923.116	13868
923.224	13887
923.333	13944
923.442	13799
923.55	13658
923.659	13727
923.767	13841
923.876	13700
923.984	13715
924.092	13575
924.201	13643
924.309	13537
924.417	13597
924.525	13468
924.633	13537
924.741	14400
924.849	13483
924.956	13483
925.064	13270
925.172	13232
925.279	13312
925.387	13324
925.494	13175
925.602	13430
925.709	13343
925.816	13183
925.924	13198
926.031	13289
926.138	13289
926.245	13324
926.352	13084
926.459	13285
926.566	13312
926.673	13133
926.779	12977
926.886	13023
926.993	12909
927.099	12787
927.206	12741
927.312	12703
927.419	12882
927.525	12787
927.631	12875
927.737	12635
927.843	12646
927.95	12585
928.056	12631
928.162	12703
928.267	12738
928.373	13129
928.479	12662
928.585	12448
928.69	12608
928.796	12650
928.901	12437
929.007	12391
929.112	12483
929.218	12483
929.323	12353
929.428	12376
929.533	12429
929.638	12327
929.743	12251
929.848	12391
929.953	12281
930.058	12251
930.163	12087
930.267	12114
930.372	12083
930.477	11992
930.581	12262
930.685	12057
930.79	11992
930.894	11916
930.998	11904
931.103	12034
931.207	11646
931.311	11623
931.415	11551
931.519	11261
931.623	11273
