Data from test_V78500241_884.txt Node
Date: Fri Mar 25 15:16:00 CST 2022
User: usil
Spectrometer: V785-0024
Trigger mode: 0
Integration Time (sec): 4.000000E-1
Scans to average: 1
Nonlinearity correction enabled: false
Boxcar width: 0
Storing dark spectrum: false
XAxis mode: Wavelengths
Number of Pixels in Spectrum: 1024
>>>>>Begin Spectral Data<<<<<
801.071	28128
801.214	28109
801.356	27857
801.499	27709
801.641	27766
801.783	27610
801.926	27739
802.068	27656
802.211	27549
802.353	27553
802.496	27291
802.638	27363
802.78	27226
802.923	27469
803.065	27169
803.208	27279
803.35	27260
803.492	27393
803.635	27610
803.777	27447
803.919	27283
804.061	27781
804.204	27530
804.346	27450
804.488	27378
804.63	27427
804.773	27447
804.915	27587
805.057	27732
805.199	27492
805.341	27545
805.483	27728
805.626	27671
805.768	27526
805.91	27564
806.052	27538
806.194	27671
806.336	27835
806.478	27682
806.62	27523
806.762	27884
806.904	28051
807.046	28242
807.188	28067
807.33	28036
807.472	28116
807.614	28044
807.756	28063
807.898	28013
808.04	27880
808.182	27926
808.324	27873
808.465	27895
808.607	28135
808.749	28181
808.891	28516
809.033	28386
809.174	28287
809.316	28265
809.458	28318
809.6	28348
809.741	28527
809.883	28550
810.025	28508
810.166	28557
810.308	28550
810.45	28615
810.591	28466
810.733	28409
810.875	28329
811.016	28185
811.158	28257
811.299	28421
811.441	28584
811.582	28443
811.724	28303
811.865	28207
812.007	28314
812.148	28367
812.29	28207
812.431	28569
812.573	28656
812.714	28835
812.855	28839
812.997	28915
813.138	28976
813.279	28980
813.421	28911
813.562	28759
813.703	28485
813.845	28672
813.986	28375
814.127	28135
814.268	28090
814.41	28116
814.551	28048
814.692	28067
814.833	28059
814.974	27937
815.115	28139
815.256	27934
815.397	27922
815.539	27895
815.68	27838
815.821	27739
815.962	27918
816.103	27690
816.244	27797
816.385	27576
816.526	27519
816.666	27481
816.807	27363
816.948	27545
817.089	27675
817.23	27287
817.371	27222
817.512	27401
817.653	27386
817.793	27291
817.934	27264
818.075	27329
818.216	27268
818.356	27351
818.497	27260
818.638	27119
818.778	27001
818.919	27028
819.06	27138
819.2	27245
819.341	27310
819.481	27272
819.622	27427
819.762	27641
819.903	27675
820.043	27553
820.184	27500
820.324	27454
820.465	27431
820.605	27450
820.746	27454
820.886	27367
821.026	27416
821.167	27408
821.307	27496
821.447	27351
821.588	27104
821.728	27119
821.868	26883
822.008	26773
822.149	26868
822.289	26796
822.429	26571
822.569	26404
822.709	26575
822.849	26305
822.99	26298
823.13	26385
823.27	26183
823.41	26168
823.55	26027
823.69	26164
823.83	26107
823.97	26103
824.11	25951
824.25	26008
824.389	25993
824.529	26035
824.669	25993
824.809	26050
824.949	26107
825.089	26073
825.228	25890
825.368	25833
825.508	25822
825.648	25978
825.787	25814
825.927	25978
826.067	25791
826.206	25833
826.346	25913
826.485	25989
826.625	25921
826.765	25936
826.904	25887
827.044	25685
827.183	25655
827.323	25544
827.462	25525
827.601	25635
827.741	25628
827.88	25609
828.02	25571
828.159	25632
828.298	25556
828.437	25635
828.577	25544
828.716	25567
828.855	25662
828.994	25274
829.134	25240
829.273	25377
829.412	25187
829.551	25122
829.69	25289
829.829	25190
829.968	25388
830.107	25221
830.246	25202
830.385	25213
830.524	25107
830.663	25084
830.802	25099
830.941	24920
831.08	24867
831.219	25012
831.357	24920
831.496	25012
831.635	24920
831.774	24844
831.913	24707
832.051	24650
832.19	24692
832.329	24589
832.467	24608
832.606	24570
832.744	24544
832.883	24582
833.022	24536
833.16	24437
833.299	24608
833.437	24768
833.576	24578
833.714	24540
833.852	24753
833.991	24711
834.129	24593
834.267	24673
834.406	24623
834.544	24726
834.682	24627
834.821	24642
834.959	24734
835.097	24623
835.235	24536
835.373	24635
835.511	24669
835.65	24426
835.788	24464
835.926	24258
836.064	24403
836.202	24266
836.34	24433
836.478	24513
836.615	24407
836.753	24559
836.891	24483
837.029	24502
837.167	24365
837.305	24342
837.443	24216
837.58	24281
837.718	24232
837.856	24273
837.993	24167
838.131	24239
838.269	24136
838.406	24125
838.544	24049
838.681	23893
838.819	24015
838.956	23783
839.094	23592
839.231	23729
839.369	23885
839.506	24182
839.643	23920
839.781	23710
839.918	23680
840.055	23756
840.193	23634
840.33	23566
840.467	23718
840.604	23714
840.742	23798
840.879	23493
841.016	23577
841.153	23520
841.29	23657
841.427	23741
841.564	23687
841.701	23642
841.838	23611
841.975	23619
842.112	23646
842.249	23490
842.385	23376
842.522	23615
842.659	23440
842.796	23376
842.933	23455
843.069	23463
843.206	23429
843.343	23490
843.479	23429
843.616	23467
843.752	23277
843.889	23326
844.025	23406
844.162	23124
844.298	23315
844.435	23220
844.571	23128
844.708	23197
844.844	23459
844.98	23284
845.117	23174
845.253	23162
845.389	23064
845.525	23216
845.661	23033
845.798	22953
845.934	23010
846.07	22850
846.206	22927
846.342	23086
846.478	22908
846.614	22717
846.75	22748
846.886	22607
847.022	22622
847.158	22721
847.294	22535
847.429	22710
847.565	22622
847.701	22881
847.837	22352
847.972	22272
848.108	22504
848.244	22421
848.379	22280
848.515	22219
848.65	22223
848.786	22299
848.921	22352
849.057	22413
849.192	22402
849.328	22265
849.463	22249
849.598	22185
849.734	22131
849.869	22158
850.004	21991
850.14	22048
850.275	21983
850.41	21987
850.545	22078
850.68	22051
850.815	22029
850.95	22029
851.085	22135
851.22	22128
851.355	22112
851.49	21941
851.625	22006
851.76	22013
851.895	21934
852.03	21979
852.165	22059
852.299	22143
852.434	22120
852.569	22051
852.703	22067
852.838	22166
852.973	22131
853.107	22086
853.242	22013
853.376	21869
853.511	21656
853.645	21743
853.78	21956
853.914	21903
854.048	21797
854.183	21755
854.317	21918
854.451	22017
854.585	21800
854.72	21846
854.854	21850
854.988	21762
855.122	21892
855.256	21793
855.39	21865
855.524	21907
855.658	21838
855.792	21816
855.926	21800
856.06	21987
856.194	21937
856.327	21892
856.461	21732
856.595	21743
856.729	21812
856.862	21915
856.996	21873
857.13	21869
857.263	21857
857.397	21838
857.53	21823
857.664	21983
857.797	21941
857.931	21926
858.064	21903
858.197	21960
858.331	21926
858.464	21800
858.597	21633
858.731	21831
858.864	21785
858.997	21736
859.13	21865
859.263	21850
859.396	21800
859.529	21755
859.662	21739
859.795	21762
859.928	21819
860.061	21998
860.194	22040
860.327	21884
860.46	21732
860.592	21899
860.725	21998
860.858	22013
860.99	21709
861.123	21743
861.256	21781
861.388	21876
861.521	22691
861.653	21785
861.786	21641
861.918	21644
862.05	21633
862.183	21751
862.315	21755
862.447	21949
862.58	21819
862.712	21504
862.844	21549
862.976	21648
863.108	21724
863.24	21861
863.372	21389
863.504	21591
863.636	21595
863.768	21583
863.9	21538
864.032	21439
864.164	21420
864.296	21591
864.428	21622
864.559	21622
864.691	21549
864.823	21709
864.954	21526
865.086	21538
865.217	21447
865.349	21313
865.48	21382
865.612	21435
865.743	21606
865.875	21378
866.006	21378
866.137	21507
866.269	21378
866.4	21462
866.531	21393
866.662	21268
866.793	21256
866.924	21389
867.055	21382
867.186	21416
867.317	21306
867.448	21272
867.579	21370
867.71	21161
867.841	21344
867.972	21382
868.103	21249
868.233	21291
868.364	21249
868.495	21397
868.625	21679
868.756	21743
868.886	21580
869.017	21652
869.147	21633
869.278	21713
869.408	21534
869.539	21690
869.669	21679
869.799	21618
869.929	21720
870.06	21743
870.19	21884
870.32	21918
870.45	21884
870.58	21907
870.71	22112
870.84	22120
870.97	21975
871.1	21987
871.23	22101
871.36	22192
871.489	22048
871.619	22128
871.749	22063
871.879	22242
872.008	22265
872.138	22181
872.267	22226
872.397	22135
872.526	21922
872.656	22070
872.785	22013
872.915	22162
873.044	22242
873.173	22280
873.303	22223
873.432	22284
873.561	22329
873.69	22173
873.819	22173
873.948	22299
874.077	22188
874.206	22249
874.335	22306
874.464	22223
874.593	22398
874.722	22367
874.851	22481
874.979	22512
875.108	22367
875.237	22310
875.365	22280
875.494	22375
875.623	22462
875.751	22413
875.88	22371
876.008	22615
876.136	22626
876.265	22824
876.393	22942
876.521	22759
876.65	22911
876.778	22782
876.906	22618
877.034	22713
877.162	22797
877.29	22850
877.418	22839
877.546	22664
877.674	22664
877.802	22774
877.93	22778
878.058	22698
878.185	22649
878.313	22645
878.441	22733
878.568	22519
878.696	22641
878.824	22793
878.951	22778
879.079	22942
879.206	23117
879.333	22896
879.461	22896
879.588	22805
879.715	22999
879.842	23064
879.97	22828
880.097	22561
880.224	22706
880.351	22702
880.478	22611
880.605	22432
880.732	22592
880.859	22946
880.986	22546
881.112	22622
881.239	22447
881.366	22207
881.493	22215
881.619	22234
881.746	22086
881.872	22070
881.999	22200
882.125	22177
882.252	22249
882.378	22078
882.505	22188
882.631	21926
882.757	21915
882.883	21899
883.01	21888
883.136	21717
883.262	21603
883.388	21728
883.514	21812
883.64	21937
883.766	21736
883.892	21698
884.018	21679
884.143	21717
884.269	21953
884.395	21591
884.52	21374
884.646	21485
884.772	21374
884.897	21393
885.023	21466
885.148	21572
885.274	21545
885.399	21622
885.524	21439
885.65	21496
885.775	21500
885.9	21458
886.025	21583
886.15	21435
886.275	21374
886.4	21412
886.525	21553
886.65	21317
886.775	21325
886.9	21545
887.025	21580
887.149	21519
887.274	21344
887.399	21222
887.523	21306
887.648	21279
887.773	21173
887.897	21332
888.021	21207
888.146	21283
888.27	21230
888.395	21241
888.519	21302
888.643	21199
888.767	21393
888.891	21161
889.015	21005
889.139	21131
889.263	21017
889.387	21116
889.511	21252
889.635	21112
889.759	21017
889.883	21051
890.006	21123
890.13	21165
890.254	20982
890.377	21001
890.501	20811
890.624	20689
890.748	20762
890.871	20674
890.995	20469
891.118	20583
891.241	20530
891.364	20514
891.488	20667
891.611	20617
891.734	20659
891.857	20678
891.98	20686
892.103	20705
892.226	20686
892.349	20514
892.471	20408
892.594	20537
892.717	20590
892.839	20473
892.962	20518
893.085	20640
893.207	20511
893.33	20469
893.452	20377
893.575	20522
893.697	20476
893.819	20670
893.941	20815
894.064	20644
894.186	20442
894.308	20469
894.43	20503
894.552	20651
894.674	20514
894.796	20469
894.918	20503
895.04	20465
895.161	20522
895.283	20522
895.405	20473
895.526	20533
895.648	20530
895.769	20511
895.891	20499
896.012	20530
896.134	20480
896.255	20484
896.376	20442
896.498	20484
896.619	20564
896.74	20545
896.861	20575
896.982	20918
897.103	20967
897.224	20853
897.345	20785
897.466	20655
897.587	20667
897.708	20861
897.828	20689
897.949	20693
898.07	20579
898.19	20560
898.311	20777
898.431	20556
898.552	20697
898.672	20739
898.792	20769
898.913	20731
899.033	20583
899.153	20370
899.273	20503
899.393	20541
899.513	20530
899.633	20434
899.753	20492
899.873	20499
899.993	20389
900.113	20385
900.232	20381
900.352	20404
900.472	20313
900.591	20229
900.711	20267
900.83	20126
900.95	20271
901.069	20225
901.189	20240
901.308	19921
901.427	19864
901.546	19864
901.665	19852
901.784	19849
901.904	19685
902.023	19502
902.141	19411
902.26	19274
902.379	19460
902.498	19236
902.617	19293
902.735	19434
902.854	19301
902.973	19152
903.091	18913
903.21	18947
903.328	18932
903.446	18719
903.565	18703
903.683	18890
903.801	18726
903.919	18639
904.038	18791
904.156	18585
904.274	18601
904.392	18532
904.51	18452
904.627	18620
904.745	18509
904.863	18585
904.981	18353
905.098	18209
905.216	18216
905.334	18232
905.451	18281
905.569	18220
905.686	18232
905.803	18194
905.921	18087
906.038	18064
906.155	18038
906.272	17874
906.389	17843
906.506	17748
906.623	17794
906.74	17619
906.857	17596
906.974	17649
907.091	17733
907.208	17802
907.324	17638
907.441	17646
907.557	17406
907.674	17448
907.79	17429
907.907	17326
908.023	17455
908.139	17341
908.256	17322
908.372	17376
908.488	17318
908.604	17166
908.72	17105
908.836	17109
908.952	17212
909.068	17079
909.184	17189
909.3	17166
909.415	17197
909.531	17193
909.647	16934
909.762	16862
909.878	16835
909.993	16953
910.108	16850
910.224	16790
910.339	16801
910.454	16687
910.57	16740
910.685	16523
910.8	16946
910.915	16740
911.03	16641
911.145	16519
911.259	16493
911.374	16523
911.489	16295
911.604	16432
911.718	16154
911.833	16192
911.947	16173
912.062	16036
912.176	16211
912.291	16150
912.405	16166
912.519	16341
912.633	16303
912.748	16348
912.862	16230
912.976	15968
913.09	15884
913.204	15994
913.318	16048
913.431	16105
913.545	16112
913.659	15998
913.772	15953
913.886	15835
914	15800
914.113	15926
914.226	15827
914.34	15831
914.453	15648
914.566	15835
914.68	15736
914.793	15675
914.906	15492
915.019	15386
915.132	15447
915.245	15439
915.358	15454
915.47	15363
915.583	15367
915.696	15355
915.809	15496
915.921	15545
916.034	15302
916.146	15317
916.259	15226
916.371	15310
916.483	15332
916.595	15310
916.708	15245
916.82	15218
916.932	15051
917.044	15180
917.156	15161
917.268	15005
917.38	15123
917.491	14952
917.603	15085
917.715	15066
917.826	15104
917.938	14971
918.049	14986
918.161	14956
918.272	15123
918.384	15097
918.495	14971
918.606	14815
918.717	14823
918.828	14880
918.939	14785
919.05	14792
919.161	14777
919.272	14564
919.383	14560
919.494	14826
919.604	15051
919.715	14880
919.826	14788
919.936	14651
920.047	14823
920.157	14659
920.267	14952
920.378	14735
920.488	14750
920.598	14849
920.708	15062
920.818	14842
920.928	14880
921.038	15017
921.148	14960
921.258	14720
921.368	14613
921.477	14499
921.587	14454
921.697	14370
921.806	14526
921.916	14347
922.025	14172
922.134	14088
922.244	14096
922.353	14123
922.462	13967
922.571	13898
922.68	13833
922.789	13772
922.898	13791
923.007	13715
923.116	13841
923.224	13681
923.333	13746
923.442	13601
923.55	13540
923.659	13655
923.767	13655
923.876	13548
923.984	13624
924.092	13396
924.201	13460
924.309	13491
924.417	13441
924.525	13354
924.633	13407
924.741	14210
924.849	13179
924.956	13377
925.064	13232
925.172	13129
925.279	13175
925.387	13213
925.494	13084
925.602	13377
925.709	13198
925.816	13118
925.924	13080
926.031	13152
926.138	13122
926.245	13179
926.352	12966
926.459	13145
926.566	13122
926.673	13023
926.779	12970
926.886	12920
926.993	12749
927.099	12673
927.206	12696
927.312	12692
927.419	12749
927.525	12726
927.631	12703
927.737	12593
927.843	12460
927.95	12395
928.056	12593
928.162	12509
928.267	12570
928.373	13084
928.479	12662
928.585	12372
928.69	12506
928.796	12547
928.901	12460
929.007	12254
929.112	12410
929.218	12357
929.323	12277
929.428	12338
929.533	12380
929.638	12182
929.743	12247
929.848	12266
929.953	12262
930.058	12095
930.163	11969
930.267	11984
930.372	12015
930.477	11805
930.581	12140
930.685	11923
930.79	11897
930.894	11794
930.998	11798
931.103	11863
931.207	11551
931.311	11512
931.415	11391
931.519	11197
931.623	11181
