Data from test_V78500241_2373.txt Node
Date: Fri Mar 25 15:26:22 CST 2022
User: usil
Spectrometer: V785-0024
Trigger mode: 0
Integration Time (sec): 4.000000E-1
Scans to average: 1
Nonlinearity correction enabled: false
Boxcar width: 0
Storing dark spectrum: false
XAxis mode: Wavelengths
Number of Pixels in Spectrum: 1024
>>>>>Begin Spectral Data<<<<<
801.071	27648
801.214	27504
801.356	27218
801.499	27123
801.641	27085
801.783	27051
801.926	27089
802.068	27039
802.211	26990
802.353	26990
802.496	26655
802.638	26743
802.78	26598
802.923	26617
803.065	26492
803.208	26549
803.35	26697
803.492	26842
803.635	26765
803.777	26769
803.919	26796
804.061	27150
804.204	26914
804.346	26636
804.488	26651
804.63	26765
804.773	26746
804.915	26792
805.057	26872
805.199	26815
805.341	26891
805.483	27070
805.626	26940
805.768	26853
805.91	26975
806.052	26990
806.194	26910
806.336	27123
806.478	26910
806.62	26902
806.762	26963
806.904	27142
807.046	27370
807.188	27454
807.33	27412
807.472	27462
807.614	27420
807.756	27348
807.898	27268
808.04	27062
808.182	27188
808.324	27123
808.465	27256
808.607	27443
808.749	27458
808.891	27648
809.033	27770
809.174	27679
809.316	27572
809.458	27656
809.6	27568
809.741	27629
809.883	27724
810.025	27732
810.166	27861
810.308	27713
810.45	27827
810.591	27583
810.733	27507
810.875	27656
811.016	27519
811.158	27511
811.299	27622
811.441	27622
811.582	27485
811.724	27576
811.865	27545
812.007	27534
812.148	27477
812.29	27485
812.431	27751
812.573	27857
812.714	27930
812.855	27979
812.997	28226
813.138	28200
813.279	28097
813.421	27994
813.562	27964
813.703	27892
813.845	27739
813.986	27545
814.127	27359
814.268	27173
814.41	27135
814.551	27161
814.692	27317
814.833	27074
814.974	27192
815.115	27222
815.256	27127
815.397	27184
815.539	27100
815.68	27100
815.821	26967
815.962	27077
816.103	27017
816.244	26872
816.385	26902
816.526	26811
816.666	26587
816.807	26351
816.948	26575
817.089	26648
817.23	26522
817.371	26545
817.512	26473
817.653	26313
817.793	26351
817.934	26412
818.075	26408
818.216	26419
818.356	26393
818.497	26442
818.638	26172
818.778	26396
818.919	26252
819.06	26259
819.2	26229
819.341	26598
819.481	26480
819.622	26530
819.762	26735
819.903	26777
820.043	26693
820.184	26606
820.324	26560
820.465	26579
820.605	26636
820.746	26541
820.886	26488
821.026	26514
821.167	26507
821.307	26670
821.447	26461
821.588	26480
821.728	26358
821.868	26088
822.008	26046
822.149	25860
822.289	25928
822.429	25712
822.569	25502
822.709	25655
822.849	25460
822.99	25502
823.13	25403
823.27	25316
823.41	25438
823.55	25198
823.69	25396
823.83	25232
823.97	25320
824.11	25004
824.25	24924
824.389	25171
824.529	25282
824.669	25091
824.809	25099
824.949	25190
825.089	25164
825.228	25099
825.368	24996
825.508	24954
825.648	25046
825.787	24935
825.927	25156
826.067	24863
826.206	24890
826.346	25050
826.485	24928
826.625	24798
826.765	24989
826.904	24897
827.044	24711
827.183	24604
827.323	24658
827.462	24681
827.601	24741
827.741	24730
827.88	24692
828.02	24528
828.159	24661
828.298	24654
828.437	24821
828.577	24494
828.716	24817
828.855	24513
828.994	24353
829.134	24426
829.273	24391
829.412	24418
829.551	24353
829.69	24327
829.829	24460
829.968	24346
830.107	24418
830.246	24410
830.385	24285
830.524	24235
830.663	24190
830.802	24095
830.941	23954
831.08	24018
831.219	24026
831.357	24060
831.496	24186
831.635	24076
831.774	23916
831.913	23885
832.051	23809
832.19	23623
832.329	23843
832.467	23855
832.606	23649
832.744	23680
832.883	23596
833.022	23551
833.16	23695
833.299	23676
833.437	23665
833.576	23630
833.714	23699
833.852	23745
833.991	23767
834.129	23817
834.267	23935
834.406	23592
834.544	23752
834.682	23859
834.821	23783
834.959	23843
835.097	23737
835.235	23813
835.373	23817
835.511	23695
835.65	23539
835.788	23566
835.926	23463
836.064	23398
836.202	23368
836.34	23554
836.478	23604
836.615	23452
836.753	23474
836.891	23600
837.029	23596
837.167	23535
837.305	23474
837.443	23353
837.58	23280
837.718	23440
837.856	23376
837.993	23296
838.131	23284
838.269	23254
838.406	23376
838.544	23296
838.681	23071
838.819	23029
838.956	22782
839.094	22949
839.231	22774
839.369	22995
839.506	23277
839.643	23178
839.781	22965
839.918	22854
840.055	22881
840.193	22809
840.33	22729
840.467	22797
840.604	22759
840.742	23056
840.879	22641
841.016	22774
841.153	22592
841.29	22892
841.427	22687
841.564	22881
841.701	22778
841.838	22725
841.975	22744
842.112	22706
842.249	22656
842.385	22493
842.522	22733
842.659	22675
842.796	22516
842.933	22535
843.069	22470
843.206	22535
843.343	22535
843.479	22470
843.616	22459
843.752	22325
843.889	22432
844.025	22512
844.162	22265
844.298	22341
844.435	22329
844.571	22303
844.708	22382
844.844	22607
844.98	22557
845.117	22375
845.253	22230
845.389	22207
845.525	22215
845.661	22215
845.798	22051
845.934	22139
846.07	22032
846.206	22090
846.342	22188
846.478	21956
846.614	21960
846.75	21739
846.886	21694
847.022	21930
847.158	21797
847.294	21876
847.429	21793
847.565	21800
847.701	21930
847.837	21462
847.972	21511
848.108	21511
848.244	21606
848.379	21298
848.515	21420
848.65	21386
848.786	21496
848.921	21351
849.057	21454
849.192	21473
849.328	21458
849.463	21344
849.598	21287
849.734	21150
849.869	21348
850.004	21195
850.14	21249
850.275	21062
850.41	21116
850.545	21116
850.68	21207
850.815	21108
850.95	21051
851.085	21317
851.22	21154
851.355	21138
851.49	21161
851.625	21058
851.76	21093
851.895	21024
852.03	21043
852.165	21058
852.299	21096
852.434	21169
852.569	21116
852.703	21085
852.838	21310
852.973	21252
853.107	21188
853.242	21169
853.376	20895
853.511	20758
853.645	21020
853.78	21039
853.914	20986
854.048	20899
854.183	20982
854.317	20918
854.451	21146
854.585	20990
854.72	20956
854.854	20944
854.988	20918
855.122	20906
855.256	20857
855.39	21013
855.524	21028
855.658	21161
855.792	20975
855.926	20960
856.06	20998
856.194	20944
856.327	21039
856.461	20887
856.595	20986
856.729	20963
856.862	20956
856.996	20925
857.13	21013
857.263	21119
857.397	21100
857.53	20967
857.664	21142
857.797	21024
857.931	21081
858.064	20899
858.197	21112
858.331	20986
858.464	20876
858.597	20982
858.731	20902
858.864	20944
858.997	20906
859.13	20944
859.263	20891
859.396	21055
859.529	20944
859.662	20990
859.795	20861
859.928	20960
860.061	21173
860.194	21112
860.327	21001
860.46	20941
860.592	21066
860.725	21195
860.858	21161
860.99	20960
861.123	20941
861.256	20830
861.388	20952
861.521	21583
861.653	20819
861.786	20746
861.918	20735
862.05	20708
862.183	20971
862.315	20948
862.447	20910
862.58	20933
862.712	20674
862.844	20682
862.976	20735
863.108	20659
863.24	21123
863.372	20560
863.504	20682
863.636	20800
863.768	20651
863.9	20640
864.032	20564
864.164	20594
864.296	20705
864.428	20819
864.559	20792
864.691	20792
864.823	20659
864.954	20625
865.086	20689
865.217	20602
865.349	20575
865.48	20492
865.612	20579
865.743	20727
865.875	20693
866.006	20590
866.137	20511
866.269	20606
866.4	20480
866.531	20583
866.662	20457
866.793	20454
866.924	20454
867.055	20457
867.186	20579
867.317	20526
867.448	20552
867.579	20507
867.71	20381
867.841	20438
867.972	20442
868.103	20431
868.233	20560
868.364	20602
868.495	20686
868.625	20739
868.756	20952
868.886	20632
869.017	20800
869.147	20834
869.278	20910
869.408	20842
869.539	20758
869.669	20792
869.799	20800
869.929	20857
870.06	20781
870.19	21066
870.32	21009
870.45	21085
870.58	21188
870.71	21268
870.84	21340
870.97	21176
871.1	21127
871.23	21332
871.36	21405
871.489	21256
871.619	21313
871.749	21420
871.879	21321
872.008	21428
872.138	21386
872.267	21359
872.397	21165
872.526	21184
872.656	21169
872.785	21237
872.915	21424
873.044	21424
873.173	21348
873.303	21424
873.432	21496
873.561	21485
873.69	21447
873.819	21359
873.948	21336
874.077	21332
874.206	21325
874.335	21355
874.464	21523
874.593	21618
874.722	21568
874.851	21629
874.979	21629
875.108	21542
875.237	21424
875.365	21488
875.494	21595
875.623	21709
875.751	21591
875.88	21564
876.008	21766
876.136	21717
876.265	22051
876.393	22207
876.521	22048
876.65	22048
876.778	22025
876.906	21930
877.034	21926
877.162	21979
877.29	22010
877.418	22051
877.546	21983
877.674	21926
877.802	21972
877.93	22010
878.058	21895
878.185	21895
878.313	21964
878.441	21926
878.568	21797
878.696	21876
878.824	21949
878.951	22032
879.079	22109
879.206	22173
879.333	22078
879.461	21991
879.588	22101
879.715	22257
879.842	22169
879.97	22070
880.097	21937
880.224	21854
880.351	21819
880.478	21827
880.605	21690
880.732	21842
880.859	22063
880.986	21819
881.112	21774
881.239	21679
881.366	21405
881.493	21332
881.619	21435
881.746	21389
881.872	21363
881.999	21359
882.125	21294
882.252	21420
882.378	21325
882.505	21561
882.631	21275
882.757	21222
882.883	21154
883.01	21051
883.136	20986
883.262	20982
883.388	20849
883.514	21009
883.64	21135
883.766	20937
883.892	20826
884.018	20925
884.143	21009
884.269	21104
884.395	20830
884.52	20758
884.646	20769
884.772	20552
884.897	20583
885.023	20800
885.148	20792
885.274	20853
885.399	20804
885.524	20796
885.65	20678
885.775	20849
885.9	20705
886.025	20819
886.15	20811
886.275	20636
886.4	20606
886.525	20769
886.65	20594
886.775	20727
886.9	20750
887.025	20849
887.149	20731
887.274	20480
887.399	20438
887.523	20530
887.648	20408
887.773	20301
887.897	20499
888.021	20602
888.146	20457
888.27	20507
888.395	20587
888.519	20457
888.643	20446
888.767	20415
888.891	20389
889.015	20278
889.139	20275
889.263	20256
889.387	20438
889.511	20423
889.635	20355
889.759	20161
889.883	20263
890.006	20290
890.13	20374
890.254	20172
890.377	20084
890.501	20107
890.624	20054
890.748	20096
890.871	19936
890.995	19871
891.118	19811
891.241	19750
891.364	19837
891.488	19944
891.611	19959
891.734	19822
891.857	19902
891.98	19875
892.103	19852
892.226	19826
892.349	19864
892.471	19658
892.594	19742
892.717	19883
892.839	19833
892.962	19715
893.085	19791
893.207	19795
893.33	19696
893.452	19681
893.575	19833
893.697	19750
893.819	19894
893.941	20043
894.064	19955
894.186	19731
894.308	19742
894.43	19978
894.552	19940
894.674	19898
894.796	19681
894.918	19807
895.04	19666
895.161	19883
895.283	19875
895.405	19772
895.526	19662
895.648	19780
895.769	19753
895.891	19791
896.012	19936
896.134	19871
896.255	19799
896.376	19712
896.498	19818
896.619	19849
896.74	19845
896.861	19753
896.982	20153
897.103	20263
897.224	20077
897.345	19967
897.466	19955
897.587	20073
897.708	20191
897.828	20119
897.949	19993
898.07	19674
898.19	19951
898.311	20145
898.431	20016
898.552	20012
898.672	20058
898.792	19947
898.913	19997
899.033	19963
899.153	19807
899.273	19715
899.393	19731
899.513	19742
899.633	19742
899.753	19723
899.873	19753
899.993	19780
900.113	19742
900.232	19677
900.352	19586
900.472	19575
900.591	19464
900.711	19483
900.83	19487
900.95	19651
901.069	19613
901.189	19487
901.308	19095
901.427	19038
901.546	19152
901.665	19133
901.784	19034
901.904	18928
902.023	18852
902.141	18669
902.26	18612
902.379	18688
902.498	18654
902.617	18620
902.735	18688
902.854	18673
902.973	18502
903.091	18251
903.21	18308
903.328	18338
903.446	18220
903.565	18186
903.683	18182
903.801	18095
903.919	18049
904.038	18076
904.156	17920
904.274	17920
904.392	17939
904.51	17786
904.627	17863
904.745	17961
904.863	17931
904.981	17676
905.098	17600
905.216	17497
905.334	17604
905.451	17539
905.569	17520
905.686	17642
905.803	17520
905.921	17406
906.038	17471
906.155	17490
906.272	17254
906.389	17292
906.506	17117
906.623	17079
906.74	17033
906.857	16942
906.974	17079
907.091	17166
907.208	17151
907.324	17178
907.441	16987
907.557	16786
907.674	16828
907.79	16710
907.907	16771
908.023	16778
908.139	16812
908.256	16801
908.372	16675
908.488	16740
908.604	16577
908.72	16512
908.836	16588
908.952	16569
909.068	16607
909.184	16683
909.3	16580
909.415	16580
909.531	16508
909.647	16291
909.762	16306
909.878	16196
909.993	16284
910.108	16177
910.224	16147
910.339	16211
910.454	16074
910.57	16097
910.685	15979
910.8	16242
910.915	16249
911.03	16105
911.145	15804
911.259	15835
911.374	15918
911.489	15800
911.604	15698
911.718	15580
911.833	15606
911.947	15500
912.062	15424
912.176	15572
912.291	15652
912.405	15542
912.519	15793
912.633	15854
912.748	15629
912.862	15454
912.976	15458
913.09	15298
913.204	15435
913.318	15458
913.431	15538
913.545	15473
913.659	15561
913.772	15340
913.886	15287
914	15245
914.113	15256
914.226	15245
914.34	15233
914.453	15085
914.566	15298
914.68	15165
914.793	15005
914.906	14948
915.019	14899
915.132	14834
915.245	14864
915.358	14887
915.47	14819
915.583	14804
915.696	14918
915.809	14895
915.921	14933
916.034	14899
916.146	14701
916.259	14712
916.371	14876
916.483	14739
916.595	14655
916.708	14727
916.82	14667
916.932	14693
917.044	14606
917.156	14648
917.268	14594
917.38	14473
917.491	14587
917.603	14537
917.715	14590
917.826	14549
917.938	14400
918.049	14385
918.161	14457
918.272	14617
918.384	14480
918.495	14423
918.606	14259
918.717	14252
918.828	14351
918.939	14286
919.05	14191
919.161	14206
919.272	14008
919.383	14107
919.494	14218
919.604	14473
919.715	14172
919.826	14107
919.936	14134
920.047	14317
920.157	14301
920.267	14438
920.378	14240
920.488	14229
920.598	14400
920.708	14571
920.818	14488
920.928	14328
921.038	14530
921.148	14552
921.258	14244
921.368	14111
921.477	14043
921.587	13989
921.697	13879
921.806	13944
921.916	13875
922.025	13738
922.134	13624
922.244	13537
922.353	13734
922.462	13586
922.571	13476
922.68	13301
922.789	13331
922.898	13320
923.007	13198
923.116	13289
923.224	13312
923.333	13183
923.442	13168
923.55	13141
923.659	13031
923.767	13255
923.876	12928
923.984	13145
924.092	12939
924.201	13050
924.309	13031
924.417	13008
924.525	13004
924.633	12977
924.741	13837
924.849	12692
924.956	12875
925.064	12711
925.172	12635
925.279	12696
925.387	12738
925.494	12703
925.602	12821
925.709	12776
925.816	12654
925.924	12669
926.031	12707
926.138	12677
926.245	12669
926.352	12578
926.459	12753
926.566	12715
926.673	12502
926.779	12448
926.886	12395
926.993	12315
927.099	12300
927.206	12213
927.312	12228
927.419	12327
927.525	12270
927.631	12315
927.737	12205
927.843	12148
927.95	12049
928.056	12091
928.162	12121
928.267	12152
928.373	12753
928.479	12152
928.585	11977
928.69	12060
928.796	12163
928.901	11965
929.007	11813
929.112	11961
929.218	11821
929.323	11847
929.428	11805
929.533	12041
929.638	11726
929.743	11745
929.848	11843
929.953	11794
930.058	11729
930.163	11524
930.267	11532
930.372	11733
930.477	11410
930.581	11707
930.685	11604
930.79	11429
930.894	11497
930.998	11379
931.103	11471
931.207	11151
931.311	11113
931.415	10980
931.519	10786
931.623	10733
