Data from test_V78500241_2887.txt Node
Date: Fri Mar 25 15:29:57 CST 2022
User: usil
Spectrometer: V785-0024
Trigger mode: 0
Integration Time (sec): 4.000000E-1
Scans to average: 1
Nonlinearity correction enabled: false
Boxcar width: 0
Storing dark spectrum: false
XAxis mode: Wavelengths
Number of Pixels in Spectrum: 1024
>>>>>Begin Spectral Data<<<<<
801.071	27424
801.214	27222
801.356	27058
801.499	26891
801.641	26842
801.783	26762
801.926	26769
802.068	26765
802.211	26701
802.353	26568
802.496	26457
802.638	26301
802.78	26351
802.923	26484
803.065	26370
803.208	26393
803.35	26385
803.492	26446
803.635	26777
803.777	26461
803.919	26480
804.061	27001
804.204	26632
804.346	26537
804.488	26587
804.63	26465
804.773	26495
804.915	26552
805.057	26781
805.199	26701
805.341	26670
805.483	26648
805.626	26769
805.768	26651
805.91	26701
806.052	26579
806.194	26594
806.336	26792
806.478	26724
806.62	26712
806.762	26758
806.904	26921
807.046	27317
807.188	27020
807.33	27100
807.472	27135
807.614	27028
807.756	27154
807.898	26921
808.04	26842
808.182	26861
808.324	26967
808.465	27024
808.607	27157
808.749	27218
808.891	27283
809.033	27355
809.174	27389
809.316	27233
809.458	27340
809.6	27135
809.741	27481
809.883	27466
810.025	27542
810.166	27656
810.308	27614
810.45	27557
810.591	27519
810.733	27393
810.875	27279
811.016	27203
811.158	27233
811.299	27378
811.441	27511
811.582	27424
811.724	27302
811.865	27298
812.007	27184
812.148	27222
812.29	27310
812.431	27515
812.573	27656
812.714	27671
812.855	27861
812.997	27934
813.138	28032
813.279	27793
813.421	27854
813.562	27797
813.703	27492
813.845	27477
813.986	27211
814.127	26937
814.268	27013
814.41	27020
814.551	26925
814.692	27039
814.833	26937
814.974	26956
815.115	26982
815.256	26716
815.397	26823
815.539	26788
815.68	26762
815.821	26697
815.962	26758
816.103	26735
816.244	26495
816.385	26526
816.526	26385
816.666	26286
816.807	26275
816.948	26290
817.089	26374
817.23	26305
817.371	26240
817.512	26336
817.653	26237
817.793	26115
817.934	26199
818.075	26172
818.216	26339
818.356	26176
818.497	26115
818.638	26024
818.778	25925
818.919	26092
819.06	26084
819.2	26225
819.341	26199
819.481	26218
819.622	26343
819.762	26492
819.903	26579
820.043	26374
820.184	26423
820.324	26374
820.465	26492
820.605	26404
820.746	26358
820.886	26187
821.026	26339
821.167	26210
821.307	26122
821.447	26119
821.588	26111
821.728	25936
821.868	25894
822.008	25670
822.149	25738
822.289	25643
822.429	25392
822.569	25384
822.709	25335
822.849	25168
822.99	25274
823.13	25137
823.27	25129
823.41	24939
823.55	24871
823.69	25080
823.83	24939
823.97	24966
824.11	24753
824.25	24711
824.389	24795
824.529	24951
824.669	24707
824.809	24848
824.949	24985
825.089	24894
825.228	24814
825.368	24597
825.508	24673
825.648	24711
825.787	24703
825.927	24741
826.067	24722
826.206	24673
826.346	24890
826.485	24722
826.625	24665
826.765	24696
826.904	24745
827.044	24338
827.183	24452
827.323	24369
827.462	24441
827.601	24384
827.741	24258
827.88	24388
828.02	24235
828.159	24266
828.298	24380
828.437	24372
828.577	24243
828.716	24429
828.855	24232
828.994	24022
829.134	24049
829.273	24098
829.412	23984
829.551	24076
829.69	23977
829.829	24057
829.968	24155
830.107	24327
830.246	24136
830.385	24053
830.524	23965
830.663	23840
830.802	23764
830.941	23630
831.08	23733
831.219	23752
831.357	23840
831.496	23904
831.635	23596
831.774	23547
831.913	23573
832.051	23459
832.19	23322
832.329	23482
832.467	23356
832.606	23132
832.744	23322
832.883	23429
833.022	23349
833.16	23280
833.299	23292
833.437	23318
833.576	23459
833.714	23501
833.852	23410
833.991	23505
834.129	23417
834.267	23486
834.406	23531
834.544	23277
834.682	23322
834.821	23501
834.959	23543
835.097	23326
835.235	23452
835.373	23303
835.511	23452
835.65	23197
835.788	23223
835.926	23216
836.064	22976
836.202	23140
836.34	23178
836.478	23288
836.615	23200
836.753	23227
836.891	23147
837.029	23220
837.167	23246
837.305	23162
837.443	23185
837.58	23071
837.718	23136
837.856	23174
837.993	23060
838.131	22930
838.269	22877
838.406	22972
838.544	22839
838.681	22672
838.819	22618
838.956	22542
839.094	22569
839.231	22615
839.369	22786
839.506	22957
839.643	22763
839.781	22557
839.918	22421
840.055	22577
840.193	22531
840.33	22538
840.467	22455
840.604	22645
840.742	22748
840.879	22318
841.016	22466
841.153	22352
841.29	22546
841.427	22371
841.564	22546
841.701	22299
841.838	22443
841.975	22588
842.112	22462
842.249	22375
842.385	22272
842.522	22531
842.659	22413
842.796	22223
842.933	22200
843.069	22211
843.206	22268
843.343	22367
843.479	22200
843.616	22257
843.752	22029
843.889	21975
844.025	22215
844.162	22036
844.298	21991
844.435	21968
844.571	21865
844.708	22097
844.844	22082
844.98	22097
845.117	22177
845.253	21880
845.389	21778
845.525	21789
845.661	21838
845.798	21656
845.934	21648
846.07	21755
846.206	21717
846.342	21861
846.478	21701
846.614	21469
846.75	21443
846.886	21469
847.022	21526
847.158	21477
847.294	21583
847.429	21515
847.565	21469
847.701	21629
847.837	21279
847.972	21264
848.108	21264
848.244	21207
848.379	21157
848.515	21085
848.65	21066
848.786	21119
848.921	21085
849.057	21108
849.192	21089
849.328	21146
849.463	21108
849.598	20975
849.734	21062
849.869	20891
850.004	20906
850.14	20864
850.275	20769
850.41	20785
850.545	20686
850.68	20781
850.815	20891
850.95	20883
851.085	21005
851.22	20941
851.355	20796
851.49	20796
851.625	20868
851.76	20716
851.895	20712
852.03	20727
852.165	20792
852.299	20792
852.434	20971
852.569	20937
852.703	20868
852.838	20864
852.973	20914
853.107	20891
853.242	20731
853.376	20613
853.511	20594
853.645	20560
853.78	20735
853.914	20689
854.048	20594
854.183	20632
854.317	20724
854.451	20887
854.585	20629
854.72	20587
854.854	20716
854.988	20636
855.122	20735
855.256	20609
855.39	20720
855.524	20701
855.658	20632
855.792	20758
855.926	20739
856.06	20689
856.194	20777
856.327	20670
856.461	20613
856.595	20575
856.729	20632
856.862	20659
856.996	20651
857.13	20727
857.263	20674
857.397	20693
857.53	20583
857.664	20811
857.797	20693
857.931	20708
858.064	20655
858.197	20785
858.331	20629
858.464	20663
858.597	20651
858.731	20762
858.864	20556
858.997	20560
859.13	20674
859.263	20659
859.396	20739
859.529	20731
859.662	20674
859.795	20590
859.928	20724
860.061	20712
860.194	20838
860.327	20670
860.46	20762
860.592	20724
860.725	20823
860.858	20701
860.99	20625
861.123	20549
861.256	20621
861.388	20667
861.521	21218
861.653	20587
861.786	20507
861.918	20454
862.05	20522
862.183	20518
862.315	20434
862.447	20785
862.58	20587
862.712	20355
862.844	20366
862.976	20393
863.108	20278
863.24	20902
863.372	20237
863.504	20362
863.636	20450
863.768	20370
863.9	20351
864.032	20328
864.164	20385
864.296	20412
864.428	20473
864.559	20366
864.691	20400
864.823	20320
864.954	20290
865.086	20248
865.217	20256
865.349	20202
865.48	20256
865.612	20210
865.743	20404
865.875	20214
866.006	20214
866.137	20324
866.269	20161
866.4	20336
866.531	20278
866.662	20153
866.793	20317
866.924	20225
867.055	20210
867.186	20275
867.317	20183
867.448	20142
867.579	20126
867.71	20256
867.841	20157
867.972	20267
868.103	20138
868.233	20374
868.364	20149
868.495	20339
868.625	20518
868.756	20590
868.886	20286
869.017	20423
869.147	20511
869.278	20514
869.408	20526
869.539	20488
869.669	20686
869.799	20339
869.929	20663
870.06	20545
870.19	20686
870.32	20754
870.45	20807
870.58	20864
870.71	20925
870.84	20868
870.97	20857
871.1	21024
871.23	21028
871.36	21047
871.489	20895
871.619	21039
871.749	21028
871.879	21077
872.008	21077
872.138	21112
872.267	21112
872.397	20956
872.526	20712
872.656	20876
872.785	20895
872.915	21058
873.044	21119
873.173	21013
873.303	21218
873.432	21131
873.561	21180
873.69	21051
873.819	21104
873.948	21070
874.077	21058
874.206	21203
874.335	21066
874.464	20986
874.593	21332
874.722	21233
874.851	21359
874.979	21412
875.108	21283
875.237	21233
875.365	21055
875.494	21336
875.623	21401
875.751	21184
875.88	21348
876.008	21401
876.136	21469
876.265	21694
876.393	21876
876.521	21797
876.65	21804
876.778	21743
876.906	21709
877.034	21709
877.162	21652
877.29	21641
877.418	21675
877.546	21587
877.674	21614
877.802	21599
877.93	21728
878.058	21587
878.185	21580
878.313	21568
878.441	21587
878.568	21435
878.696	21652
878.824	21766
878.951	21766
879.079	21819
879.206	22036
879.333	21835
879.461	21713
879.588	21857
879.715	21873
879.842	21953
879.97	21660
880.097	21469
880.224	21564
880.351	21515
880.478	21534
880.605	21564
880.732	21386
880.859	21690
880.986	21462
881.112	21580
881.239	21412
881.366	21218
881.493	21176
881.619	21028
881.746	21138
881.872	21123
881.999	21032
882.125	21123
882.252	21081
882.378	21169
882.505	21233
882.631	21020
882.757	20724
882.883	20830
883.01	20834
883.136	20712
883.262	20667
883.388	20571
883.514	20823
883.64	20750
883.766	20777
883.892	20609
884.018	20571
884.143	20788
884.269	20952
884.395	20514
884.52	20537
884.646	20492
884.772	20374
884.897	20191
885.023	20499
885.148	20613
885.274	20606
885.399	20450
885.524	20427
885.65	20442
885.775	20396
885.9	20476
886.025	20564
886.15	20526
886.275	20381
886.4	20313
886.525	20492
886.65	20476
886.775	20431
886.9	20590
887.025	20705
887.149	20309
887.274	20214
887.399	20176
887.523	20187
887.648	20172
887.773	20111
887.897	20237
888.021	20278
888.146	20199
888.27	20290
888.395	20347
888.519	20244
888.643	20355
888.767	20252
888.891	20031
889.015	20161
889.139	20046
889.263	20001
889.387	20077
889.511	20233
889.635	20126
889.759	20039
889.883	20062
890.006	20031
890.13	20024
890.254	19974
890.377	19947
890.501	19795
890.624	19753
890.748	19845
890.871	19727
890.995	19552
891.118	19605
891.241	19468
891.364	19613
891.488	19670
891.611	19601
891.734	19624
891.857	19685
891.98	19647
892.103	19624
892.226	19597
892.349	19559
892.471	19407
892.594	19476
892.717	19525
892.839	19548
892.962	19495
893.085	19658
893.207	19514
893.33	19464
893.452	19373
893.575	19647
893.697	19487
893.819	19734
893.941	19715
894.064	19655
894.186	19430
894.308	19464
894.43	19677
894.552	19605
894.674	19590
894.796	19464
894.918	19491
895.04	19388
895.161	19689
895.283	19571
895.405	19411
895.526	19491
895.648	19476
895.769	19502
895.891	19590
896.012	19468
896.134	19483
896.255	19514
896.376	19552
896.498	19415
896.619	19483
896.74	19460
896.861	19616
896.982	19856
897.103	20035
897.224	19875
897.345	19738
897.466	19799
897.587	19689
897.708	19799
897.828	19803
897.949	19715
898.07	19590
898.19	19571
898.311	19811
898.431	19753
898.552	19597
898.672	19833
898.792	19818
898.913	19871
899.033	19693
899.153	19571
899.273	19635
899.393	19544
899.513	19597
899.633	19518
899.753	19655
899.873	19396
899.993	19533
900.113	19457
900.232	19525
900.352	19457
900.472	19449
900.591	19312
900.711	19331
900.83	19247
900.95	19411
901.069	19415
901.189	19206
901.308	19053
901.427	18920
901.546	19027
901.665	18928
901.784	18886
901.904	18825
902.023	18555
902.141	18544
902.26	18414
902.379	18467
902.498	18426
902.617	18452
902.735	18361
902.854	18342
902.973	18330
903.091	18091
903.21	18076
903.328	18106
903.446	17942
903.565	17939
903.683	17935
903.801	17760
903.919	17923
904.038	17866
904.156	17752
904.274	17836
904.392	17707
904.51	17726
904.627	17718
904.745	17794
904.863	17718
904.981	17509
905.098	17410
905.216	17364
905.334	17326
905.451	17387
905.569	17280
905.686	17376
905.803	17318
905.921	17189
906.038	17189
906.155	17197
906.272	17140
906.389	17124
906.506	16854
906.623	16946
906.74	16911
906.857	16778
906.974	16778
907.091	16946
907.208	16949
907.324	16923
907.441	16736
907.557	16679
907.674	16721
907.79	16565
907.907	16569
908.023	16607
908.139	16470
908.256	16447
908.372	16527
908.488	16485
908.604	16451
908.72	16382
908.836	16375
908.952	16341
909.068	16337
909.184	16417
909.3	16325
909.415	16360
909.531	16344
909.647	16109
909.762	16036
909.878	16029
909.993	16116
910.108	15941
910.224	15968
910.339	16044
910.454	15907
910.57	15831
910.685	15736
910.8	16128
910.915	16044
911.03	15873
911.145	15603
911.259	15648
911.374	15652
911.489	15511
911.604	15542
911.718	15378
911.833	15439
911.947	15272
912.062	15317
912.176	15450
912.291	15450
912.405	15401
912.519	15595
912.633	15561
912.748	15454
912.862	15389
912.976	15161
913.09	15131
913.204	15104
913.318	15184
913.431	15272
913.545	15298
913.659	15329
913.772	15207
913.886	15097
914	15097
914.113	15131
914.226	15230
914.34	15001
914.453	14845
914.566	15112
914.68	14921
914.793	14811
914.906	14731
915.019	14659
915.132	14617
915.245	14560
915.358	14560
915.47	14655
915.583	14549
915.696	14610
915.809	14769
915.921	14746
916.034	14484
916.146	14545
916.259	14583
916.371	14564
916.483	14537
916.595	14457
916.708	14465
916.82	14530
916.932	14465
917.044	14476
917.156	14400
917.268	14324
917.38	14267
917.491	14263
917.603	14370
917.715	14351
917.826	14370
917.938	14313
918.049	14210
918.161	14301
918.272	14339
918.384	14400
918.495	14355
918.606	14092
918.717	13940
918.828	14092
918.939	14073
919.05	13955
919.161	13974
919.272	13902
919.383	13955
919.494	14164
919.604	14271
919.715	14115
919.826	14008
919.936	14046
920.047	14096
920.157	14100
920.267	14332
920.378	14096
920.488	14046
920.598	14248
920.708	14336
920.818	14237
920.928	14221
921.038	14317
921.148	14294
921.258	14046
921.368	14039
921.477	13841
921.587	13765
921.697	13681
921.806	13875
921.916	13655
922.025	13506
922.134	13483
922.244	13388
922.353	13468
922.462	13411
922.571	13202
922.68	13110
922.789	13031
922.898	13149
923.007	13031
923.116	13069
923.224	13126
923.333	13122
923.442	12970
923.55	12951
923.659	13042
923.767	12954
923.876	12875
923.984	13019
924.092	12798
924.201	12916
924.309	12776
924.417	12787
924.525	12734
924.633	12821
924.741	13784
924.849	12509
924.956	12757
925.064	12563
925.172	12460
925.279	12582
925.387	12578
925.494	12593
925.602	12662
925.709	12601
925.816	12441
925.924	12532
926.031	12532
926.138	12445
926.245	12570
926.352	12467
926.459	12502
926.566	12589
926.673	12369
926.779	12433
926.886	12292
926.993	12114
927.099	12091
927.206	12095
927.312	12022
927.419	12155
927.525	12224
927.631	12110
927.737	12015
927.843	11954
927.95	11832
928.056	11980
928.162	11999
928.267	12030
928.373	12582
928.479	11923
928.585	11809
928.69	11882
928.796	11980
928.901	11904
929.007	11684
929.112	11809
929.218	11832
929.323	11714
929.428	11596
929.533	11779
929.638	11524
929.743	11630
929.848	11672
929.953	11714
930.058	11585
930.163	11353
930.267	11406
930.372	11528
930.477	11322
930.581	11604
930.685	11448
930.79	11360
930.894	11315
930.998	11258
931.103	11417
931.207	11121
931.311	11037
931.415	10919
931.519	10710
931.623	10679
