Data from test_V78500241_3256.txt Node
Date: Fri Mar 25 15:32:31 CST 2022
User: usil
Spectrometer: V785-0024
Trigger mode: 0
Integration Time (sec): 4.000000E-1
Scans to average: 1
Nonlinearity correction enabled: false
Boxcar width: 0
Storing dark spectrum: false
XAxis mode: Wavelengths
Number of Pixels in Spectrum: 1024
>>>>>Begin Spectral Data<<<<<
801.071	27199
801.214	27116
801.356	26853
801.499	27028
801.641	26899
801.783	26830
801.926	26743
802.068	26731
802.211	26762
802.353	26503
802.496	26476
802.638	26533
802.78	26286
802.923	26305
803.065	26240
803.208	26240
803.35	26377
803.492	26530
803.635	26530
803.777	26541
803.919	26598
804.061	26830
804.204	26712
804.346	26469
804.488	26518
804.63	26617
804.773	26290
804.915	26511
805.057	26621
805.199	26522
805.341	26613
805.483	26754
805.626	26769
805.768	26621
805.91	26602
806.052	26746
806.194	26522
806.336	26769
806.478	26571
806.62	26758
806.762	26845
806.904	27070
807.046	27275
807.188	27302
807.33	27131
807.472	27074
807.614	26940
807.756	27062
807.898	26963
808.04	26883
808.182	26910
808.324	26807
808.465	26948
808.607	27222
808.749	27313
808.891	27260
809.033	27435
809.174	27302
809.316	27272
809.458	27389
809.6	27275
809.741	27367
809.883	27268
810.025	27306
810.166	27477
810.308	27572
810.45	27538
810.591	27576
810.733	27348
810.875	27264
811.016	27192
811.158	27070
811.299	27412
811.441	27553
811.582	27435
811.724	27264
811.865	27275
812.007	27127
812.148	27260
812.29	27348
812.431	27416
812.573	27542
812.714	27564
812.855	27751
812.997	27831
813.138	28021
813.279	27914
813.421	27846
813.562	27720
813.703	27500
813.845	27370
813.986	27245
814.127	27085
814.268	26895
814.41	26887
814.551	26864
814.692	26807
814.833	26838
814.974	26975
815.115	26823
815.256	26792
815.397	26697
815.539	26769
815.68	26743
815.821	26587
815.962	26807
816.103	26720
816.244	26522
816.385	26583
816.526	26492
816.666	26431
816.807	26221
816.948	26202
817.089	26290
817.23	26180
817.371	26237
817.512	26161
817.653	26157
817.793	26050
817.934	26077
818.075	26176
818.216	26126
818.356	26115
818.497	26122
818.638	25974
818.778	25909
818.919	25993
819.06	26005
819.2	25993
819.341	26065
819.481	26164
819.622	26233
819.762	26609
819.903	26343
820.043	26427
820.184	26157
820.324	26240
820.465	26400
820.605	26195
820.746	26294
820.886	26195
821.026	26122
821.167	26225
821.307	26248
821.447	26122
821.588	26073
821.728	25951
821.868	25761
822.008	25674
822.149	25715
822.289	25552
822.429	25472
822.569	25358
822.709	25407
822.849	25259
822.99	25141
823.13	25148
823.27	25141
823.41	25012
823.55	24833
823.69	25031
823.83	24966
823.97	25000
824.11	24730
824.25	24677
824.389	24825
824.529	24871
824.669	24677
824.809	24757
824.949	24920
825.089	24848
825.228	24802
825.368	24547
825.508	24528
825.648	24612
825.787	24589
825.927	24772
826.067	24642
826.206	24608
826.346	24707
826.485	24741
826.625	24612
826.765	24760
826.904	24738
827.044	24479
827.183	24437
827.323	24323
827.462	24429
827.601	24422
827.741	24315
827.88	24327
828.02	24224
828.159	24365
828.298	24330
828.437	24422
828.577	24319
828.716	24483
828.855	24350
828.994	24190
829.134	24091
829.273	24197
829.412	23988
829.551	23988
829.69	24026
829.829	24152
829.968	24262
830.107	24087
830.246	24057
830.385	24060
830.524	24098
830.663	23786
830.802	23779
830.941	23570
831.08	23570
831.219	23863
831.357	23699
831.496	23912
831.635	23661
831.774	23490
831.913	23649
832.051	23547
832.19	23440
832.329	23608
832.467	23402
832.606	23288
832.744	23269
832.883	23299
833.022	23326
833.16	23322
833.299	23505
833.437	23360
833.576	23391
833.714	23433
833.852	23490
833.991	23421
834.129	23452
834.267	23486
834.406	23490
834.544	23482
834.682	23539
834.821	23486
834.959	23467
835.097	23402
835.235	23562
835.373	23436
835.511	23337
835.65	23353
835.788	23315
835.926	23189
836.064	23052
836.202	23136
836.34	23322
836.478	23345
836.615	23159
836.753	23242
836.891	23364
837.029	23303
837.167	23189
837.305	23147
837.443	23212
837.58	23090
837.718	23147
837.856	23170
837.993	23086
838.131	23090
838.269	22965
838.406	23067
838.544	22949
838.681	22793
838.819	22793
838.956	22649
839.094	22656
839.231	22607
839.369	22675
839.506	23010
839.643	22889
839.781	22694
839.918	22592
840.055	22626
840.193	22596
840.33	22592
840.467	22569
840.604	22500
840.742	22710
840.879	22455
841.016	22485
841.153	22390
841.29	22702
841.427	22565
841.564	22523
841.701	22599
841.838	22519
841.975	22470
842.112	22466
842.249	22276
842.385	22291
842.522	22637
842.659	22424
842.796	22306
842.933	22329
843.069	22268
843.206	22272
843.343	22470
843.479	22409
843.616	22386
843.752	22147
843.889	22105
844.025	22219
844.162	22067
844.298	22158
844.435	22150
844.571	22036
844.708	22223
844.844	22192
844.98	22177
845.117	22249
845.253	22105
845.389	22055
845.525	22029
845.661	21987
845.798	21892
845.934	21800
846.07	21907
846.206	21823
846.342	21895
846.478	21671
846.614	21637
846.75	21606
846.886	21481
847.022	21679
847.158	21591
847.294	21393
847.429	21591
847.565	21458
847.701	21835
847.837	21233
847.972	21401
848.108	21374
848.244	21439
848.379	21214
848.515	21252
848.65	21184
848.786	21241
848.921	21298
849.057	21306
849.192	21260
849.328	21233
849.463	21100
849.598	21070
849.734	21062
849.869	21005
850.004	20845
850.14	21017
850.275	20956
850.41	20883
850.545	20937
850.68	21005
850.815	20849
850.95	20952
851.085	21157
851.22	21077
851.355	21032
851.49	20830
851.625	20895
851.76	21036
851.895	20781
852.03	20758
852.165	20891
852.299	20971
852.434	20948
852.569	20902
852.703	20902
852.838	21028
852.973	21066
853.107	21131
853.242	20880
853.376	20815
853.511	20629
853.645	20727
853.78	20895
853.914	20800
854.048	20845
854.183	20632
854.317	20705
854.451	20899
854.585	20811
854.72	20667
854.854	20861
854.988	20853
855.122	20716
855.256	20644
855.39	20815
855.524	20883
855.658	20777
855.792	20693
855.926	20712
856.06	20762
856.194	20842
856.327	20800
856.461	20693
856.595	20667
856.729	20762
856.862	20823
856.996	20674
857.13	20804
857.263	20891
857.397	20902
857.53	20826
857.664	20864
857.797	20758
857.931	20883
858.064	20861
858.197	20849
858.331	20689
858.464	20724
858.597	20648
858.731	20788
858.864	20598
858.997	20663
859.13	20568
859.263	20807
859.396	20845
859.529	20762
859.662	20777
859.795	20670
859.928	20689
860.061	20910
860.194	20910
860.327	20883
860.46	20781
860.592	20937
860.725	20952
860.858	20963
860.99	20788
861.123	20720
861.256	20648
861.388	20929
861.521	21279
861.653	20678
861.786	20571
861.918	20632
862.05	20590
862.183	20705
862.315	20621
862.447	20754
862.58	20686
862.712	20545
862.844	20400
862.976	20682
863.108	20507
863.24	20861
863.372	20537
863.504	20465
863.636	20419
863.768	20560
863.9	20564
864.032	20404
864.164	20545
864.296	20450
864.428	20431
864.559	20587
864.691	20530
864.823	20438
864.954	20404
865.086	20446
865.217	20423
865.349	20362
865.48	20358
865.612	20290
865.743	20549
865.875	20324
866.006	20412
866.137	20263
866.269	20438
866.4	20328
866.531	20267
866.662	20237
866.793	20408
866.924	20275
867.055	20419
867.186	20324
867.317	20366
867.448	20187
867.579	20278
867.71	20252
867.841	20336
867.972	20374
868.103	20278
868.233	20317
868.364	20355
868.495	20328
868.625	20541
868.756	20621
868.886	20526
869.017	20556
869.147	20678
869.278	20667
869.408	20560
869.539	20621
869.669	20731
869.799	20617
869.929	20689
870.06	20686
870.19	20967
870.32	20769
870.45	20910
870.58	20975
870.71	21055
870.84	21005
870.97	20960
871.1	20960
871.23	21165
871.36	21302
871.489	21119
871.619	21062
871.749	21138
871.879	21252
872.008	21207
872.138	21176
872.267	21119
872.397	20925
872.526	21032
872.656	21009
872.785	21039
872.915	21211
873.044	21412
873.173	21272
873.303	21397
873.432	21256
873.561	21275
873.69	21131
873.819	21275
873.948	21435
874.077	21260
874.206	21058
874.335	21150
874.464	21291
874.593	21431
874.722	21401
874.851	21447
874.979	21488
875.108	21466
875.237	21397
875.365	21370
875.494	21462
875.623	21511
875.751	21473
875.88	21386
876.008	21481
876.136	21652
876.265	21949
876.393	21930
876.521	21922
876.65	21941
876.778	21762
876.906	21911
877.034	21838
877.162	21865
877.29	21819
877.418	21728
877.546	21751
877.674	21797
877.802	21861
877.93	21838
878.058	21690
878.185	21736
878.313	21762
878.441	21876
878.568	21667
878.696	21755
878.824	21785
878.951	21949
879.079	22010
879.206	22051
879.333	21930
879.461	21781
879.588	21873
879.715	21926
879.842	22124
879.97	21835
880.097	21663
880.224	21743
880.351	21694
880.478	21694
880.605	21660
880.732	21591
880.859	21915
880.986	21564
881.112	21644
881.239	21435
881.366	21378
881.493	21154
881.619	21169
881.746	21367
881.872	21237
881.999	21043
882.125	21028
882.252	21131
882.378	21127
882.505	21245
882.631	21077
882.757	20975
882.883	21009
883.01	20773
883.136	20944
883.262	20765
883.388	20731
883.514	20777
883.64	20872
883.766	20792
883.892	20716
884.018	20708
884.143	20834
884.269	20982
884.395	20549
884.52	20609
884.646	20602
884.772	20454
884.897	20476
885.023	20583
885.148	20609
885.274	20678
885.399	20686
885.524	20632
885.65	20640
885.775	20606
885.9	20492
886.025	20689
886.15	20644
886.275	20511
886.4	20412
886.525	20568
886.65	20495
886.775	20454
886.9	20701
887.025	20583
887.149	20533
887.274	20412
887.399	20298
887.523	20415
887.648	20305
887.773	20206
887.897	20469
888.021	20385
888.146	20256
888.27	20427
888.395	20522
888.519	20484
888.643	20434
888.767	20347
888.891	20282
889.015	20161
889.139	20206
889.263	20115
889.387	20290
889.511	20442
889.635	20259
889.759	20161
889.883	20142
890.006	20111
890.13	20115
890.254	19947
890.377	20210
890.501	19982
890.624	19940
890.748	19967
890.871	19791
890.995	19753
891.118	19601
891.241	19700
891.364	19818
891.488	19830
891.611	19712
891.734	19674
891.857	19689
891.98	19734
892.103	19795
892.226	19738
892.349	19685
892.471	19525
892.594	19696
892.717	19586
892.839	19635
892.962	19575
893.085	19670
893.207	19639
893.33	19419
893.452	19544
893.575	19651
893.697	19605
893.819	19761
893.941	19811
894.064	19715
894.186	19518
894.308	19662
894.43	19776
894.552	19696
894.674	19613
894.796	19590
894.918	19544
895.04	19575
895.161	19757
895.283	19731
895.405	19537
895.526	19647
895.648	19693
895.769	19731
895.891	19510
896.012	19696
896.134	19582
896.255	19655
896.376	19582
896.498	19643
896.619	19677
896.74	19647
896.861	19715
896.982	19776
897.103	20103
897.224	19986
897.345	19845
897.466	19826
897.587	19681
897.708	20069
897.828	19909
897.949	19837
898.07	19715
898.19	19852
898.311	19849
898.431	19807
898.552	19967
898.672	19909
898.792	19871
898.913	19738
899.033	19681
899.153	19685
899.273	19521
899.393	19613
899.513	19628
899.633	19734
899.753	19544
899.873	19544
899.993	19605
900.113	19441
900.232	19533
900.352	19472
900.472	19388
900.591	19362
900.711	19358
900.83	19377
900.95	19438
901.069	19480
901.189	19270
901.308	19156
901.427	18920
901.546	19031
901.665	19008
901.784	19031
901.904	18924
902.023	18738
902.141	18536
902.26	18517
902.379	18563
902.498	18399
902.617	18361
902.735	18536
902.854	18479
902.973	18418
903.091	18117
903.21	18308
903.328	18209
903.446	18144
903.565	17980
903.683	18053
903.801	17904
903.919	17908
904.038	17980
904.156	17798
904.274	17904
904.392	17733
904.51	17813
904.627	17707
904.745	17680
904.863	17832
904.981	17611
905.098	17535
905.216	17311
905.334	17452
905.451	17410
905.569	17509
905.686	17440
905.803	17395
905.921	17242
906.038	17258
906.155	17334
906.272	17155
906.389	17105
906.506	16911
906.623	16968
906.74	16987
906.857	16793
906.974	16767
907.091	17018
907.208	17239
907.324	17006
907.441	16911
907.557	16721
907.674	16649
907.79	16672
907.907	16641
908.023	16713
908.139	16706
908.256	16717
908.372	16588
908.488	16535
908.604	16493
908.72	16379
908.836	16451
908.952	16386
909.068	16432
909.184	16398
909.3	16394
909.415	16485
909.531	16318
909.647	16101
909.762	16173
909.878	16093
909.993	16154
910.108	16063
910.224	16074
910.339	16101
910.454	15918
910.57	15915
910.685	15884
910.8	16078
910.915	15972
911.03	16002
911.145	15778
911.259	15812
911.374	15892
911.489	15606
911.604	15587
911.718	15386
911.833	15542
911.947	15378
912.062	15359
912.176	15473
912.291	15545
912.405	15469
912.519	15720
912.633	15679
912.748	15473
912.862	15450
912.976	15275
913.09	15252
913.204	15306
913.318	15344
913.431	15382
913.545	15363
913.659	15428
913.772	15336
913.886	15066
914	15100
914.113	15192
914.226	15150
914.34	15112
914.453	14944
914.566	15203
914.68	15039
914.793	14921
914.906	14830
915.019	14724
915.132	14682
915.245	14701
915.358	14758
915.47	14708
915.583	14663
915.696	14765
915.809	14834
915.921	14899
916.034	14651
916.146	14625
916.259	14579
916.371	14701
916.483	14731
916.595	14537
916.708	14564
916.82	14556
916.932	14537
917.044	14499
917.156	14442
917.268	14347
917.38	14503
917.491	14408
917.603	14438
917.715	14438
917.826	14514
917.938	14290
918.049	14073
918.161	14351
918.272	14492
918.384	14408
918.495	14218
918.606	14240
918.717	14180
918.828	14237
918.939	14157
919.05	14103
919.161	14183
919.272	13951
919.383	14016
919.494	14149
919.604	14343
919.715	14206
919.826	14092
919.936	14145
920.047	14221
920.157	14164
920.267	14271
920.378	14073
920.488	14100
920.598	14358
920.708	14431
920.818	14267
920.928	14229
921.038	14434
921.148	14362
921.258	14168
921.368	14016
921.477	13841
921.587	13963
921.697	13795
921.806	13913
921.916	13738
922.025	13586
922.134	13544
922.244	13567
922.353	13521
922.462	13419
922.571	13304
922.68	13217
922.789	13080
922.898	13209
923.007	13107
923.116	13099
923.224	13110
923.333	13126
923.442	13042
923.55	12970
923.659	13076
923.767	13168
923.876	12973
923.984	13015
924.092	12932
924.201	12924
924.309	12924
924.417	12913
924.525	12829
924.633	12848
924.741	13765
924.849	12654
924.956	12783
925.064	12585
925.172	12589
925.279	12612
925.387	12620
925.494	12604
925.602	12745
925.709	12684
925.816	12509
925.924	12532
926.031	12597
926.138	12601
926.245	12646
926.352	12467
926.459	12650
926.566	12612
926.673	12490
926.779	12384
926.886	12384
926.993	12311
927.099	12216
927.206	12201
927.312	12171
927.419	12190
927.525	12205
927.631	12030
927.737	12049
927.843	12007
927.95	11977
928.056	12022
928.162	12015
928.267	12057
928.373	12692
928.479	12030
928.585	11901
928.69	11927
928.796	12030
928.901	11863
929.007	11767
929.112	11828
929.218	11908
929.323	11790
929.428	11718
929.533	11870
929.638	11665
929.743	11668
929.848	11802
929.953	11665
930.058	11539
930.163	11429
930.267	11421
930.372	11615
930.477	11326
930.581	11634
930.685	11520
930.79	11395
930.894	11334
930.998	11273
931.103	11349
931.207	11083
931.311	11029
931.415	10946
931.519	10824
931.623	10710
