Data from test_V78500241_2697.txt Node
Date: Fri Mar 25 15:28:38 CST 2022
User: usil
Spectrometer: V785-0024
Trigger mode: 0
Integration Time (sec): 4.000000E-1
Scans to average: 1
Nonlinearity correction enabled: false
Boxcar width: 0
Storing dark spectrum: false
XAxis mode: Wavelengths
Number of Pixels in Spectrum: 1024
>>>>>Begin Spectral Data<<<<<
801.071	27157
801.214	27085
801.356	26758
801.499	26781
801.641	26518
801.783	26746
801.926	26602
802.068	26621
802.211	26332
802.353	26465
802.496	26332
802.638	26187
802.78	26024
802.923	26043
803.065	26043
803.208	26168
803.35	26111
803.492	26195
803.635	26374
803.777	26214
803.919	26442
804.061	26739
804.204	26396
804.346	26138
804.488	26138
804.63	26366
804.773	26320
804.915	26278
805.057	26419
805.199	26218
805.341	26355
805.483	26328
805.626	26377
805.768	26240
805.91	26366
806.052	26431
806.194	26278
806.336	26431
806.478	26358
806.62	26427
806.762	26545
806.904	26590
807.046	26902
807.188	26918
807.33	26849
807.472	26796
807.614	26640
807.756	26785
807.898	26655
808.04	26590
808.182	26655
808.324	26693
808.465	26712
808.607	26773
808.749	26998
808.891	27077
809.033	27161
809.174	27108
809.316	26982
809.458	26876
809.6	27005
809.741	27180
809.883	27142
810.025	27294
810.166	27298
810.308	27298
810.45	27245
810.591	27180
810.733	27104
810.875	26857
811.016	27009
811.158	26967
811.299	27093
811.441	27096
811.582	27142
811.724	26963
811.865	26823
812.007	26899
812.148	26933
812.29	26944
812.431	26956
812.573	27363
812.714	27287
812.855	27348
812.997	27492
813.138	27717
813.279	27504
813.421	27355
813.562	27466
813.703	27283
813.845	27096
813.986	26933
814.127	26697
814.268	26617
814.41	26640
814.551	26556
814.692	26708
814.833	26552
814.974	26651
815.115	26758
815.256	26560
815.397	26564
815.539	26507
815.68	26507
815.821	26336
815.962	26453
816.103	26400
816.244	26385
816.385	26103
816.526	26088
816.666	26046
816.807	25868
816.948	25951
817.089	25947
817.23	25974
817.371	25909
817.512	25852
817.653	25913
817.793	25951
817.934	25978
818.075	26012
818.216	25811
818.356	25959
818.497	25795
818.638	25525
818.778	25453
818.919	25700
819.06	25696
819.2	25769
819.341	25944
819.481	25841
819.622	26012
819.762	26237
819.903	25913
820.043	26012
820.184	25940
820.324	25928
820.465	25978
820.605	25997
820.746	25852
820.886	25772
821.026	26043
821.167	25830
821.307	26077
821.447	25913
821.588	25833
821.728	25723
821.868	25449
822.008	25259
822.149	25434
822.289	25221
822.429	25232
822.569	25084
822.709	24989
822.849	24962
822.99	24795
823.13	24757
823.27	24859
823.41	24703
823.55	24612
823.69	24741
823.83	24681
823.97	24563
824.11	24369
824.25	24441
824.389	24467
824.529	24623
824.669	24566
824.809	24597
824.949	24441
825.089	24525
825.228	24399
825.368	24342
825.508	24338
825.648	24270
825.787	24346
825.927	24467
826.067	24338
826.206	24235
826.346	24369
826.485	24384
826.625	24384
826.765	24407
826.904	24372
827.044	24087
827.183	24106
827.323	23931
827.462	24102
827.601	24110
827.741	23973
827.88	24102
828.02	23885
828.159	23984
828.298	24121
828.437	24213
828.577	23935
828.716	24235
828.855	23885
828.994	23790
829.134	23767
829.273	23851
829.412	23752
829.551	23672
829.69	23707
829.829	23809
829.968	23847
830.107	23836
830.246	23729
830.385	23638
830.524	23634
830.663	23581
830.802	23463
830.941	23360
831.08	23406
831.219	23501
831.357	23486
831.496	23710
831.635	23402
831.774	23288
831.913	23113
832.051	23094
832.19	23147
832.329	23231
832.467	23090
832.606	22942
832.744	22965
832.883	22999
833.022	22923
833.16	22881
833.299	23094
833.437	23098
833.576	23185
833.714	23105
833.852	23003
833.991	23258
834.129	23185
834.267	23052
834.406	23067
834.544	23121
834.682	23014
834.821	22980
834.959	23265
835.097	22953
835.235	23052
835.373	23124
835.511	23174
835.65	22972
835.788	22946
835.926	22968
836.064	22877
836.202	22790
836.34	22991
836.478	22995
836.615	22923
836.753	22915
836.891	23014
837.029	23071
837.167	22991
837.305	22915
837.443	22824
837.58	22755
837.718	22812
837.856	22782
837.993	22702
838.131	22828
838.269	22664
838.406	22721
838.544	22675
838.681	22519
838.819	22333
838.956	22466
839.094	22344
839.231	22352
839.369	22402
839.506	22675
839.643	22626
839.781	22295
839.918	22284
840.055	22272
840.193	22348
840.33	22329
840.467	22291
840.604	22265
840.742	22470
840.879	22120
841.016	22147
841.153	22124
841.29	22356
841.427	22128
841.564	22234
841.701	22280
841.838	22196
841.975	22086
842.112	22196
842.249	22158
842.385	22055
842.522	22284
842.659	22105
842.796	21953
842.933	22067
843.069	21934
843.206	21869
843.343	22078
843.479	21972
843.616	21991
843.752	21819
843.889	21793
844.025	21899
844.162	21686
844.298	21835
844.435	21793
844.571	21705
844.708	21793
844.844	21823
844.98	21895
845.117	21812
845.253	21679
845.389	21557
845.525	21660
845.661	21694
845.798	21412
845.934	21561
846.07	21523
846.206	21644
846.342	21610
846.478	21397
846.614	21355
846.75	21211
846.886	21272
847.022	21233
847.158	21260
847.294	21321
847.429	21275
847.565	21230
847.701	21504
847.837	20899
847.972	21001
848.108	21096
848.244	21070
848.379	20868
848.515	20864
848.65	20762
848.786	20842
848.921	20914
849.057	20941
849.192	20929
849.328	20853
849.463	20746
849.598	20769
849.734	20731
849.869	20708
850.004	20571
850.14	20590
850.275	20530
850.41	20545
850.545	20503
850.68	20530
850.815	20693
850.95	20670
851.085	20769
851.22	20815
851.355	20716
851.49	20606
851.625	20606
851.76	20606
851.895	20442
852.03	20438
852.165	20552
852.299	20651
852.434	20667
852.569	20575
852.703	20594
852.838	20739
852.973	20727
853.107	20689
853.242	20632
853.376	20503
853.511	20259
853.645	20362
853.78	20503
853.914	20412
854.048	20377
854.183	20339
854.317	20412
854.451	20583
854.585	20381
854.72	20450
854.854	20507
854.988	20286
855.122	20427
855.256	20187
855.39	20438
855.524	20473
855.658	20556
855.792	20598
855.926	20438
856.06	20347
856.194	20465
856.327	20370
856.461	20355
856.595	20385
856.729	20286
856.862	20533
856.996	20511
857.13	20526
857.263	20480
857.397	20594
857.53	20434
857.664	20499
857.797	20450
857.931	20556
858.064	20393
858.197	20488
858.331	20362
858.464	20351
858.597	20434
858.731	20351
858.864	20454
858.997	20377
859.13	20377
859.263	20328
859.396	20533
859.529	20366
859.662	20415
859.795	20412
859.928	20431
860.061	20568
860.194	20583
860.327	20514
860.46	20469
860.592	20552
860.725	20488
860.858	20400
860.99	20343
861.123	20374
861.256	20355
861.388	20343
861.521	21062
861.653	20309
861.786	20278
861.918	20199
862.05	20282
862.183	20324
862.315	20317
862.447	20385
862.58	20355
862.712	20271
862.844	20103
862.976	20278
863.108	20183
863.24	20484
863.372	20100
863.504	20210
863.636	20149
863.768	20199
863.9	20088
864.032	20069
864.164	20122
864.296	20172
864.428	20168
864.559	20180
864.691	20225
864.823	20164
864.954	20210
865.086	20164
865.217	20073
865.349	19951
865.48	20077
865.612	20046
865.743	20195
865.875	20062
866.006	20092
866.137	20020
866.269	19986
866.4	19925
866.531	20062
866.662	19997
866.793	19993
866.924	20001
867.055	20020
867.186	19978
867.317	19936
867.448	19936
867.579	19978
867.71	19894
867.841	19936
867.972	20012
868.103	19906
868.233	19963
868.364	20065
868.495	20111
868.625	20187
868.756	20328
868.886	20100
869.017	20149
869.147	20362
869.278	20282
869.408	20187
869.539	20149
869.669	20366
869.799	20347
869.929	20332
870.06	20271
870.19	20541
870.32	20511
870.45	20518
870.58	20488
870.71	20686
870.84	20754
870.97	20602
871.1	20617
871.23	20845
871.36	20853
871.489	20724
871.619	20788
871.749	20769
871.879	20948
872.008	20807
872.138	20838
872.267	20807
872.397	20716
872.526	20773
872.656	20632
872.785	20663
872.915	20788
873.044	21017
873.173	20727
873.303	20952
873.432	20956
873.561	20979
873.69	20914
873.819	20899
873.948	20975
874.077	20819
874.206	20765
874.335	20960
874.464	20975
874.593	21138
874.722	21070
874.851	21142
874.979	21119
875.108	21119
875.237	21127
875.365	21066
875.494	21127
875.623	21245
875.751	21150
875.88	21176
876.008	21176
876.136	21485
876.265	21526
876.393	21698
876.521	21595
876.65	21523
876.778	21485
876.906	21549
877.034	21477
877.162	21454
877.29	21526
877.418	21435
877.546	21477
877.674	21416
877.802	21591
877.93	21435
878.058	21538
878.185	21481
878.313	21401
878.441	21618
878.568	21256
878.696	21408
878.824	21526
878.951	21526
879.079	21622
879.206	21846
879.333	21660
879.461	21420
879.588	21644
879.715	21656
879.842	21682
879.97	21545
880.097	21405
880.224	21249
880.351	21367
880.478	21298
880.605	21165
880.732	21340
880.859	21416
880.986	21291
881.112	21363
881.239	21291
881.366	21085
881.493	21051
881.619	20895
881.746	20929
881.872	20838
881.999	20952
882.125	20876
882.252	20868
882.378	20914
882.505	20921
882.631	20762
882.757	20602
882.883	20682
883.01	20708
883.136	20617
883.262	20412
883.388	20492
883.514	20659
883.64	20644
883.766	20507
883.892	20415
884.018	20393
884.143	20476
884.269	20655
884.395	20358
884.52	20259
884.646	20336
884.772	20248
884.897	20206
885.023	20225
885.148	20355
885.274	20484
885.399	20362
885.524	20336
885.65	20267
885.775	20328
885.9	20195
886.025	20358
886.15	20282
886.275	20298
886.4	20130
886.525	20290
886.65	20244
886.775	20092
886.9	20290
887.025	20545
887.149	20202
887.274	20069
887.399	19989
887.523	19936
887.648	20043
887.773	19928
887.897	20111
888.021	20168
888.146	19944
888.27	20130
888.395	20195
888.519	20092
888.643	20005
888.767	20172
888.891	19986
889.015	19963
889.139	19803
889.263	19769
889.387	19963
889.511	20103
889.635	19925
889.759	19849
889.883	19795
890.006	19852
890.13	19906
890.254	19689
890.377	19784
890.501	19628
890.624	19529
890.748	19616
890.871	19559
890.995	19434
891.118	19457
891.241	19514
891.364	19415
891.488	19491
891.611	19365
891.734	19411
891.857	19460
891.98	19369
892.103	19426
892.226	19457
892.349	19335
892.471	19240
892.594	19339
892.717	19373
892.839	19301
892.962	19263
893.085	19476
893.207	19202
893.33	19221
893.452	19339
893.575	19297
893.697	19308
893.819	19525
893.941	19540
894.064	19419
894.186	19358
894.308	19190
894.43	19320
894.552	19396
894.674	19388
894.796	19221
894.918	19331
895.04	19293
895.161	19464
895.283	19339
895.405	19316
895.526	19362
895.648	19320
895.769	19491
895.891	19362
896.012	19480
896.134	19365
896.255	19365
896.376	19392
896.498	19464
896.619	19377
896.74	19434
896.861	19499
896.982	19693
897.103	19868
897.224	19594
897.345	19556
897.466	19449
897.587	19643
897.708	19662
897.828	19495
897.949	19613
898.07	19491
898.19	19529
898.311	19670
898.431	19582
898.552	19613
898.672	19670
898.792	19738
898.913	19712
899.033	19422
899.153	19384
899.273	19312
899.393	19331
899.513	19457
899.633	19324
899.753	19415
899.873	19339
899.993	19400
900.113	19274
900.232	19324
900.352	19274
900.472	19236
900.591	19110
900.711	19190
900.83	19072
900.95	19255
901.069	19232
901.189	19046
901.308	18897
901.427	18673
901.546	18707
901.665	18677
901.784	18696
901.904	18635
902.023	18559
902.141	18270
902.26	18201
902.379	18251
902.498	18266
902.617	18228
902.735	18357
902.854	18190
902.973	18129
903.091	17969
903.21	17912
903.328	17988
903.446	17908
903.565	17741
903.683	17714
903.801	17627
903.919	17737
904.038	17665
904.156	17585
904.274	17551
904.392	17478
904.51	17539
904.627	17630
904.745	17577
904.863	17619
904.981	17204
905.098	17208
905.216	17277
905.334	17204
905.451	17162
905.569	17212
905.686	17292
905.803	17159
905.921	16946
906.038	17086
906.155	16972
906.272	16881
906.389	16911
906.506	16721
906.623	16854
906.74	16793
906.857	16725
906.974	16710
907.091	16930
907.208	16812
907.324	16778
907.441	16531
907.557	16508
907.674	16470
907.79	16428
907.907	16440
908.023	16561
908.139	16573
908.256	16348
908.372	16287
908.488	16329
908.604	16238
908.72	16215
908.836	16303
908.952	16192
909.068	16154
909.184	16314
909.3	16177
909.415	16215
909.531	16185
909.647	15903
909.762	15831
909.878	15926
909.993	15956
910.108	15941
910.224	15869
910.339	15842
910.454	15808
910.57	15770
910.685	15701
910.8	15937
910.915	15831
911.03	15724
911.145	15545
911.259	15485
911.374	15496
911.489	15523
911.604	15389
911.718	15226
911.833	15169
911.947	15275
912.062	15089
912.176	15332
912.291	15237
912.405	15275
912.519	15389
912.633	15405
912.748	15351
912.862	15211
912.976	15058
913.09	14929
913.204	15051
913.318	15032
913.431	15138
913.545	15192
913.659	15108
913.772	15032
913.886	15005
914	14929
914.113	14975
914.226	15043
914.34	14933
914.453	14811
914.566	14868
914.68	14739
914.793	14792
914.906	14629
915.019	14514
915.132	14476
915.245	14556
915.358	14659
915.47	14613
915.583	14575
915.696	14419
915.809	14625
915.921	14556
916.034	14568
916.146	14385
916.259	14454
916.371	14469
916.483	14400
916.595	14366
916.708	14408
916.82	14370
916.932	14427
917.044	14183
917.156	14313
917.268	14229
917.38	14237
917.491	14202
917.603	14221
917.715	14259
917.826	14256
917.938	14191
918.049	14119
918.161	14119
918.272	14294
918.384	14221
918.495	14187
918.606	13989
918.717	13947
918.828	13887
918.939	14103
919.05	13898
919.161	13947
919.272	13837
919.383	13822
919.494	13944
919.604	14126
919.715	13986
919.826	13860
919.936	13856
920.047	14039
920.157	13879
920.267	14107
920.378	13963
920.488	13849
920.598	14107
920.708	14202
920.818	14062
920.928	14016
921.038	14347
921.148	14142
921.258	13997
921.368	13750
921.477	13750
921.587	13643
921.697	13567
921.806	13708
921.916	13487
922.025	13350
922.134	13369
922.244	13331
922.353	13400
922.462	13263
922.571	13278
922.68	13084
922.789	12973
922.898	12993
923.007	13008
923.116	13015
923.224	12947
923.333	13015
923.442	12810
923.55	12768
923.659	12924
923.767	12932
923.876	12840
923.984	12833
924.092	12677
924.201	12825
924.309	12852
924.417	12776
924.525	12658
924.633	12639
924.741	13578
924.849	12448
924.956	12585
925.064	12509
925.172	12429
925.279	12422
925.387	12517
925.494	12429
925.602	12585
925.709	12452
925.816	12369
925.924	12399
926.031	12407
926.138	12388
926.245	12433
926.352	12281
926.459	12483
926.566	12513
926.673	12258
926.779	12254
926.886	12163
926.993	12076
927.099	11927
927.206	11954
927.312	11950
927.419	11988
927.525	11954
927.631	11973
927.737	11931
927.843	11908
927.95	11767
928.056	11847
928.162	11843
928.267	11840
928.373	12441
928.479	11950
928.585	11649
928.69	11847
928.796	11893
928.901	11843
929.007	11509
929.112	11760
929.218	11707
929.323	11646
929.428	11577
929.533	11714
929.638	11524
929.743	11630
929.848	11592
929.953	11490
930.058	11417
930.163	11318
930.267	11307
930.372	11421
930.477	11223
930.581	11474
930.685	11334
930.79	11212
930.894	11250
930.998	11178
931.103	11273
931.207	10847
931.311	10858
931.415	10812
931.519	10664
931.623	10565
