Data from test_V78500241_2239.txt Node
Date: Fri Mar 25 15:25:26 CST 2022
User: usil
Spectrometer: V785-0024
Trigger mode: 0
Integration Time (sec): 4.000000E-1
Scans to average: 1
Nonlinearity correction enabled: false
Boxcar width: 0
Storing dark spectrum: false
XAxis mode: Wavelengths
Number of Pixels in Spectrum: 1024
>>>>>Begin Spectral Data<<<<<
801.071	27717
801.214	27747
801.356	27561
801.499	27443
801.641	27218
801.783	27283
801.926	27382
802.068	27287
802.211	27264
802.353	27108
802.496	27009
802.638	26891
802.78	26887
802.923	26857
803.065	26800
803.208	26834
803.35	26876
803.492	27093
803.635	27184
803.777	27173
803.919	27188
804.061	27519
804.204	27173
804.346	27108
804.488	26998
804.63	27093
804.773	27135
804.915	27055
805.057	27340
805.199	27165
805.341	27123
805.483	27325
805.626	27252
805.768	27165
805.91	27298
806.052	27283
806.194	27306
806.336	27523
806.478	27359
806.62	27351
806.762	27386
806.904	27595
807.046	27694
807.188	27797
807.33	27755
807.472	27759
807.614	27625
807.756	27671
807.898	27374
808.04	27587
808.182	27591
808.324	27637
808.465	27606
808.607	27770
808.749	27960
808.891	27960
809.033	28124
809.174	27949
809.316	27846
809.458	27884
809.6	27823
809.741	28029
809.883	27895
810.025	28272
810.166	28211
810.308	28162
810.45	28177
810.591	27964
810.733	27987
810.875	27838
811.016	27747
811.158	27865
811.299	27873
811.441	27991
811.582	28044
811.724	27857
811.865	27831
812.007	27857
812.148	27884
812.29	28021
812.431	28147
812.573	28196
812.714	28257
812.855	28466
812.997	28478
813.138	28538
813.279	28527
813.421	28561
813.562	28333
813.703	28337
813.845	28105
813.986	27819
814.127	27690
814.268	27507
814.41	27656
814.551	27557
814.692	27564
814.833	27576
814.974	27648
815.115	27595
815.256	27412
815.397	27447
815.539	27408
815.68	27416
815.821	27317
815.962	27344
816.103	27397
816.244	27317
816.385	27233
816.526	27298
816.666	26933
816.807	26883
816.948	26880
817.089	27127
817.23	26937
817.371	26921
817.512	26823
817.653	26853
817.793	26754
817.934	26864
818.075	26804
818.216	26849
818.356	26800
818.497	26754
818.638	26670
818.778	26541
818.919	26609
819.06	26625
819.2	26777
819.341	26880
819.481	27055
819.622	26986
819.762	27093
819.903	27218
820.043	27051
820.184	27032
820.324	26998
820.465	26998
820.605	26826
820.746	26933
820.886	26788
821.026	27009
821.167	26895
821.307	26925
821.447	26906
821.588	26765
821.728	26648
821.868	26514
822.008	26431
822.149	26343
822.289	26377
822.429	26096
822.569	26115
822.709	26016
822.849	25818
822.99	25860
823.13	25879
823.27	25715
823.41	25776
823.55	25594
823.69	25708
823.83	25510
823.97	25571
824.11	25369
824.25	25373
824.389	25552
824.529	25575
824.669	25529
824.809	25586
824.949	25727
825.089	25525
825.228	25426
825.368	25377
825.508	25270
825.648	25343
825.787	25312
825.927	25518
826.067	25244
826.206	25297
826.346	25464
826.485	25434
826.625	25232
826.765	25453
826.904	25373
827.044	25179
827.183	25145
827.323	25145
827.462	25118
827.601	25050
827.741	24989
827.88	25095
828.02	24867
828.159	24935
828.298	25000
828.437	25110
828.577	24970
828.716	25069
828.855	24882
828.994	24840
829.134	24798
829.273	24913
829.412	24700
829.551	24627
829.69	24806
829.829	24882
829.968	24802
830.107	24875
830.246	24719
830.385	24620
830.524	24684
830.663	24555
830.802	24342
830.941	24388
831.08	24380
831.219	24414
831.357	24330
831.496	24627
831.635	24388
831.774	24216
831.913	24182
832.051	24003
832.19	24205
832.329	24148
832.467	24102
832.606	23977
832.744	24038
832.883	24030
833.022	23939
833.16	23999
833.299	24007
833.437	24053
833.576	24087
833.714	23897
833.852	24251
833.991	24110
834.129	24186
834.267	24144
834.406	24045
834.544	24079
834.682	24007
834.821	24015
834.959	24270
835.097	24003
835.235	24110
835.373	24148
835.511	24060
835.65	24045
835.788	23908
835.926	23828
836.064	23691
836.202	23779
836.34	23984
836.478	23920
836.615	24060
836.753	24022
836.891	23931
837.029	23920
837.167	23767
837.305	23840
837.443	23794
837.58	23722
837.718	23676
837.856	23828
837.993	23802
838.131	23737
838.269	23539
838.406	23798
838.544	23661
838.681	23414
838.819	23398
838.956	23189
839.094	23288
839.231	23330
839.369	23341
839.506	23585
839.643	23433
839.781	23269
839.918	23102
840.055	23254
840.193	23170
840.33	23105
840.467	23098
840.604	23170
840.742	23326
840.879	22995
841.016	23006
841.153	23067
841.29	23185
841.427	23094
841.564	23151
841.701	23162
841.838	23189
841.975	23143
842.112	23052
842.249	23052
842.385	22843
842.522	23033
842.659	22900
842.796	22995
842.933	22877
843.069	22793
843.206	22793
843.343	23044
843.479	22911
843.616	22923
843.752	22717
843.889	22577
844.025	22854
844.162	22675
844.298	22752
844.435	22645
844.571	22577
844.708	22793
844.844	22828
844.98	22717
845.117	22729
845.253	22580
845.389	22470
845.525	22538
845.661	22588
845.798	22375
845.934	22341
846.07	22367
846.206	22280
846.342	22440
846.478	22333
846.614	22291
846.75	22078
846.886	22139
847.022	22154
847.158	22234
847.294	22207
847.429	22131
847.565	22109
847.701	22261
847.837	21941
847.972	21778
848.108	21953
848.244	21884
848.379	21816
848.515	21789
848.65	21736
848.786	21557
848.921	21682
849.057	21907
849.192	21831
849.328	21762
849.463	21717
849.598	21675
849.734	21652
849.869	21595
850.004	21568
850.14	21428
850.275	21606
850.41	21317
850.545	21382
850.68	21420
850.815	21580
850.95	21359
851.085	21671
851.22	21713
851.355	21488
851.49	21416
851.625	21473
851.76	21355
851.895	21504
852.03	21382
852.165	21439
852.299	21412
852.434	21564
852.569	21412
852.703	21568
852.838	21473
852.973	21679
853.107	21576
853.242	21443
853.376	21378
853.511	21203
853.645	21237
853.78	21393
853.914	21241
854.048	21340
854.183	21245
854.317	21321
854.451	21447
854.585	21283
854.72	21195
854.854	21447
854.988	21298
855.122	21359
855.256	21214
855.39	21298
855.524	21321
855.658	21306
855.792	21294
855.926	21351
856.06	21348
856.194	21450
856.327	21428
856.461	21211
856.595	21180
856.729	21252
856.862	21504
856.996	21222
857.13	21218
857.263	21386
857.397	21351
857.53	21214
857.664	21348
857.797	21279
857.931	21386
858.064	21256
858.197	21317
858.331	21306
858.464	21173
858.597	21199
858.731	21211
858.864	21329
858.997	21348
859.13	21291
859.263	21222
859.396	21397
859.529	21252
859.662	21332
859.795	21260
859.928	21363
860.061	21447
860.194	21435
860.327	21351
860.46	21313
860.592	21386
860.725	21401
860.858	21420
860.99	21363
861.123	21291
861.256	21279
861.388	21154
861.521	21964
861.653	21169
861.786	21211
861.918	21154
862.05	21211
862.183	21192
862.315	21233
862.447	21420
862.58	21222
862.712	21013
862.844	21013
862.976	21005
863.108	21096
863.24	21435
863.372	20990
863.504	21005
863.636	21013
863.768	20967
863.9	21017
864.032	20933
864.164	20979
864.296	20975
864.428	21055
864.559	21123
864.691	21043
864.823	20937
864.954	20986
865.086	21005
865.217	20883
865.349	20781
865.48	20857
865.612	20872
865.743	20956
865.875	20895
866.006	20788
866.137	20792
866.269	20929
866.4	20929
866.531	20842
866.662	20914
866.793	20918
866.924	20830
867.055	20948
867.186	20921
867.317	20769
867.448	20754
867.579	20861
867.71	20724
867.841	20914
867.972	20902
868.103	20910
868.233	20861
868.364	20845
868.495	20895
868.625	21230
868.756	21112
868.886	21024
869.017	21127
869.147	21233
869.278	21127
869.408	21108
869.539	21150
869.669	21104
869.799	21127
869.929	21294
870.06	21176
870.19	21256
870.32	21321
870.45	21469
870.58	21393
870.71	21595
870.84	21557
870.97	21576
871.1	21492
871.23	21610
871.36	21698
871.489	21637
871.619	21629
871.749	21713
871.879	21705
872.008	21907
872.138	21561
872.267	21709
872.397	21618
872.526	21462
872.656	21492
872.785	21564
872.915	21743
873.044	21816
873.173	21743
873.303	21679
873.432	21789
873.561	21823
873.69	21743
873.819	21610
873.948	21846
874.077	21717
874.206	21606
874.335	21610
874.464	21694
874.593	21983
874.722	21797
874.851	22051
874.979	21994
875.108	21979
875.237	21865
875.365	21762
875.494	21880
875.623	21987
875.751	21994
875.88	21953
876.008	22029
876.136	22131
876.265	22291
876.393	22440
876.521	22417
876.65	22428
876.778	22337
876.906	22310
877.034	22135
877.162	22234
877.29	22238
877.418	22303
877.546	22379
877.674	22211
877.802	22242
877.93	22200
878.058	22204
878.185	22067
878.313	22344
878.441	22215
878.568	22025
878.696	22196
878.824	22226
878.951	22432
879.079	22417
879.206	22599
879.333	22394
879.461	22322
879.588	22424
879.715	22375
879.842	22527
879.97	22432
880.097	22131
880.224	22036
880.351	22074
880.478	22017
880.605	22021
880.732	22086
880.859	22192
880.986	22078
881.112	22082
881.239	21949
881.366	21968
881.493	21804
881.619	21732
881.746	21797
881.872	21675
881.999	21648
882.125	21599
882.252	21736
882.378	21686
882.505	21663
882.631	21564
882.757	21412
882.883	21431
883.01	21382
883.136	21348
883.262	21291
883.388	21283
883.514	21382
883.64	21332
883.766	21256
883.892	21104
884.018	21195
884.143	21359
884.269	21466
884.395	21081
884.52	20941
884.646	21093
884.772	21020
884.897	20868
885.023	21119
885.148	20937
885.274	21192
885.399	21188
885.524	20982
885.65	21077
885.775	20933
885.9	20937
886.025	21074
886.15	21066
886.275	20925
886.4	20842
886.525	20853
886.65	20933
886.775	20960
886.9	21104
887.025	21211
887.149	21036
887.274	20864
887.399	20883
887.523	20830
887.648	20689
887.773	20716
887.897	20975
888.021	20811
888.146	20693
888.27	20853
888.395	20838
888.519	20804
888.643	20731
888.767	20792
888.891	20648
889.015	20590
889.139	20507
889.263	20564
889.387	20720
889.511	20773
889.635	20629
889.759	20488
889.883	20560
890.006	20590
890.13	20549
890.254	20511
890.377	20640
890.501	20450
890.624	20282
890.748	20404
890.871	20259
890.995	20172
891.118	20092
891.241	20145
891.364	20145
891.488	20225
891.611	20183
891.734	20202
891.857	20149
891.98	20210
892.103	20248
892.226	20122
892.349	20088
892.471	19856
892.594	20138
892.717	20183
892.839	19917
892.962	20138
893.085	20180
893.207	20103
893.33	19925
893.452	19894
893.575	20119
893.697	20107
893.819	20248
893.941	20301
894.064	20176
894.186	20008
894.308	19982
894.43	19997
894.552	20218
894.674	20191
894.796	19936
894.918	19913
895.04	19997
895.161	20191
895.283	20107
895.405	19928
895.526	20008
895.648	20081
895.769	20046
895.891	20027
896.012	20221
896.134	20107
896.255	20138
896.376	20012
896.498	20122
896.619	20081
896.74	19944
896.861	20054
896.982	20499
897.103	20560
897.224	20309
897.345	20339
897.466	20153
897.587	20218
897.708	20454
897.828	20381
897.949	20157
898.07	20096
898.19	20282
898.311	20358
898.431	20187
898.552	20244
898.672	20305
898.792	20290
898.913	20206
899.033	20218
899.153	20103
899.273	19902
899.393	19936
899.513	19997
899.633	20035
899.753	20096
899.873	19875
899.993	20050
900.113	19875
900.232	19974
900.352	19875
900.472	19826
900.591	19772
900.711	19757
900.83	19807
900.95	19890
901.069	19940
901.189	19769
901.308	19403
901.427	19301
901.546	19365
901.665	19354
901.784	19316
901.904	19282
902.023	19217
902.141	19004
902.26	18840
902.379	18958
902.498	19053
902.617	18932
902.735	18871
902.854	18966
902.973	18928
903.091	18684
903.21	18517
903.328	18563
903.446	18536
903.565	18346
903.683	18429
903.801	18285
903.919	18372
904.038	18292
904.156	18197
904.274	18194
904.392	17988
904.51	18110
904.627	18026
904.745	18190
904.863	18216
904.981	17935
905.098	17874
905.216	17794
905.334	17893
905.451	17866
905.569	17722
905.686	17813
905.803	17817
905.921	17490
906.038	17646
906.155	17695
906.272	17630
906.389	17493
906.506	17387
906.623	17311
906.74	17360
906.857	17318
906.974	17288
907.091	17398
907.208	17421
907.324	17463
907.441	17258
907.557	17052
907.674	17029
907.79	16976
907.907	16976
908.023	17010
908.139	16972
908.256	17029
908.372	16919
908.488	16911
908.604	16862
908.72	16603
908.836	16858
908.952	16778
909.068	16839
909.184	16946
909.3	16812
909.415	16771
909.531	16713
909.647	16519
909.762	16489
909.878	16440
909.993	16523
910.108	16447
910.224	16382
910.339	16390
910.454	16310
910.57	16310
910.685	16272
910.8	16428
910.915	16474
911.03	16276
911.145	16169
911.259	16067
911.374	16082
911.489	15956
911.604	16082
911.718	15915
911.833	15835
911.947	15823
912.062	15686
912.176	15865
912.291	15694
912.405	15812
912.519	16093
912.633	16055
912.748	15819
912.862	15766
912.976	15652
913.09	15488
913.204	15511
913.318	15614
913.431	15713
913.545	15728
913.659	15663
913.772	15637
913.886	15564
914	15477
914.113	15538
914.226	15557
914.34	15500
914.453	15310
914.566	15416
914.68	15317
914.793	15310
914.906	15192
915.019	15055
915.132	15058
915.245	15062
915.358	15058
915.47	15017
915.583	15081
915.696	14979
915.809	15116
915.921	15218
916.034	15123
916.146	14937
916.259	15024
916.371	15028
916.483	15032
916.595	14861
916.708	14857
916.82	14823
916.932	14811
917.044	14891
917.156	14838
917.268	14750
917.38	14701
917.491	14781
917.603	14769
917.715	14735
917.826	14777
917.938	14663
918.049	14507
918.161	14636
918.272	14815
918.384	14731
918.495	14636
918.606	14533
918.717	14503
918.828	14476
918.939	14484
919.05	14389
919.161	14423
919.272	14206
919.383	14370
919.494	14438
919.604	14644
919.715	14499
919.826	14358
919.936	14393
920.047	14480
920.157	14381
920.267	14667
920.378	14423
920.488	14412
920.598	14579
920.708	14689
920.818	14526
920.928	14526
921.038	14659
921.148	14701
921.258	14332
921.368	14336
921.477	14233
921.587	14225
921.697	14046
921.806	14218
921.916	14012
922.025	13868
922.134	13879
922.244	13700
922.353	13753
922.462	13750
922.571	13620
922.68	13472
922.789	13457
922.898	13506
923.007	13407
923.116	13468
923.224	13438
923.333	13457
923.442	13297
923.55	13259
923.659	13331
923.767	13419
923.876	13270
923.984	13304
924.092	13209
924.201	13160
924.309	13206
924.417	13282
924.525	13133
924.633	13099
924.741	13936
924.849	12966
924.956	13038
925.064	12871
925.172	12905
925.279	12878
925.387	12894
925.494	12897
925.602	13012
925.709	12890
925.816	12745
925.924	12829
926.031	12810
926.138	12795
926.245	12821
926.352	12753
926.459	12867
926.566	12856
926.673	12779
926.779	12585
926.886	12616
926.993	12475
927.099	12464
927.206	12330
927.312	12422
927.419	12513
927.525	12464
927.631	12494
927.737	12437
927.843	12292
927.95	12235
928.056	12239
928.162	12258
928.267	12270
928.373	12890
928.479	12311
928.585	12140
928.69	12239
928.796	12213
928.901	12106
929.007	12072
929.112	12136
929.218	12068
929.323	11988
929.428	12038
929.533	12117
929.638	11855
929.743	11916
929.848	11946
929.953	11882
930.058	11809
930.163	11691
930.267	11691
930.372	11828
930.477	11642
930.581	11824
930.685	11661
930.79	11600
930.894	11566
930.998	11547
931.103	11733
931.207	11284
931.311	11284
931.415	11254
931.519	11006
931.623	10976
