Data from test_V78500241_1776.txt Node
Date: Fri Mar 25 15:22:13 CST 2022
User: usil
Spectrometer: V785-0024
Trigger mode: 0
Integration Time (sec): 4.000000E-1
Scans to average: 1
Nonlinearity correction enabled: false
Boxcar width: 0
Storing dark spectrum: false
XAxis mode: Wavelengths
Number of Pixels in Spectrum: 1024
>>>>>Begin Spectral Data<<<<<
801.071	27934
801.214	27964
801.356	27652
801.499	27682
801.641	27553
801.783	27496
801.926	27488
802.068	27564
802.211	27515
802.353	27405
802.496	27226
802.638	27089
802.78	27074
802.923	27203
803.065	26948
803.208	27096
803.35	27131
803.492	27275
803.635	27386
803.777	27260
803.919	27405
804.061	27694
804.204	27389
804.346	27340
804.488	27370
804.63	27291
804.773	27173
804.915	27298
805.057	27488
805.199	27412
805.341	27583
805.483	27492
805.626	27488
805.768	27355
805.91	27492
806.052	27420
806.194	27511
806.336	27778
806.478	27545
806.62	27511
806.762	27713
806.904	27698
807.046	28105
807.188	27926
807.33	28017
807.472	27983
807.614	27861
807.756	27914
807.898	27888
808.04	27717
808.182	27713
808.324	27895
808.465	27895
808.607	27979
808.749	28223
808.891	28154
809.033	28341
809.174	28173
809.316	28059
809.458	28128
809.6	28173
809.741	28280
809.883	28341
810.025	28447
810.166	28394
810.308	28447
810.45	28272
810.591	28371
810.733	28185
810.875	28074
811.016	27937
811.158	28078
811.299	28249
811.441	28325
811.582	28394
811.724	28204
811.865	28120
812.007	28078
812.148	27991
812.29	28002
812.431	28375
812.573	28687
812.714	28538
812.855	28653
812.997	28740
813.138	28828
813.279	28847
813.421	28713
813.562	28550
813.703	28577
813.845	28344
813.986	28082
814.127	27854
814.268	27884
814.41	27838
814.551	27808
814.692	27800
814.833	27804
814.974	27831
815.115	27823
815.256	27530
815.397	27774
815.539	27701
815.68	27603
815.821	27606
815.962	27576
816.103	27583
816.244	27500
816.385	27492
816.526	27374
816.666	27298
816.807	27161
816.948	27127
817.089	27264
817.23	27081
817.371	27264
817.512	27135
817.653	27119
817.793	27055
817.934	27093
818.075	27348
818.216	27089
818.356	27203
818.497	27024
818.638	26887
818.778	26883
818.919	26845
819.06	26845
819.2	26979
819.341	27161
819.481	27062
819.622	27351
819.762	27492
819.903	27351
820.043	27408
820.184	27363
820.324	27310
820.465	27211
820.605	27203
820.746	27157
820.886	27165
821.026	27150
821.167	27233
821.307	27344
821.447	27173
821.588	26994
821.728	26864
821.868	26785
822.008	26602
822.149	26556
822.289	26537
822.429	26400
822.569	26271
822.709	26191
822.849	26153
822.99	26043
823.13	26062
823.27	25944
823.41	25818
823.55	25833
823.69	25966
823.83	25852
823.97	25902
824.11	25719
824.25	25765
824.389	25689
824.529	25746
824.669	25769
824.809	25761
824.949	25852
825.089	25868
825.228	25742
825.368	25635
825.508	25616
825.648	25727
825.787	25700
825.927	25639
826.067	25601
826.206	25567
826.346	25590
826.485	25518
826.625	25632
826.765	25712
826.904	25651
827.044	25430
827.183	25403
827.323	25327
827.462	25419
827.601	25362
827.741	25407
827.88	25499
828.02	25175
828.159	25206
828.298	25282
828.437	25350
828.577	25266
828.716	25445
828.855	25255
828.994	25015
829.134	25012
829.273	25091
829.412	24935
829.551	24977
829.69	24962
829.829	25118
829.968	25152
830.107	25069
830.246	25114
830.385	24985
830.524	24962
830.663	24848
830.802	24810
830.941	24749
831.08	24688
831.219	24833
831.357	24772
831.496	24890
831.635	24867
831.774	24700
831.913	24544
832.051	24490
832.19	24460
832.329	24517
832.467	24380
832.606	24346
832.744	24403
832.883	24365
833.022	24346
833.16	24429
833.299	24464
833.437	24445
833.576	24376
833.714	24460
833.852	24456
833.991	24441
834.129	24475
834.267	24418
834.406	24410
834.544	24585
834.682	24486
834.821	24418
834.959	24582
835.097	24330
835.235	24407
835.373	24292
835.511	24372
835.65	24243
835.788	24262
835.926	24098
836.064	24079
836.202	24076
836.34	24072
836.478	24315
836.615	24209
836.753	24315
836.891	24346
837.029	24308
837.167	24315
837.305	24155
837.443	24266
837.58	24190
837.718	24232
837.856	24091
837.993	24022
838.131	24091
838.269	24049
838.406	24076
838.544	23897
838.681	23748
838.819	23733
838.956	23573
839.094	23573
839.231	23562
839.369	23760
839.506	23840
839.643	23813
839.781	23600
839.918	23395
840.055	23562
840.193	23611
840.33	23486
840.467	23554
840.604	23646
840.742	23794
840.879	23322
841.016	23360
841.153	23376
841.29	23684
841.427	23459
841.564	23493
841.701	23482
841.838	23414
841.975	23429
842.112	23455
842.249	23311
842.385	23273
842.522	23429
842.659	23337
842.796	23147
842.933	23178
843.069	23223
843.206	23296
843.343	23364
843.479	23337
843.616	23269
843.752	23048
843.889	23136
844.025	23155
844.162	23121
844.298	23189
844.435	23086
844.571	22953
844.708	23060
844.844	23124
844.98	23079
845.117	23162
845.253	22961
845.389	22923
845.525	22965
845.661	22824
845.798	22660
845.934	22763
846.07	22744
846.206	22698
846.342	22911
846.478	22752
846.614	22485
846.75	22303
846.886	22538
847.022	22626
847.158	22512
847.294	22577
847.429	22504
847.565	22421
847.701	22736
847.837	22284
847.972	22200
848.108	22261
848.244	22207
848.379	22166
848.515	21998
848.65	22097
848.786	22051
848.921	22124
849.057	22344
849.192	22276
849.328	22162
849.463	22177
849.598	22063
849.734	21941
849.869	22010
850.004	21895
850.14	21797
850.275	21819
850.41	21819
850.545	21736
850.68	21880
850.815	21838
850.95	21956
851.085	21979
851.22	22074
851.355	21846
851.49	21873
851.625	21671
851.76	21797
851.895	21793
852.03	21808
852.165	21819
852.299	21842
852.434	22017
852.569	21937
852.703	21846
852.838	21915
852.973	22090
853.107	21926
853.242	21747
853.376	21538
853.511	21511
853.645	21705
853.78	21713
853.914	21557
854.048	21603
854.183	21660
854.317	21785
854.451	21838
854.585	21717
854.72	21641
854.854	21747
854.988	21549
855.122	21530
855.256	21523
855.39	21572
855.524	21755
855.658	21679
855.792	21511
855.926	21625
856.06	21778
856.194	21690
856.327	21720
856.461	21644
856.595	21606
856.729	21709
856.862	21785
856.996	21717
857.13	21690
857.263	21701
857.397	21701
857.53	21743
857.664	21686
857.797	21679
857.931	21671
858.064	21694
858.197	21808
858.331	21599
858.464	21538
858.597	21523
858.731	21644
858.864	21622
858.997	21603
859.13	21819
859.263	21572
859.396	21762
859.529	21622
859.662	21553
859.795	21530
859.928	21705
860.061	21774
860.194	21945
860.327	21743
860.46	21660
860.592	21614
860.725	21690
860.858	21789
860.99	21759
861.123	21545
861.256	21545
861.388	21633
861.521	22462
861.653	21542
861.786	21462
861.918	21431
862.05	21561
862.183	21511
862.315	21530
862.447	21713
862.58	21599
862.712	21477
862.844	21329
862.976	21519
863.108	21443
863.24	21743
863.372	21298
863.504	21466
863.636	21348
863.768	21431
863.9	21363
864.032	21306
864.164	21336
864.296	21378
864.428	21542
864.559	21458
864.691	21310
864.823	21325
864.954	21386
865.086	21374
865.217	21264
865.349	21184
865.48	21203
865.612	21165
865.743	21355
865.875	21195
866.006	21074
866.137	21313
866.269	21218
866.4	21188
866.531	21131
866.662	21104
866.793	21291
866.924	21222
867.055	21272
867.186	21233
867.317	21055
867.448	21081
867.579	21131
867.71	21138
867.841	21138
867.972	21241
868.103	21161
868.233	21237
868.364	21135
868.495	21272
868.625	21447
868.756	21431
868.886	21283
869.017	21462
869.147	21599
869.278	21557
869.408	21447
869.539	21401
869.669	21492
869.799	21469
869.929	21648
870.06	21564
870.19	21759
870.32	21816
870.45	21835
870.58	21831
870.71	21964
870.84	21762
870.97	21869
871.1	21846
871.23	22029
871.36	21972
871.489	21838
871.619	21930
871.749	22078
871.879	22109
872.008	22124
872.138	22109
872.267	21987
872.397	21880
872.526	21873
872.656	21854
872.785	21789
872.915	22105
873.044	22150
873.173	22048
873.303	22109
873.432	21979
873.561	22204
873.69	22063
873.819	22074
873.948	22204
874.077	21968
874.206	21953
874.335	22036
874.464	22128
874.593	22284
874.722	22192
874.851	22166
874.979	22226
875.108	22265
875.237	22280
875.365	22223
875.494	22284
875.623	22287
875.751	22219
875.88	22261
876.008	22352
876.136	22428
876.265	22706
876.393	22866
876.521	22656
876.65	22812
876.778	22645
876.906	22611
877.034	22596
877.162	22542
877.29	22546
877.418	22622
877.546	22519
877.674	22687
877.802	22615
877.93	22599
878.058	22645
878.185	22504
878.313	22531
878.441	22611
878.568	22474
878.696	22565
878.824	22656
878.951	22615
879.079	22801
879.206	22866
879.333	22736
879.461	22679
879.588	22618
879.715	22759
879.842	22911
879.97	22717
880.097	22451
880.224	22474
880.351	22516
880.478	22519
880.605	22360
880.732	22462
880.859	22630
880.986	22489
881.112	22371
881.239	22322
881.366	22200
881.493	22196
881.619	22078
881.746	22059
881.872	22238
881.999	21953
882.125	21903
882.252	22029
882.378	21998
882.505	22010
882.631	21884
882.757	21781
882.883	21698
883.01	21743
883.136	21770
883.262	21530
883.388	21682
883.514	21720
883.64	21762
883.766	21656
883.892	21530
884.018	21496
884.143	21629
884.269	21675
884.395	21439
884.52	21306
884.646	21515
884.772	21272
884.897	21237
885.023	21317
885.148	21428
885.274	21507
885.399	21515
885.524	21435
885.65	21306
885.775	21306
885.9	21405
886.025	21431
886.15	21447
886.275	21222
886.4	21230
886.525	21348
886.65	21154
886.775	21340
886.9	21450
887.025	21549
887.149	21272
887.274	21279
887.399	21135
887.523	21176
887.648	21062
887.773	21093
887.897	21252
888.021	21184
888.146	21142
888.27	21165
888.395	21169
888.519	21062
888.643	21230
888.767	21127
888.891	21028
889.015	20967
889.139	21055
889.263	20899
889.387	21005
889.511	21245
889.635	21036
889.759	20876
889.883	20979
890.006	20944
890.13	21055
890.254	20883
890.377	20800
890.501	20720
890.624	20651
890.748	20701
890.871	20503
890.995	20423
891.118	20450
891.241	20476
891.364	20492
891.488	20606
891.611	20454
891.734	20541
891.857	20480
891.98	20526
892.103	20503
892.226	20450
892.349	20427
892.471	20199
892.594	20507
892.717	20499
892.839	20385
892.962	20328
893.085	20514
893.207	20419
893.33	20237
893.452	20419
893.575	20385
893.697	20419
893.819	20587
893.941	20518
894.064	20518
894.186	20282
894.308	20282
894.43	20446
894.552	20621
894.674	20408
894.796	20305
894.918	20355
895.04	20320
895.161	20427
895.283	20427
895.405	20256
895.526	20336
895.648	20385
895.769	20259
895.891	20385
896.012	20408
896.134	20377
896.255	20309
896.376	20377
896.498	20324
896.619	20442
896.74	20339
896.861	20461
896.982	20727
897.103	20769
897.224	20575
897.345	20533
897.466	20503
897.587	20530
897.708	20754
897.828	20594
897.949	20537
898.07	20450
898.19	20545
898.311	20617
898.431	20492
898.552	20579
898.672	20537
898.792	20598
898.913	20518
899.033	20480
899.153	20526
899.273	20286
899.393	20355
899.513	20317
899.633	20248
899.753	20301
899.873	20103
899.993	20362
900.113	20221
900.232	20324
900.352	20183
900.472	20100
900.591	20081
900.711	20043
900.83	19940
900.95	20164
901.069	20103
901.189	19986
901.308	19772
901.427	19704
901.546	19681
901.665	19620
901.784	19655
901.904	19537
902.023	19426
902.141	19285
902.26	19152
902.379	19240
902.498	19247
902.617	19114
902.735	19209
902.854	19137
902.973	19091
903.091	18954
903.21	18878
903.328	18878
903.446	18722
903.565	18631
903.683	18639
903.801	18585
903.919	18661
904.038	18566
904.156	18437
904.274	18593
904.392	18441
904.51	18376
904.627	18475
904.745	18448
904.863	18399
904.981	18228
905.098	18163
905.216	18102
905.334	18155
905.451	18167
905.569	17992
905.686	18190
905.803	18068
905.921	17946
906.038	17939
906.155	17885
906.272	17733
906.389	17863
906.506	17718
906.623	17684
906.74	17551
906.857	17573
906.974	17608
907.091	17794
907.208	17668
907.324	17623
907.441	17524
907.557	17387
907.674	17417
907.79	17174
907.907	17326
908.023	17398
908.139	17261
908.256	17318
908.372	17223
908.488	17216
908.604	17162
908.72	17037
908.836	17052
908.952	17045
909.068	17018
909.184	17185
909.3	17113
909.415	17128
909.531	16987
909.647	16835
909.762	16774
909.878	16771
909.993	16831
910.108	16721
910.224	16729
910.339	16710
910.454	16618
910.57	16428
910.685	16443
910.8	16763
910.915	16797
911.03	16550
911.145	16512
911.259	16306
911.374	16398
911.489	16246
911.604	16242
911.718	16131
911.833	16063
911.947	15945
912.062	15972
912.176	16112
912.291	16105
912.405	16135
912.519	16219
912.633	16223
912.748	16158
912.862	16067
912.976	15884
913.09	15835
913.204	15873
913.318	15819
913.431	16078
913.545	16002
913.659	16090
913.772	15975
913.886	15671
914	15724
914.113	15823
914.226	15781
914.34	15804
914.453	15618
914.566	15652
914.68	15606
914.793	15526
914.906	15374
915.019	15313
915.132	15310
915.245	15374
915.358	15458
915.47	15332
915.583	15389
915.696	15329
915.809	15393
915.921	15386
916.034	15245
916.146	15150
916.259	15230
916.371	15226
916.483	15249
916.595	15146
916.708	15135
916.82	15108
916.932	15001
917.044	15074
917.156	15066
917.268	14998
917.38	14963
917.491	14921
917.603	15013
917.715	15066
917.826	15066
917.938	14880
918.049	14800
918.161	14857
918.272	15070
918.384	15116
918.495	14777
918.606	14781
918.717	14617
918.828	14762
918.939	14716
919.05	14602
919.161	14663
919.272	14476
919.383	14594
919.494	14701
919.604	14834
919.715	14697
919.826	14621
919.936	14644
920.047	14621
920.157	14594
920.267	14796
920.378	14670
920.488	14667
920.598	14762
920.708	14933
920.818	14781
920.928	14807
921.038	14975
921.148	14975
921.258	14636
921.368	14545
921.477	14366
921.587	14446
921.697	14275
921.806	14484
921.916	14233
922.025	14096
922.134	14077
922.244	14005
922.353	14020
922.462	13944
922.571	13883
922.68	13746
922.789	13719
922.898	13655
923.007	13567
923.116	13700
923.224	13655
923.333	13677
923.442	13537
923.55	13525
923.659	13537
923.767	13643
923.876	13434
923.984	13495
924.092	13396
924.201	13537
924.309	13396
924.417	13419
924.525	13327
924.633	13301
924.741	14138
924.849	13194
924.956	13240
925.064	13110
925.172	13027
925.279	13027
925.387	13095
925.494	13038
925.602	13129
925.709	13175
925.816	13023
925.924	12962
926.031	13187
926.138	13015
926.245	13046
926.352	12878
926.459	13050
926.566	13091
926.673	12935
926.779	12825
926.886	12875
926.993	12764
927.099	12684
927.206	12608
927.312	12616
927.419	12658
927.525	12639
927.631	12696
927.737	12456
927.843	12426
927.95	12391
928.056	12498
928.162	12479
928.267	12467
928.373	13118
928.479	12490
928.585	12251
928.69	12467
928.796	12426
928.901	12235
929.007	12197
929.112	12395
929.218	12251
929.323	12228
929.428	12247
929.533	12334
929.638	12178
929.743	12148
929.848	12148
929.953	12144
930.058	12072
930.163	11859
930.267	11885
930.372	11946
930.477	11901
930.581	12034
930.685	11893
930.79	11832
930.894	11741
930.998	11745
931.103	11859
931.207	11471
931.311	11433
931.415	11356
931.519	11159
931.623	11105
