Data from test_V78500241_3053.txt Node
Date: Fri Mar 25 15:31:07 CST 2022
User: usil
Spectrometer: V785-0024
Trigger mode: 0
Integration Time (sec): 4.000000E-1
Scans to average: 1
Nonlinearity correction enabled: false
Boxcar width: 0
Storing dark spectrum: false
XAxis mode: Wavelengths
Number of Pixels in Spectrum: 1024
>>>>>Begin Spectral Data<<<<<
801.071	27237
801.214	27230
801.356	26998
801.499	26967
801.641	26891
801.783	26785
801.926	26823
802.068	26754
802.211	26705
802.353	26701
802.496	26640
802.638	26579
802.78	26442
802.923	26343
803.065	26339
803.208	26305
803.35	26415
803.492	26522
803.635	26758
803.777	26396
803.919	26552
804.061	26887
804.204	26739
804.346	26564
804.488	26431
804.63	26549
804.773	26396
804.915	26564
805.057	26739
805.199	26598
805.341	26682
805.483	26724
805.626	26678
805.768	26655
805.91	26735
806.052	26845
806.194	26590
806.336	26800
806.478	26716
806.62	26693
806.762	26796
806.904	26925
807.046	27211
807.188	27154
807.33	27173
807.472	27138
807.614	26982
807.756	27039
807.898	26918
808.04	26826
808.182	26952
808.324	27108
808.465	27100
808.607	27188
808.749	27298
808.891	27321
809.033	27348
809.174	27351
809.316	27195
809.458	27249
809.6	27192
809.741	27378
809.883	27542
810.025	27515
810.166	27701
810.308	27667
810.45	27378
810.591	27488
810.733	27272
810.875	27348
811.016	27214
811.158	27313
811.299	27504
811.441	27488
811.582	27378
811.724	27321
811.865	27188
812.007	27256
812.148	27184
812.29	27332
812.431	27454
812.573	27549
812.714	27648
812.855	27743
812.997	27956
813.138	28116
813.279	27926
813.421	27759
813.562	27781
813.703	27622
813.845	27587
813.986	27165
814.127	27020
814.268	26967
814.41	26986
814.551	26914
814.692	27047
814.833	26861
814.974	26823
815.115	26868
815.256	26872
815.397	26807
815.539	26842
815.68	26746
815.821	26663
815.962	26720
816.103	26693
816.244	26621
816.385	26492
816.526	26423
816.666	26351
816.807	26195
816.948	26404
817.089	26415
817.23	26271
817.371	26199
817.512	26305
817.653	26115
817.793	26043
817.934	26134
818.075	26164
818.216	26244
818.356	26187
818.497	26130
818.638	25936
818.778	25936
818.919	25909
819.06	26001
819.2	26172
819.341	26145
819.481	26122
819.622	26339
819.762	26473
819.903	26480
820.043	26423
820.184	26256
820.324	26278
820.465	26366
820.605	26381
820.746	26286
820.886	26157
821.026	26256
821.167	26263
821.307	26355
821.447	26134
821.588	26103
821.728	25978
821.868	25784
822.008	25723
822.149	25696
822.289	25635
822.429	25350
822.569	25316
822.709	25343
822.849	25168
822.99	25266
823.13	25122
823.27	25221
823.41	24996
823.55	24635
823.69	25156
823.83	25084
823.97	24924
824.11	24787
824.25	24661
824.389	24734
824.529	24905
824.669	24821
824.809	24844
824.949	24916
825.089	24886
825.228	24962
825.368	24669
825.508	24612
825.648	24673
825.787	24589
825.927	24719
826.067	24616
826.206	24707
826.346	24700
826.485	24764
826.625	24658
826.765	24677
826.904	24623
827.044	24509
827.183	24475
827.323	24323
827.462	24456
827.601	24395
827.741	24258
827.88	24376
828.02	24346
828.159	24281
828.298	24308
828.437	24437
828.577	24262
828.716	24498
828.855	24311
828.994	24140
829.134	24106
829.273	24133
829.412	24079
829.551	24030
829.69	24068
829.829	24038
829.968	24133
830.107	24148
830.246	24083
830.385	23999
830.524	24076
830.663	23980
830.802	23813
830.941	23661
831.08	23646
831.219	23745
831.357	23642
831.496	23832
831.635	23756
831.774	23543
831.913	23497
832.051	23573
832.19	23493
832.329	23414
832.467	23402
832.606	23242
832.744	23273
832.883	23315
833.022	23254
833.16	23284
833.299	23296
833.437	23288
833.576	23493
833.714	23501
833.852	23627
833.991	23455
834.129	23414
834.267	23512
834.406	23436
834.544	23452
834.682	23417
834.821	23258
834.959	23554
835.097	23341
835.235	23467
835.373	23463
835.511	23337
835.65	23307
835.788	23322
835.926	23174
836.064	23113
836.202	23079
836.34	23220
836.478	23353
836.615	23083
836.753	23368
836.891	23315
837.029	23193
837.167	23204
837.305	23170
837.443	23159
837.58	23075
837.718	23189
837.856	23117
837.993	22957
838.131	23109
838.269	22957
838.406	23025
838.544	22987
838.681	22759
838.819	22679
838.956	22546
839.094	22535
839.231	22542
839.369	22664
839.506	23071
839.643	22782
839.781	22440
839.918	22569
840.055	22584
840.193	22531
840.33	22466
840.467	22436
840.604	22512
840.742	22660
840.879	22310
841.016	22443
841.153	22303
841.29	22561
841.427	22527
841.564	22424
841.701	22466
841.838	22428
841.975	22348
842.112	22432
842.249	22337
842.385	22181
842.522	22599
842.659	22352
842.796	22207
842.933	22238
843.069	22226
843.206	22109
843.343	22310
843.479	22200
843.616	22303
843.752	22074
843.889	22040
844.025	22090
844.162	22036
844.298	22086
844.435	22010
844.571	22036
844.708	22082
844.844	22246
844.98	22268
845.117	22150
845.253	21930
845.389	21854
845.525	21987
845.661	21854
845.798	21743
845.934	21774
846.07	21789
846.206	21762
846.342	21789
846.478	21751
846.614	21553
846.75	21447
846.886	21568
847.022	21641
847.158	21625
847.294	21576
847.429	21583
847.565	21397
847.701	21660
847.837	21252
847.972	21184
848.108	21275
848.244	21283
848.379	21157
848.515	21195
848.65	21005
848.786	21077
848.921	21112
849.057	21245
849.192	21154
849.328	21096
849.463	21074
849.598	21043
849.734	20933
849.869	20994
850.004	20815
850.14	20800
850.275	20918
850.41	20754
850.545	20872
850.68	20864
850.815	20925
850.95	20807
851.085	21017
851.22	20864
851.355	20876
851.49	20826
851.625	20868
851.76	20826
851.895	20785
852.03	20807
852.165	20765
852.299	20891
852.434	21013
852.569	20838
852.703	20781
852.838	21001
852.973	21051
853.107	20998
853.242	20796
853.376	20861
853.511	20579
853.645	20670
853.78	20804
853.914	20743
854.048	20693
854.183	20727
854.317	20731
854.451	20887
854.585	20724
854.72	20750
854.854	20659
854.988	20609
855.122	20701
855.256	20541
855.39	20689
855.524	20693
855.658	20701
855.792	20693
855.926	20807
856.06	20625
856.194	20674
856.327	20583
856.461	20644
856.595	20613
856.729	20788
856.862	20804
856.996	20720
857.13	20777
857.263	20724
857.397	20678
857.53	20526
857.664	20682
857.797	20762
857.931	20758
858.064	20689
858.197	20762
858.331	20568
858.464	20583
858.597	20629
858.731	20644
858.864	20617
858.997	20590
859.13	20754
859.263	20682
859.396	20705
859.529	20678
859.662	20663
859.795	20602
859.928	20701
860.061	20785
860.194	20941
860.327	20663
860.46	20693
860.592	20758
860.725	20804
860.858	20781
860.99	20773
861.123	20590
861.256	20629
861.388	20609
861.521	21180
861.653	20488
861.786	20511
861.918	20568
862.05	20545
862.183	20602
862.315	20765
862.447	20705
862.58	20689
862.712	20404
862.844	20396
862.976	20442
863.108	20434
863.24	20712
863.372	20282
863.504	20438
863.636	20320
863.768	20488
863.9	20412
864.032	20366
864.164	20332
864.296	20446
864.428	20450
864.559	20564
864.691	20450
864.823	20320
864.954	20431
865.086	20355
865.217	20218
865.349	20237
865.48	20305
865.612	20328
865.743	20400
865.875	20309
866.006	20282
866.137	20229
866.269	20267
866.4	20252
866.531	20218
866.662	20263
866.793	20214
866.924	20271
867.055	20282
867.186	20161
867.317	20210
867.448	20256
867.579	20183
867.71	20115
867.841	20244
867.972	20244
868.103	20298
868.233	20168
868.364	20267
868.495	20298
868.625	20442
868.756	20644
868.886	20461
869.017	20415
869.147	20583
869.278	20575
869.408	20495
869.539	20480
869.669	20480
869.799	20541
869.929	20674
870.06	20488
870.19	20777
870.32	20735
870.45	20823
870.58	20785
870.71	20986
870.84	20979
870.97	20902
871.1	20895
871.23	20967
871.36	21081
871.489	20944
871.619	20910
871.749	21074
871.879	21077
872.008	21131
872.138	21085
872.267	21020
872.397	20963
872.526	20857
872.656	20899
872.785	20944
872.915	21131
873.044	21017
873.173	21131
873.303	21116
873.432	21157
873.561	21138
873.69	21142
873.819	21070
873.948	21298
874.077	21085
874.206	21116
874.335	21161
874.464	21348
874.593	21412
874.722	21249
874.851	21363
874.979	21313
875.108	21412
875.237	21199
875.365	21169
875.494	21336
875.623	21428
875.751	21351
875.88	21367
876.008	21473
876.136	21519
876.265	21724
876.393	21895
876.521	21762
876.65	21865
876.778	21679
876.906	21629
877.034	21785
877.162	21759
877.29	21816
877.418	21724
877.546	21705
877.674	21637
877.802	21709
877.93	21751
878.058	21705
878.185	21603
878.313	21622
878.441	21625
878.568	21686
878.696	21679
878.824	21736
878.951	21778
879.079	21857
879.206	22010
879.333	21880
879.461	21637
879.588	21857
879.715	21831
879.842	22013
879.97	21816
880.097	21496
880.224	21595
880.351	21751
880.478	21568
880.605	21553
880.732	21557
880.859	21823
880.986	21530
881.112	21488
881.239	21496
881.366	21218
881.493	21283
881.619	21112
881.746	21233
881.872	21089
881.999	21009
882.125	21096
882.252	21013
882.378	21108
882.505	21146
882.631	20948
882.757	20872
882.883	20773
883.01	20857
883.136	20735
883.262	20689
883.388	20648
883.514	20777
883.64	20754
883.766	20735
883.892	20663
884.018	20613
884.143	20735
884.269	20853
884.395	20545
884.52	20476
884.646	20518
884.772	20423
884.897	20480
885.023	20473
885.148	20648
885.274	20583
885.399	20583
885.524	20438
885.65	20438
885.775	20355
885.9	20343
886.025	20526
886.15	20480
886.275	20495
886.4	20385
886.525	20347
886.65	20290
886.775	20351
886.9	20457
887.025	20644
887.149	20400
887.274	20347
887.399	20183
887.523	20229
887.648	20031
887.773	20221
887.897	20374
888.021	20248
888.146	20111
888.27	20412
888.395	20396
888.519	20332
888.643	20263
888.767	20214
888.891	20225
889.015	19997
889.139	20107
889.263	19947
889.387	20130
889.511	20225
889.635	20122
889.759	19944
889.883	19967
890.006	20001
890.13	20027
890.254	20031
890.377	19917
890.501	19791
890.624	19712
890.748	19845
890.871	19708
890.995	19559
891.118	19563
891.241	19620
891.364	19681
891.488	19807
891.611	19643
891.734	19544
891.857	19677
891.98	19552
892.103	19609
892.226	19628
892.349	19514
892.471	19426
892.594	19487
892.717	19639
892.839	19510
892.962	19597
893.085	19605
893.207	19540
893.33	19419
893.452	19510
893.575	19480
893.697	19601
893.819	19704
893.941	19772
894.064	19655
894.186	19537
894.308	19483
894.43	19616
894.552	19746
894.674	19643
894.796	19480
894.918	19590
895.04	19575
895.161	19567
895.283	19708
895.405	19411
895.526	19578
895.648	19571
895.769	19514
895.891	19597
896.012	19677
896.134	19643
896.255	19571
896.376	19480
896.498	19590
896.619	19578
896.74	19540
896.861	19510
896.982	19776
897.103	20050
897.224	19887
897.345	19814
897.466	19723
897.587	19734
897.708	19921
897.828	19841
897.949	19681
898.07	19506
898.19	19837
898.311	19879
898.431	19750
898.552	19712
898.672	19830
898.792	19856
898.913	19837
899.033	19677
899.153	19609
899.273	19544
899.393	19514
899.513	19613
899.633	19369
899.753	19525
899.873	19548
899.993	19594
900.113	19537
900.232	19544
900.352	19358
900.472	19331
900.591	19251
900.711	19495
900.83	19270
900.95	19464
901.069	19396
901.189	19194
901.308	19080
901.427	18935
901.546	19000
901.665	18886
901.784	19031
901.904	18715
902.023	18814
902.141	18414
902.26	18582
902.379	18566
902.498	18475
902.617	18376
902.735	18388
902.854	18380
902.973	18327
903.091	18068
903.21	18106
903.328	18041
903.446	18121
903.565	17916
903.683	17843
903.801	17847
903.919	17866
904.038	17885
904.156	17676
904.274	17718
904.392	17695
904.51	17627
904.627	17668
904.745	17695
904.863	17718
904.981	17402
905.098	17364
905.216	17372
905.334	17341
905.451	17414
905.569	17356
905.686	17414
905.803	17288
905.921	17102
906.038	17254
906.155	17083
906.272	17105
906.389	16980
906.506	16923
906.623	16896
906.74	16934
906.857	16812
906.974	16892
907.091	16900
907.208	16942
907.324	16987
907.441	16843
907.557	16691
907.674	16565
907.79	16607
907.907	16592
908.023	16603
908.139	16702
908.256	16618
908.372	16504
908.488	16504
908.604	16470
908.72	16325
908.836	16394
908.952	16398
909.068	16394
909.184	16455
909.3	16314
909.415	16455
909.531	16356
909.647	16101
909.762	16055
909.878	15960
909.993	16071
910.108	16040
910.224	15991
910.339	16078
910.454	15945
910.57	15903
910.685	15785
910.8	16078
910.915	15937
911.03	15934
911.145	15770
911.259	15625
911.374	15656
911.489	15515
911.604	15542
911.718	15469
911.833	15519
911.947	15412
912.062	15302
912.176	15401
912.291	15439
912.405	15431
912.519	15599
912.633	15614
912.748	15405
912.862	15435
912.976	15214
913.09	15131
913.204	15233
913.318	15313
913.431	15351
913.545	15313
913.659	15336
913.772	15192
913.886	14990
914	15055
914.113	15123
914.226	15112
914.34	15085
914.453	14883
914.566	15070
914.68	14899
914.793	14925
914.906	14731
915.019	14648
915.132	14606
915.245	14606
915.358	14629
915.47	14678
915.583	14720
915.696	14697
915.809	14693
915.921	14758
916.034	14651
916.146	14522
916.259	14564
916.371	14678
916.483	14617
916.595	14419
916.708	14488
916.82	14610
916.932	14469
917.044	14522
917.156	14434
917.268	14336
917.38	14385
917.491	14263
917.603	14328
917.715	14473
917.826	14446
917.938	14275
918.049	14229
918.161	14256
918.272	14412
918.384	14408
918.495	14271
918.606	14081
918.717	14031
918.828	14168
918.939	14096
919.05	14020
919.161	14050
919.272	13833
919.383	13986
919.494	14180
919.604	14339
919.715	14126
919.826	14016
919.936	14077
920.047	14157
920.157	14035
920.267	14218
920.378	14050
920.488	14016
920.598	14248
920.708	14347
920.818	14256
920.928	14111
921.038	14339
921.148	14343
921.258	14043
921.368	13959
921.477	13811
921.587	13772
921.697	13651
921.806	13818
921.916	13620
922.025	13480
922.134	13540
922.244	13407
922.353	13518
922.462	13251
922.571	13270
922.68	13297
922.789	13202
922.898	13168
923.007	13038
923.116	13145
923.224	13099
923.333	13107
923.442	12993
923.55	12916
923.659	12939
923.767	13042
923.876	12947
923.984	13012
924.092	12772
924.201	12856
924.309	12867
924.417	12798
924.525	12852
924.633	12814
924.741	13674
924.849	12525
924.956	12715
925.064	12498
925.172	12528
925.279	12483
925.387	12498
925.494	12475
925.602	12578
925.709	12589
925.816	12467
925.924	12483
926.031	12589
926.138	12502
926.245	12490
926.352	12403
926.459	12544
926.566	12593
926.673	12391
926.779	12258
926.886	12388
926.993	12102
927.099	12159
927.206	12106
927.312	12064
927.419	12163
927.525	12098
927.631	12102
927.737	11969
927.843	12007
927.95	11904
928.056	11954
928.162	12068
928.267	12068
928.373	12662
928.479	12068
928.585	11824
928.69	11866
928.796	11954
928.901	11912
929.007	11653
929.112	11805
929.218	11824
929.323	11672
929.428	11615
929.533	11756
929.638	11570
929.743	11668
929.848	11741
929.953	11680
930.058	11592
930.163	11360
930.267	11406
930.372	11570
930.477	11383
930.581	11547
930.685	11395
930.79	11326
930.894	11311
930.998	11299
931.103	11395
931.207	11071
931.311	10987
931.415	10904
931.519	10793
931.623	10668
