Data from test_V78500241_2164.txt Node
Date: Fri Mar 25 15:24:55 CST 2022
User: usil
Spectrometer: V785-0024
Trigger mode: 0
Integration Time (sec): 4.000000E-1
Scans to average: 1
Nonlinearity correction enabled: false
Boxcar width: 0
Storing dark spectrum: false
XAxis mode: Wavelengths
Number of Pixels in Spectrum: 1024
>>>>>Begin Spectral Data<<<<<
801.071	27797
801.214	27713
801.356	27603
801.499	27348
801.641	27405
801.783	27355
801.926	27477
802.068	27249
802.211	27222
802.353	27241
802.496	27013
802.638	26914
802.78	26838
802.923	26826
803.065	26960
803.208	26857
803.35	26914
803.492	27169
803.635	27180
803.777	26979
803.919	27127
804.061	27321
804.204	27207
804.346	27112
804.488	26948
804.63	27108
804.773	27001
804.915	27127
805.057	27188
805.199	27173
805.341	27138
805.483	27245
805.626	27245
805.768	27085
805.91	27226
806.052	27237
806.194	27131
806.336	27466
806.478	27264
806.62	27192
806.762	27370
806.904	27469
807.046	27770
807.188	27759
807.33	27523
807.472	27751
807.614	27652
807.756	27690
807.898	27648
808.04	27641
808.182	27424
808.324	27557
808.465	27618
808.607	27800
808.749	27766
808.891	27819
809.033	27983
809.174	27907
809.316	27800
809.458	27941
809.6	27903
809.741	28021
809.883	27888
810.025	28090
810.166	28234
810.308	28219
810.45	28204
810.591	28059
810.733	27846
810.875	27808
811.016	27728
811.158	27751
811.299	27968
811.441	27972
811.582	27922
811.724	27797
811.865	27789
812.007	27720
812.148	27819
812.29	27876
812.431	27953
812.573	28074
812.714	28196
812.855	28333
812.997	28462
813.138	28679
813.279	28500
813.421	28398
813.562	28322
813.703	28306
813.845	28139
813.986	27808
814.127	27766
814.268	27523
814.41	27462
814.551	27583
814.692	27644
814.833	27526
814.974	27583
815.115	27530
815.256	27370
815.397	27530
815.539	27454
815.68	27340
815.821	27416
815.962	27180
816.103	27165
816.244	27199
816.385	27211
816.526	27093
816.666	26952
816.807	26834
816.948	26937
817.089	26925
817.23	26990
817.371	26651
817.512	26975
817.653	26819
817.793	26845
817.934	26785
818.075	26834
818.216	26910
818.356	26792
818.497	26598
818.638	26644
818.778	26625
818.919	26746
819.06	26659
819.2	26739
819.341	26796
819.481	26872
819.622	26982
819.762	27055
819.903	27138
820.043	27043
820.184	26994
820.324	27013
820.465	27028
820.605	26944
820.746	26925
820.886	26750
821.026	26895
821.167	26876
821.307	26887
821.447	26796
821.588	26712
821.728	26621
821.868	26541
822.008	26191
822.149	26320
822.289	26244
822.429	26035
822.569	26035
822.709	25944
822.849	25860
822.99	25818
823.13	25849
823.27	25704
823.41	25620
823.55	25434
823.69	25594
823.83	25514
823.97	25635
824.11	25510
824.25	25308
824.389	25472
824.529	25575
824.669	25533
824.809	25521
824.949	25544
825.089	25479
825.228	25407
825.368	25316
825.508	25274
825.648	25320
825.787	25377
825.927	25438
826.067	25312
826.206	25301
826.346	25362
826.485	25403
826.625	25335
826.765	25369
826.904	25373
827.044	25168
827.183	25145
827.323	25042
827.462	25148
827.601	25118
827.741	25012
827.88	24989
828.02	24859
828.159	25156
828.298	24992
828.437	25042
828.577	25004
828.716	25175
828.855	24943
828.994	24825
829.134	24722
829.273	24829
829.412	24840
829.551	24757
829.69	24844
829.829	24810
829.968	24772
830.107	24802
830.246	24798
830.385	24760
830.524	24620
830.663	24536
830.802	24441
830.941	24407
831.08	24258
831.219	24399
831.357	24399
831.496	24566
831.635	24391
831.774	24346
831.913	24258
832.051	24258
832.19	24140
832.329	24224
832.467	24072
832.606	23863
832.744	23996
832.883	24022
833.022	23851
833.16	23946
833.299	23992
833.437	24144
833.576	24038
833.714	24125
833.852	24216
833.991	24034
834.129	24079
834.267	24125
834.406	24110
834.544	24220
834.682	24129
834.821	24007
834.959	24167
835.097	24079
835.235	24190
835.373	24083
835.511	23980
835.65	23908
835.788	23942
835.926	23748
836.064	23718
836.202	23707
836.34	23832
836.478	23935
836.615	24003
836.753	23863
836.891	24076
837.029	23942
837.167	23851
837.305	23870
837.443	23684
837.58	23786
837.718	23878
837.856	23859
837.993	23813
838.131	23813
838.269	23729
838.406	23748
838.544	23505
838.681	23334
838.819	23341
838.956	23307
839.094	23151
839.231	23223
839.369	23337
839.506	23649
839.643	23493
839.781	23299
839.918	23159
840.055	23231
840.193	23136
840.33	23064
840.467	23102
840.604	23231
840.742	23284
840.879	22991
841.016	23071
841.153	23025
841.29	23261
841.427	23086
841.564	23178
841.701	23159
841.838	23060
841.975	23056
842.112	23083
842.249	22965
842.385	22771
842.522	23189
842.659	23033
842.796	22797
842.933	22915
843.069	22873
843.206	22828
843.343	22934
843.479	22892
843.616	22892
843.752	22573
843.889	22736
844.025	22683
844.162	22596
844.298	22763
844.435	22668
844.571	22691
844.708	22675
844.844	22759
844.98	22782
845.117	22752
845.253	22485
845.389	22542
845.525	22451
845.661	22500
845.798	22405
845.934	22474
846.07	22341
846.206	22371
846.342	22459
846.478	22352
846.614	22166
846.75	22112
846.886	22116
847.022	22200
847.158	22185
847.294	22086
847.429	22082
847.565	22143
847.701	22280
847.837	21835
847.972	21827
848.108	21907
848.244	21869
848.379	21724
848.515	21732
848.65	21690
848.786	21660
848.921	21785
849.057	21892
849.192	21739
849.328	21804
849.463	21580
849.598	21701
849.734	21679
849.869	21507
850.004	21515
850.14	21496
850.275	21397
850.41	21424
850.545	21336
850.68	21420
850.815	21519
850.95	21405
851.085	21542
851.22	21469
851.355	21496
851.49	21504
851.625	21450
851.76	21420
851.895	21389
852.03	21222
852.165	21416
852.299	21504
852.434	21500
852.569	21534
852.703	21591
852.838	21481
852.973	21694
853.107	21614
853.242	21458
853.376	21264
853.511	21104
853.645	21222
853.78	21408
853.914	21264
854.048	21161
854.183	21207
854.317	21408
854.451	21454
854.585	21180
854.72	21264
854.854	21428
854.988	21138
855.122	21230
855.256	21256
855.39	21249
855.524	21317
855.658	21264
855.792	21302
855.926	21207
856.06	21393
856.194	21401
856.327	21302
856.461	21302
856.595	21249
856.729	21287
856.862	21469
856.996	21325
857.13	21355
857.263	21291
857.397	21302
857.53	21173
857.664	21332
857.797	21424
857.931	21329
858.064	21291
858.197	21367
858.331	21317
858.464	21188
858.597	21131
858.731	21291
858.864	21275
858.997	21192
859.13	21279
859.263	21226
859.396	21431
859.529	21302
859.662	21287
859.795	21241
859.928	21374
860.061	21397
860.194	21408
860.327	21355
860.46	21226
860.592	21534
860.725	21443
860.858	21443
860.99	21336
861.123	21237
861.256	21214
861.388	21272
861.521	21968
861.653	21161
861.786	21116
861.918	21005
862.05	21077
862.183	21222
862.315	21188
862.447	21313
862.58	21211
862.712	21066
862.844	21005
862.976	21066
863.108	21017
863.24	21557
863.372	20979
863.504	21020
863.636	21001
863.768	20944
863.9	21009
864.032	20944
864.164	21074
864.296	20998
864.428	21184
864.559	21074
864.691	21142
864.823	20933
864.954	21047
865.086	20937
865.217	20895
865.349	20883
865.48	20804
865.612	20849
865.743	21066
865.875	20792
866.006	20887
866.137	20971
866.269	20845
866.4	20910
866.531	20754
866.662	20826
866.793	20910
866.924	20948
867.055	20933
867.186	20872
867.317	20853
867.448	20804
867.579	20800
867.71	20686
867.841	20792
867.972	20842
868.103	20807
868.233	20746
868.364	20845
868.495	20880
868.625	21081
868.756	21207
868.886	20819
869.017	21001
869.147	21176
869.278	21176
869.408	21131
869.539	21032
869.669	21150
869.799	21237
869.929	21077
870.06	21176
870.19	21252
870.32	21268
870.45	21336
870.58	21416
870.71	21523
870.84	21450
870.97	21450
871.1	21355
871.23	21633
871.36	21622
871.489	21553
871.619	21629
871.749	21603
871.879	21759
872.008	21781
872.138	21736
872.267	21591
872.397	21526
872.526	21439
872.656	21587
872.785	21431
872.915	21660
873.044	21720
873.173	21591
873.303	21663
873.432	21717
873.561	21778
873.69	21793
873.819	21679
873.948	21804
874.077	21698
874.206	21603
874.335	21652
874.464	21736
874.593	21983
874.722	21857
874.851	21937
874.979	21991
875.108	21899
875.237	21907
875.365	21804
875.494	21778
875.623	21880
875.751	21823
875.88	21949
876.008	22025
876.136	22002
876.265	22257
876.393	22489
876.521	22371
876.65	22402
876.778	22268
876.906	22185
877.034	22333
877.162	22287
877.29	22120
877.418	22295
877.546	22173
877.674	22306
877.802	22344
877.93	22215
878.058	22207
878.185	22105
878.313	22166
878.441	22154
878.568	21979
878.696	22276
878.824	22322
878.951	22329
879.079	22394
879.206	22538
879.333	22333
879.461	22318
879.588	22280
879.715	22413
879.842	22455
879.97	22257
880.097	22059
880.224	22021
880.351	22044
880.478	22063
880.605	22051
880.732	22120
880.859	22356
880.986	22021
881.112	22147
881.239	21854
881.366	21838
881.493	21732
881.619	21759
881.746	21709
881.872	21667
881.999	21675
882.125	21538
882.252	21591
882.378	21564
882.505	21686
882.631	21424
882.757	21348
882.883	21306
883.01	21363
883.136	21294
883.262	21245
883.388	21214
883.514	21344
883.64	21447
883.766	21325
883.892	21165
884.018	21043
884.143	21382
884.269	21367
884.395	21157
884.52	20902
884.646	20963
884.772	20899
884.897	20743
885.023	21096
885.148	21055
885.274	21112
885.399	21119
885.524	20941
885.65	21005
885.775	21039
885.9	20830
886.025	21142
886.15	21184
886.275	20956
886.4	20891
886.525	20967
886.65	20883
886.775	20944
886.9	21009
887.025	21119
887.149	20864
887.274	20880
887.399	20781
887.523	20845
887.648	20686
887.773	20746
887.897	20880
888.021	20811
888.146	20731
888.27	20724
888.395	20796
888.519	20899
888.643	20800
888.767	20899
888.891	20655
889.015	20552
889.139	20575
889.263	20541
889.387	20621
889.511	20804
889.635	20693
889.759	20564
889.883	20533
890.006	20564
890.13	20602
890.254	20473
890.377	20552
890.501	20256
890.624	20355
890.748	20301
890.871	20248
890.995	19989
891.118	20111
891.241	20199
891.364	20214
891.488	20138
891.611	20195
891.734	20145
891.857	20157
891.98	20119
892.103	20180
892.226	20149
892.349	20084
892.471	20012
892.594	20111
892.717	20134
892.839	20046
892.962	20065
893.085	20054
893.207	19936
893.33	19917
893.452	19982
893.575	20084
893.697	19894
893.819	20145
893.941	20111
894.064	20168
894.186	19936
894.308	19784
894.43	20157
894.552	20180
894.674	20191
894.796	19947
894.918	20020
895.04	19928
895.161	20062
895.283	20088
895.405	20081
895.526	20065
895.648	20016
895.769	20039
895.891	19959
896.012	20020
896.134	20069
896.255	20069
896.376	19944
896.498	19989
896.619	20016
896.74	20054
896.861	20115
896.982	20374
897.103	20362
897.224	20400
897.345	20294
897.466	20214
897.587	20317
897.708	20374
897.828	20442
897.949	20191
898.07	20069
898.19	20153
898.311	20180
898.431	20111
898.552	20206
898.672	20263
898.792	20282
898.913	20229
899.033	20229
899.153	20153
899.273	19963
899.393	19898
899.513	19978
899.633	20081
899.753	19944
899.873	19936
899.993	19909
900.113	19978
900.232	19982
900.352	19879
900.472	19822
900.591	19723
900.711	19837
900.83	19776
900.95	19830
901.069	19921
901.189	19658
901.308	19578
901.427	19381
901.546	19377
901.665	19369
901.784	19343
901.904	19247
902.023	19190
902.141	18947
902.26	19000
902.379	19042
902.498	18871
902.617	18935
902.735	18901
902.854	18821
902.973	18776
903.091	18585
903.21	18559
903.328	18589
903.446	18486
903.565	18361
903.683	18407
903.801	18273
903.919	18243
904.038	18327
904.156	18167
904.274	18300
904.392	18026
904.51	18007
904.627	18190
904.745	18060
904.863	18247
904.981	17969
905.098	17821
905.216	17805
905.334	17824
905.451	17847
905.569	17783
905.686	17779
905.803	17783
905.921	17585
906.038	17627
906.155	17653
906.272	17364
906.389	17581
906.506	17436
906.623	17414
906.74	17330
906.857	17223
906.974	17208
907.091	17307
907.208	17311
907.324	17425
907.441	17197
907.557	17018
907.674	17090
907.79	16961
907.907	17022
908.023	17124
908.139	17022
908.256	17014
908.372	16965
908.488	16930
908.604	16744
908.72	16653
908.836	16835
908.952	16691
909.068	16755
909.184	16862
909.3	16763
909.415	16805
909.531	16691
909.647	16565
909.762	16577
909.878	16394
909.993	16489
910.108	16424
910.224	16436
910.339	16375
910.454	16322
910.57	16261
910.685	16287
910.8	16603
910.915	16447
911.03	16223
911.145	16230
911.259	16109
911.374	16055
911.489	15945
911.604	16017
911.718	15819
911.833	15785
911.947	15785
912.062	15507
912.176	15724
912.291	15629
912.405	15732
912.519	15987
912.633	15979
912.748	15857
912.862	15781
912.976	15603
913.09	15576
913.204	15572
913.318	15652
913.431	15648
913.545	15732
913.659	15793
913.772	15637
913.886	15408
914	15401
914.113	15561
914.226	15545
914.34	15587
914.453	15435
914.566	15507
914.68	15389
914.793	15256
914.906	15123
915.019	15097
915.132	14982
915.245	15009
915.358	15047
915.47	15001
915.583	15074
915.696	15089
915.809	15074
915.921	15245
916.034	14998
916.146	14815
916.259	14990
916.371	14990
916.483	14910
916.595	14899
916.708	14842
916.82	14925
916.932	14777
917.044	14883
917.156	14765
917.268	14758
917.38	14788
917.491	14804
917.603	14712
917.715	14739
917.826	14895
917.938	14651
918.049	14511
918.161	14686
918.272	14686
918.384	14842
918.495	14632
918.606	14507
918.717	14377
918.828	14450
918.939	14518
919.05	14412
919.161	14324
919.272	14138
919.383	14286
919.494	14503
919.604	14629
919.715	14503
919.826	14320
919.936	14404
920.047	14457
920.157	14351
920.267	14610
920.378	14522
920.488	14358
920.598	14613
920.708	14659
920.818	14587
920.928	14556
921.038	14640
921.148	14670
921.258	14305
921.368	14313
921.477	14237
921.587	14130
921.697	13921
921.806	14142
921.916	14031
922.025	13826
922.134	13822
922.244	13765
922.353	13795
922.462	13594
922.571	13597
922.68	13419
922.789	13449
922.898	13502
923.007	13419
923.116	13438
923.224	13362
923.333	13346
923.442	13415
923.55	13202
923.659	13324
923.767	13346
923.876	13206
923.984	13308
924.092	13141
924.201	13118
924.309	13232
924.417	13190
924.525	13080
924.633	13046
924.741	13871
924.849	12966
924.956	13000
925.064	12924
925.172	12817
925.279	12806
925.387	12806
925.494	12916
925.602	13019
925.709	12901
925.816	12787
925.924	12776
926.031	12856
926.138	12837
926.245	12913
926.352	12692
926.459	12844
926.566	12890
926.673	12658
926.779	12665
926.886	12650
926.993	12513
927.099	12483
927.206	12475
927.312	12365
927.419	12502
927.525	12479
927.631	12418
927.737	12304
927.843	12277
927.95	12155
928.056	12213
928.162	12277
928.267	12361
928.373	12989
928.479	12369
928.585	12140
928.69	12251
928.796	12171
928.901	12129
929.007	11927
929.112	12117
929.218	12030
929.323	12034
929.428	11977
929.533	12064
929.638	11999
929.743	11939
929.848	11988
929.953	11954
930.058	11824
930.163	11592
930.267	11688
930.372	11817
930.477	11623
930.581	11809
930.685	11726
930.79	11577
930.894	11581
930.998	11497
931.103	11695
931.207	11299
931.311	11318
931.415	11143
931.519	10900
931.623	10942
