Data from test_V78500241_287.txt Node
Date: Fri Mar 25 15:11:51 CST 2022
User: usil
Spectrometer: V785-0024
Trigger mode: 0
Integration Time (sec): 4.000000E-1
Scans to average: 1
Nonlinearity correction enabled: false
Boxcar width: 0
Storing dark spectrum: false
XAxis mode: Wavelengths
Number of Pixels in Spectrum: 1024
>>>>>Begin Spectral Data<<<<<
801.071	28051
801.214	27831
801.356	27564
801.499	27591
801.641	27329
801.783	27458
801.926	27530
802.068	27439
802.211	27386
802.353	27218
802.496	27184
802.638	27089
802.78	27096
802.923	26902
803.065	26960
803.208	26952
803.35	27070
803.492	27233
803.635	27192
803.777	27032
803.919	27096
804.061	27500
804.204	27146
804.346	27184
804.488	27135
804.63	27112
804.773	27066
804.915	27131
805.057	27195
805.199	27176
805.341	27287
805.483	27264
805.626	27207
805.768	27180
805.91	27279
806.052	27321
806.194	27142
806.336	27397
806.478	27268
806.62	27214
806.762	27443
806.904	27427
807.046	27751
807.188	27534
807.33	27633
807.472	27675
807.614	27663
807.756	27644
807.898	27663
808.04	27469
808.182	27374
808.324	27363
808.465	27473
808.607	27530
808.749	27743
808.891	27949
809.033	27926
809.174	27934
809.316	27838
809.458	27892
809.6	27922
809.741	27998
809.883	28029
810.025	28006
810.166	28112
810.308	28090
810.45	28078
810.591	28082
810.733	27895
810.875	27823
811.016	27781
811.158	27705
811.299	27876
811.441	27907
811.582	28055
811.724	27739
811.865	27587
812.007	27812
812.148	27835
812.29	27835
812.431	27953
812.573	28105
812.714	28188
812.855	28367
812.997	28466
813.138	28493
813.279	28557
813.421	28379
813.562	28318
813.703	28143
813.845	27979
813.986	27816
814.127	27469
814.268	27568
814.41	27500
814.551	27485
814.692	27648
814.833	27363
814.974	27344
815.115	27310
815.256	27306
815.397	27268
815.539	27226
815.68	27173
815.821	27169
815.962	27302
816.103	27184
816.244	27024
816.385	27055
816.526	26948
816.666	26872
816.807	26590
816.948	26785
817.089	26667
817.23	26678
817.371	26693
817.512	26781
817.653	26640
817.793	26526
817.934	26583
818.075	26689
818.216	26746
818.356	26537
818.497	26507
818.638	26389
818.778	26434
818.919	26446
819.06	26434
819.2	26377
819.341	26606
819.481	26670
819.622	26743
819.762	26845
819.903	26838
820.043	26758
820.184	26800
820.324	26762
820.465	26804
820.605	26590
820.746	26735
820.886	26625
821.026	26663
821.167	26621
821.307	26868
821.447	26701
821.588	26442
821.728	26393
821.868	26126
822.008	26024
822.149	26043
822.289	26142
822.429	25700
822.569	25757
822.709	25674
822.849	25590
822.99	25548
823.13	25632
823.27	25491
823.41	25400
823.55	25346
823.69	25301
823.83	25354
823.97	25331
824.11	25236
824.25	25168
824.389	25343
824.529	25365
824.669	25221
824.809	25247
824.949	25198
825.089	25324
825.228	25126
825.368	25114
825.508	25053
825.648	25012
825.787	25015
825.927	25266
826.067	25126
826.206	25012
826.346	25061
826.485	24935
826.625	24977
826.765	25148
826.904	25118
827.044	24935
827.183	24768
827.323	24696
827.462	24779
827.601	24582
827.741	24677
827.88	24795
828.02	24654
828.159	24715
828.298	24661
828.437	24700
828.577	24658
828.716	24764
828.855	24555
828.994	24490
829.134	24384
829.273	24555
829.412	24388
829.551	24433
829.69	24471
829.829	24327
829.968	24669
830.107	24559
830.246	24300
830.385	24334
830.524	24235
830.663	24308
830.802	24072
830.941	23965
831.08	23939
831.219	24049
831.357	24076
831.496	24213
831.635	23988
831.774	24038
831.913	23805
832.051	23710
832.19	23817
832.329	23726
832.467	23779
832.606	23627
832.744	23573
832.883	23737
833.022	23570
833.16	23589
833.299	23821
833.437	23680
833.576	23699
833.714	23726
833.852	23775
833.991	23790
834.129	23847
834.267	23760
834.406	23642
834.544	23813
834.682	23790
834.821	23646
834.959	23798
835.097	23661
835.235	23741
835.373	23665
835.511	23596
835.65	23505
835.788	23608
835.926	23452
836.064	23337
836.202	23303
836.34	23554
836.478	23531
836.615	23562
836.753	23512
836.891	23695
837.029	23493
837.167	23455
837.305	23440
837.443	23433
837.58	23330
837.718	23535
837.856	23414
837.993	23376
838.131	23455
838.269	23315
838.406	23296
838.544	23208
838.681	23090
838.819	22965
838.956	22839
839.094	22892
839.231	22896
839.369	22946
839.506	23299
839.643	23105
839.781	22934
839.918	22858
840.055	22854
840.193	22748
840.33	22828
840.467	22801
840.604	22713
840.742	23044
840.879	22656
841.016	22687
841.153	22702
841.29	22930
841.427	22717
841.564	22835
841.701	22733
841.838	22752
841.975	22736
842.112	22626
842.249	22550
842.385	22466
842.522	22561
842.659	22531
842.796	22390
842.933	22531
843.069	22447
843.206	22352
843.343	22588
843.479	22470
843.616	22508
843.752	22143
843.889	22249
844.025	22287
844.162	22398
844.298	22310
844.435	22158
844.571	22177
844.708	22352
844.844	22405
844.98	22440
845.117	22382
845.253	22211
845.389	22116
845.525	22093
845.661	22109
845.798	21991
845.934	22013
846.07	21915
846.206	21998
846.342	22048
846.478	22051
846.614	21785
846.75	21705
846.886	21770
847.022	21793
847.158	21679
847.294	21774
847.429	21724
847.565	21804
847.701	21850
847.837	21644
847.972	21344
848.108	21545
848.244	21466
848.379	21340
848.515	21294
848.65	21287
848.786	21340
848.921	21279
849.057	21374
849.192	21526
849.328	21272
849.463	21310
849.598	21230
849.734	21233
849.869	21047
850.004	21039
850.14	21020
850.275	21017
850.41	20990
850.545	20975
850.68	20933
850.815	20895
850.95	20971
851.085	21161
851.22	21218
851.355	21081
851.49	20914
851.625	20948
851.76	21066
851.895	20982
852.03	20963
852.165	20941
852.299	21017
852.434	21085
852.569	20971
852.703	21138
852.838	21135
852.973	21131
853.107	21169
853.242	20895
853.376	20792
853.511	20830
853.645	20762
853.78	20986
853.914	20868
854.048	20819
854.183	20895
854.317	20941
854.451	21066
854.585	20773
854.72	20868
854.854	20941
854.988	20788
855.122	20861
855.256	20682
855.39	20861
855.524	20925
855.658	20811
855.792	20857
855.926	20868
856.06	20925
856.194	20963
856.327	20777
856.461	20845
856.595	20765
856.729	20842
856.862	20910
856.996	20910
857.13	20902
857.263	21009
857.397	20921
857.53	20754
857.664	20872
857.797	20921
857.931	21039
858.064	20967
858.197	20937
858.331	20887
858.464	20929
858.597	20739
858.731	20739
858.864	20857
858.997	20804
859.13	20899
859.263	20925
859.396	21017
859.529	20986
859.662	20815
859.795	20781
859.928	20891
860.061	21039
860.194	21077
860.327	20883
860.46	20864
860.592	20933
860.725	20994
860.858	20899
860.99	20944
861.123	20750
861.256	20823
861.388	20967
861.521	21504
861.653	20674
861.786	20651
861.918	20876
862.05	20720
862.183	20731
862.315	20883
862.447	20838
862.58	20785
862.712	20625
862.844	20575
862.976	20636
863.108	20765
863.24	20952
863.372	20625
863.504	20545
863.636	20659
863.768	20609
863.9	20651
864.032	20457
864.164	20511
864.296	20549
864.428	20492
864.559	20674
864.691	20648
864.823	20629
864.954	20393
865.086	20632
865.217	20533
865.349	20415
865.48	20473
865.612	20393
865.743	20625
865.875	20476
866.006	20408
866.137	20518
866.269	20404
866.4	20442
866.531	20377
866.662	20400
866.793	20541
866.924	20377
867.055	20393
867.186	20374
867.317	20332
867.448	20282
867.579	20324
867.71	20339
867.841	20317
867.972	20511
868.103	20412
868.233	20476
868.364	20533
868.495	20564
868.625	20746
868.756	20845
868.886	20594
869.017	20674
869.147	20823
869.278	20731
869.408	20602
869.539	20602
869.669	20686
869.799	20670
869.929	20697
870.06	20659
870.19	21005
870.32	20963
870.45	20948
870.58	20998
870.71	21154
870.84	21180
870.97	21066
871.1	21055
871.23	21161
871.36	21230
871.489	21119
871.619	21287
871.749	21241
871.879	21245
872.008	21443
872.138	21340
872.267	21165
872.397	21161
872.526	21066
872.656	21062
872.785	21104
872.915	21348
873.044	21302
873.173	21336
873.303	21233
873.432	21298
873.561	21279
873.69	21173
873.819	21329
873.948	21287
874.077	21256
874.206	21142
874.335	21401
874.464	21374
874.593	21469
874.722	21329
874.851	21549
874.979	21603
875.108	21469
875.237	21496
875.365	21424
875.494	21466
875.623	21458
875.751	21481
875.88	21481
876.008	21694
876.136	21610
876.265	21937
876.393	21926
876.521	21926
876.65	22055
876.778	21926
876.906	21759
877.034	21656
877.162	21838
877.29	21793
877.418	21975
877.546	21751
877.674	21865
877.802	21770
877.93	21808
878.058	21800
878.185	21762
878.313	21808
878.441	21808
878.568	21755
878.696	21671
878.824	21854
878.951	21960
879.079	22082
879.206	22101
879.333	22082
879.461	21888
879.588	21945
879.715	22059
879.842	22139
879.97	21846
880.097	21644
880.224	21671
880.351	21603
880.478	21720
880.605	21606
880.732	21648
880.859	21850
880.986	21671
881.112	21694
881.239	21545
881.366	21496
881.493	21367
881.619	21233
881.746	21294
881.872	21131
881.999	21222
882.125	21157
882.252	21176
882.378	21245
882.505	21325
882.631	21112
882.757	20933
882.883	21112
883.01	21020
883.136	20914
883.262	20807
883.388	20819
883.514	21020
883.64	20994
883.766	20948
883.892	20724
884.018	20773
884.143	20910
884.269	20952
884.395	20724
884.52	20613
884.646	20571
884.772	20514
884.897	20454
885.023	20625
885.148	20659
885.274	20804
885.399	20659
885.524	20777
885.65	20579
885.775	20644
885.9	20659
886.025	20762
886.15	20564
886.275	20507
886.4	20545
886.525	20670
886.65	20579
886.775	20560
886.9	20727
887.025	20830
887.149	20522
887.274	20446
887.399	20446
887.523	20370
887.648	20233
887.773	20168
887.897	20484
888.021	20415
888.146	20366
888.27	20423
888.395	20583
888.519	20404
888.643	20408
888.767	20431
888.891	20267
889.015	20267
889.139	20081
889.263	20119
889.387	20332
889.511	20275
889.635	20248
889.759	20183
889.883	20065
890.006	20176
890.13	20221
890.254	19970
890.377	20164
890.501	19875
890.624	20001
890.748	19925
890.871	19803
890.995	19719
891.118	19677
891.241	19715
891.364	19818
891.488	19841
891.611	19734
891.734	19772
891.857	19826
891.98	19750
892.103	19750
892.226	19696
892.349	19639
892.471	19533
892.594	19670
892.717	19689
892.839	19677
892.962	19635
893.085	19772
893.207	19651
893.33	19563
893.452	19662
893.575	19765
893.697	19639
893.819	19887
893.941	19811
894.064	19818
894.186	19559
894.308	19537
894.43	19750
894.552	19849
894.674	19693
894.796	19635
894.918	19605
895.04	19613
895.161	19723
895.283	19727
895.405	19521
895.526	19540
895.648	19765
895.769	19594
895.891	19715
896.012	19788
896.134	19761
896.255	19784
896.376	19662
896.498	19696
896.619	19715
896.74	19700
896.861	19753
896.982	19978
897.103	20115
897.224	19993
897.345	19890
897.466	19700
897.587	19944
897.708	20062
897.828	20031
897.949	19761
898.07	19734
898.19	19849
898.311	19807
898.431	19811
898.552	19898
898.672	20031
898.792	19936
898.913	19913
899.033	19712
899.153	19624
899.273	19601
899.393	19563
899.513	19605
899.633	19677
899.753	19772
899.873	19601
899.993	19658
900.113	19518
900.232	19548
900.352	19582
900.472	19419
900.591	19411
900.711	19464
900.83	19343
900.95	19540
901.069	19430
901.189	19297
901.308	19175
901.427	18993
901.546	18993
901.665	18985
901.784	19050
901.904	18886
902.023	18852
902.141	18665
902.26	18639
902.379	18589
902.498	18464
902.617	18445
902.735	18467
902.854	18399
902.973	18445
903.091	18186
903.21	18159
903.328	18155
903.446	18102
903.565	18038
903.683	17988
903.801	17779
903.919	17931
904.038	17901
904.156	17904
904.274	17866
904.392	17760
904.51	17676
904.627	17767
904.745	17790
904.863	17805
904.981	17539
905.098	17429
905.216	17398
905.334	17429
905.451	17501
905.569	17410
905.686	17474
905.803	17341
905.921	17239
906.038	17395
906.155	17174
906.272	17071
906.389	17151
906.506	16934
906.623	16987
906.74	16968
906.857	16831
906.974	16816
907.091	16968
907.208	17060
907.324	17014
907.441	16854
907.557	16816
907.674	16672
907.79	16592
907.907	16664
908.023	16725
908.139	16626
908.256	16599
908.372	16459
908.488	16535
908.604	16455
908.72	16344
908.836	16436
908.952	16341
909.068	16584
909.184	16485
909.3	16379
909.415	16447
909.531	16466
909.647	16135
909.762	16071
909.878	16090
909.993	16067
910.108	16112
910.224	15968
910.339	16006
910.454	15926
910.57	15918
910.685	15880
910.8	16071
910.915	16135
911.03	15937
911.145	15743
911.259	15800
911.374	15679
911.489	15618
911.604	15614
911.718	15454
911.833	15576
911.947	15272
912.062	15268
912.176	15435
912.291	15496
912.405	15420
912.519	15557
912.633	15568
912.748	15435
912.862	15420
912.976	15298
913.09	15039
913.204	15199
913.318	15214
913.431	15268
913.545	15317
913.659	15256
913.772	15199
913.886	15108
914	15119
914.113	15169
914.226	15142
914.34	15146
914.453	14929
914.566	15047
914.68	14906
914.793	14998
914.906	14773
915.019	14629
915.132	14731
915.245	14674
915.358	14800
915.47	14750
915.583	14708
915.696	14697
915.809	14792
915.921	14796
916.034	14560
916.146	14587
916.259	14465
916.371	14621
916.483	14731
916.595	14545
916.708	14518
916.82	14499
916.932	14454
917.044	14530
917.156	14427
917.268	14370
917.38	14457
917.491	14252
917.603	14385
917.715	14370
917.826	14446
917.938	14301
918.049	14164
918.161	14214
918.272	14381
918.384	14396
918.495	14221
918.606	14084
918.717	14062
918.828	14172
918.939	14145
919.05	14081
919.161	14027
919.272	13944
919.383	13951
919.494	14111
919.604	14271
919.715	14115
919.826	14027
919.936	14043
920.047	14149
920.157	14054
920.267	14278
920.378	14123
920.488	14107
920.598	14248
920.708	14438
920.818	14092
920.928	14229
921.038	14404
921.148	14233
921.258	14081
921.368	13993
921.477	13826
921.587	13833
921.697	13727
921.806	13841
921.916	13685
922.025	13529
922.134	13373
922.244	13403
922.353	13578
922.462	13320
922.571	13304
922.68	13110
922.789	13122
922.898	13160
923.007	13061
923.116	13031
923.224	13053
923.333	13034
923.442	12951
923.55	12920
923.659	12901
923.767	13015
923.876	12856
923.984	12973
924.092	12844
924.201	12833
924.309	12829
924.417	12840
924.525	12764
924.633	12776
924.741	13544
924.849	12544
924.956	12658
925.064	12601
925.172	12479
925.279	12570
925.387	12654
925.494	12498
925.602	12738
925.709	12604
925.816	12506
925.924	12498
926.031	12597
926.138	12540
926.245	12547
926.352	12429
926.459	12566
926.566	12635
926.673	12414
926.779	12399
926.886	12365
926.993	12239
927.099	12175
927.206	12064
927.312	12091
927.419	12163
927.525	12152
927.631	12247
927.737	11988
927.843	11977
927.95	11874
928.056	11942
928.162	12015
928.267	12064
928.373	12555
928.479	12019
928.585	11912
928.69	11908
928.796	11961
928.901	11855
929.007	11703
929.112	11824
929.218	11733
929.323	11760
929.428	11783
929.533	11882
929.638	11649
929.743	11695
929.848	11722
929.953	11619
930.058	11630
930.163	11398
930.267	11433
930.372	11585
930.477	11277
930.581	11592
930.685	11410
930.79	11349
930.894	11364
930.998	11299
931.103	11376
931.207	11071
931.311	11029
931.415	10896
931.519	10710
931.623	10691
