Data from test_V78500241_2788.txt Node
Date: Fri Mar 25 15:29:16 CST 2022
User: usil
Spectrometer: V785-0024
Trigger mode: 0
Integration Time (sec): 4.000000E-1
Scans to average: 1
Nonlinearity correction enabled: false
Boxcar width: 0
Storing dark spectrum: false
XAxis mode: Wavelengths
Number of Pixels in Spectrum: 1024
>>>>>Begin Spectral Data<<<<<
801.071	27127
801.214	27093
801.356	26944
801.499	26819
801.641	26720
801.783	26693
801.926	26720
802.068	26590
802.211	26792
802.353	26556
802.496	26404
802.638	26400
802.78	26328
802.923	26206
803.065	26225
803.208	26214
803.35	26244
803.492	26431
803.635	26488
803.777	26465
803.919	26537
804.061	26800
804.204	26537
804.346	26233
804.488	26362
804.63	26594
804.773	26480
804.915	26446
805.057	26640
805.199	26549
805.341	26381
805.483	26571
805.626	26613
805.768	26412
805.91	26590
806.052	26579
806.194	26438
806.336	26716
806.478	26568
806.62	26518
806.762	26629
806.904	26804
807.046	27062
807.188	26887
807.33	27001
807.472	26834
807.614	26872
807.756	26880
807.898	26921
808.04	26678
808.182	26815
808.324	26800
808.465	26891
808.607	27093
808.749	27119
808.891	27359
809.033	27367
809.174	27226
809.316	27207
809.458	27058
809.6	27093
809.741	27275
809.883	27291
810.025	27488
810.166	27405
810.308	27344
810.45	27466
810.591	27401
810.733	27138
810.875	27138
811.016	27138
811.158	27138
811.299	27260
811.441	27439
811.582	27310
811.724	27241
811.865	27180
812.007	27020
812.148	27188
812.29	27199
812.431	27393
812.573	27447
812.714	27412
812.855	27595
812.997	27728
813.138	27850
813.279	27797
813.421	27675
813.562	27511
813.703	27363
813.845	27363
813.986	27032
814.127	26948
814.268	26765
814.41	26918
814.551	26815
814.692	26971
814.833	26746
814.974	26781
815.115	27005
815.256	26788
815.397	26632
815.539	26746
815.68	26632
815.821	26526
815.962	26556
816.103	26708
816.244	26480
816.385	26404
816.526	26419
816.666	26134
816.807	26088
816.948	26176
817.089	26225
817.23	26157
817.371	26073
817.512	26046
817.653	26115
817.793	25963
817.934	26043
818.075	26202
818.216	25993
818.356	25959
818.497	25875
818.638	25830
818.778	25772
818.919	25894
819.06	25932
819.2	25974
819.341	26046
819.481	26172
819.622	26187
819.762	26526
819.903	26385
820.043	26275
820.184	26111
820.324	26100
820.465	26225
820.605	26157
820.746	26084
820.886	25944
821.026	26195
821.167	26073
821.307	26183
821.447	26069
821.588	25993
821.728	25734
821.868	25643
822.008	25548
822.149	25590
822.289	25510
822.429	25240
822.569	25263
822.709	25194
822.849	25187
822.99	25118
823.13	24996
823.27	24935
823.41	24951
823.55	24779
823.69	24802
823.83	24958
823.97	24798
824.11	24589
824.25	24673
824.389	24559
824.529	24726
824.669	24608
824.809	24688
824.949	24787
825.089	24791
825.228	24661
825.368	24585
825.508	24467
825.648	24509
825.787	24414
825.927	24460
826.067	24612
826.206	24528
826.346	24642
826.485	24555
826.625	24597
826.765	24623
826.904	24578
827.044	24315
827.183	24365
827.323	24304
827.462	24327
827.601	24167
827.741	24285
827.88	24155
828.02	24102
828.159	24209
828.298	24194
828.437	24258
828.577	24125
828.716	24304
828.855	24197
828.994	24018
829.134	23874
829.273	23988
829.412	23821
829.551	23893
829.69	23878
829.829	24053
829.968	24022
830.107	23958
830.246	23847
830.385	23878
830.524	23961
830.663	23783
830.802	23672
830.941	23627
831.08	23543
831.219	23646
831.357	23623
831.496	23779
831.635	23562
831.774	23448
831.913	23425
832.051	23296
832.19	23307
832.329	23444
832.467	23212
832.606	23223
832.744	23212
832.883	23254
833.022	23185
833.16	23299
833.299	23155
833.437	23292
833.576	23200
833.714	23273
833.852	23364
833.991	23341
834.129	23410
834.267	23311
834.406	23330
834.544	23269
834.682	23356
834.821	23204
834.959	23551
835.097	23185
835.235	23337
835.373	23246
835.511	23212
835.65	23143
835.788	23155
835.926	23075
836.064	22938
836.202	23003
836.34	23048
836.478	23223
836.615	23121
836.753	23136
836.891	23117
837.029	23052
837.167	23022
837.305	23143
837.443	23064
837.58	22881
837.718	23037
837.856	22995
837.993	23014
838.131	23052
838.269	22919
838.406	22862
838.544	22767
838.681	22611
838.819	22565
838.956	22462
839.094	22462
839.231	22550
839.369	22687
839.506	22949
839.643	22847
839.781	22489
839.918	22398
840.055	22379
840.193	22500
840.33	22363
840.467	22451
840.604	22523
840.742	22565
840.879	22310
841.016	22348
841.153	22265
841.29	22512
841.427	22344
841.564	22447
841.701	22371
841.838	22242
841.975	22265
842.112	22356
842.249	22238
842.385	22204
842.522	22398
842.659	22120
842.796	22059
842.933	22074
843.069	22032
843.206	21972
843.343	22230
843.479	22188
843.616	22169
843.752	21930
843.889	21899
844.025	22044
844.162	21994
844.298	22025
844.435	21865
844.571	21892
844.708	21960
844.844	22162
844.98	22036
845.117	22029
845.253	21793
845.389	21739
845.525	21743
845.661	21724
845.798	21652
845.934	21648
846.07	21606
846.206	21751
846.342	21789
846.478	21728
846.614	21389
846.75	21363
846.886	21401
847.022	21393
847.158	21420
847.294	21386
847.429	21466
847.565	21420
847.701	21595
847.837	21154
847.972	21039
848.108	21260
848.244	21173
848.379	20960
848.515	21123
848.65	20994
848.786	20861
848.921	21032
849.057	21154
849.192	21135
849.328	21009
849.463	20929
849.598	21017
849.734	20891
849.869	20880
850.004	20663
850.14	20826
850.275	20895
850.41	20682
850.545	20629
850.68	20602
850.815	20845
850.95	20693
851.085	20952
851.22	20746
851.355	20727
851.49	20727
851.625	20712
851.76	20708
851.895	20659
852.03	20644
852.165	20727
852.299	20834
852.434	20800
852.569	20849
852.703	20693
852.838	20739
852.973	20834
853.107	20838
853.242	20731
853.376	20632
853.511	20396
853.645	20446
853.78	20655
853.914	20507
854.048	20484
854.183	20720
854.317	20552
854.451	20731
854.585	20575
854.72	20495
854.854	20758
854.988	20454
855.122	20488
855.256	20415
855.39	20499
855.524	20533
855.658	20625
855.792	20670
855.926	20511
856.06	20678
856.194	20651
856.327	20560
856.461	20473
856.595	20492
856.729	20606
856.862	20613
856.996	20488
857.13	20602
857.263	20560
857.397	20670
857.53	20518
857.664	20648
857.797	20571
857.931	20667
858.064	20625
858.197	20731
858.331	20518
858.464	20427
858.597	20431
858.731	20480
858.864	20526
858.997	20552
859.13	20408
859.263	20632
859.396	20640
859.529	20484
859.662	20575
859.795	20488
859.928	20552
860.061	20785
860.194	20724
860.327	20590
860.46	20583
860.592	20705
860.725	20621
860.858	20743
860.99	20629
861.123	20415
861.256	20404
861.388	20560
861.521	21188
861.653	20465
861.786	20400
861.918	20355
862.05	20438
862.183	20484
862.315	20564
862.447	20579
862.58	20438
862.712	20199
862.844	20286
862.976	20271
863.108	20324
863.24	20769
863.372	20271
863.504	20305
863.636	20199
863.768	20423
863.9	20313
864.032	20263
864.164	20180
864.296	20362
864.428	20328
864.559	20404
864.691	20473
864.823	20252
864.954	20275
865.086	20313
865.217	20183
865.349	20115
865.48	20187
865.612	20187
865.743	20275
865.875	20107
866.006	20103
866.137	20218
866.269	20168
866.4	20145
866.531	20161
866.662	20107
866.793	20119
866.924	20172
867.055	20142
867.186	20233
867.317	20119
867.448	20081
867.579	20096
867.71	19989
867.841	20081
867.972	20103
868.103	20180
868.233	20172
868.364	20145
868.495	20221
868.625	20377
868.756	20476
868.886	20309
869.017	20377
869.147	20434
869.278	20454
869.408	20438
869.539	20400
869.669	20457
869.799	20358
869.929	20442
870.06	20575
870.19	20667
870.32	20579
870.45	20674
870.58	20701
870.71	20811
870.84	20796
870.97	20781
871.1	20788
871.23	20899
871.36	20914
871.489	20834
871.619	20864
871.749	20853
871.879	20921
872.008	21024
872.138	20971
872.267	20971
872.397	20773
872.526	20792
872.656	20762
872.785	20811
872.915	21009
873.044	21142
873.173	21119
873.303	21077
873.432	21112
873.561	21108
873.69	21001
873.819	20986
873.948	21039
874.077	20895
874.206	21036
874.335	20952
874.464	21108
874.593	21173
874.722	21218
874.851	21264
874.979	21245
875.108	21268
875.237	21192
875.365	21093
875.494	21241
875.623	21351
875.751	21218
875.88	21340
876.008	21405
876.136	21511
876.265	21629
876.393	21850
876.521	21682
876.65	21747
876.778	21633
876.906	21713
877.034	21519
877.162	21660
877.29	21477
877.418	21599
877.546	21644
877.674	21564
877.802	21610
877.93	21507
878.058	21542
878.185	21603
878.313	21587
878.441	21603
878.568	21378
878.696	21504
878.824	21641
878.951	21759
879.079	21755
879.206	21903
879.333	21637
879.461	21587
879.588	21644
879.715	21793
879.842	21804
879.97	21690
880.097	21428
880.224	21329
880.351	21450
880.478	21374
880.605	21325
880.732	21302
880.859	21743
880.986	21492
881.112	21401
881.239	21222
881.366	21055
881.493	20982
881.619	20948
881.746	21024
881.872	20994
881.999	20891
882.125	20895
882.252	20975
882.378	20960
882.505	20990
882.631	20929
882.757	20777
882.883	20754
883.01	20773
883.136	20629
883.262	20552
883.388	20507
883.514	20712
883.64	20625
883.766	20583
883.892	20522
884.018	20469
884.143	20663
884.269	20758
884.395	20381
884.52	20408
884.646	20473
884.772	20343
884.897	20271
885.023	20332
885.148	20415
885.274	20438
885.399	20343
885.524	20473
885.65	20396
885.775	20328
885.9	20484
886.025	20400
886.15	20336
886.275	20294
886.4	20275
886.525	20381
886.65	20305
886.775	20214
886.9	20518
887.025	20556
887.149	20301
887.274	20115
887.399	20180
887.523	20172
887.648	20024
887.773	20100
887.897	20122
888.021	20202
888.146	20088
888.27	20122
888.395	20195
888.519	20225
888.643	20180
888.767	20263
888.891	20077
889.015	20012
889.139	19940
889.263	19868
889.387	20077
889.511	20046
889.635	20058
889.759	20024
889.883	19917
890.006	19944
890.13	19913
890.254	19837
890.377	19932
890.501	19658
890.624	19616
890.748	19753
890.871	19586
890.995	19597
891.118	19434
891.241	19510
891.364	19464
891.488	19635
891.611	19495
891.734	19525
891.857	19582
891.98	19571
892.103	19525
892.226	19559
892.349	19392
892.471	19480
892.594	19373
892.717	19472
892.839	19415
892.962	19419
893.085	19460
893.207	19453
893.33	19403
893.452	19381
893.575	19491
893.697	19339
893.819	19480
893.941	19715
894.064	19559
894.186	19438
894.308	19400
894.43	19578
894.552	19605
894.674	19548
894.796	19476
894.918	19400
895.04	19487
895.161	19487
895.283	19419
895.405	19335
895.526	19327
895.648	19407
895.769	19415
895.891	19464
896.012	19510
896.134	19350
896.255	19476
896.376	19354
896.498	19578
896.619	19601
896.74	19384
896.861	19491
896.982	19791
897.103	19887
897.224	19715
897.345	19616
897.466	19540
897.587	19670
897.708	19727
897.828	19677
897.949	19731
898.07	19537
898.19	19689
898.311	19826
898.431	19761
898.552	19715
898.672	19723
898.792	19765
898.913	19742
899.033	19597
899.153	19426
899.273	19400
899.393	19567
899.513	19373
899.633	19506
899.753	19506
899.873	19411
899.993	19468
900.113	19430
900.232	19506
900.352	19403
900.472	19228
900.591	19270
900.711	19282
900.83	19202
900.95	19304
901.069	19384
901.189	19160
901.308	18840
901.427	18806
901.546	18779
901.665	18852
901.784	18837
901.904	18703
902.023	18612
902.141	18486
902.26	18437
902.379	18418
902.498	18384
902.617	18338
902.735	18391
902.854	18357
902.973	18190
903.091	18163
903.21	17996
903.328	18003
903.446	17935
903.565	17920
903.683	17855
903.801	17870
903.919	17809
904.038	17813
904.156	17623
904.274	17630
904.392	17619
904.51	17581
904.627	17615
904.745	17554
904.863	17680
904.981	17387
905.098	17250
905.216	17299
905.334	17292
905.451	17239
905.569	17235
905.686	17296
905.803	17269
905.921	17109
906.038	17239
906.155	17083
906.272	17014
906.389	16995
906.506	16805
906.623	16820
906.74	16778
906.857	16675
906.974	16668
907.091	16820
907.208	16919
907.324	16824
907.441	16717
907.557	16535
907.674	16645
907.79	16519
907.907	16428
908.023	16550
908.139	16637
908.256	16508
908.372	16409
908.488	16409
908.604	16310
908.72	16314
908.836	16299
908.952	16112
909.068	16287
909.184	16341
909.3	16284
909.415	16333
909.531	16318
909.647	16078
909.762	15968
909.878	16029
909.993	15975
910.108	15983
910.224	15876
910.339	15854
910.454	15888
910.57	15854
910.685	15667
910.8	16006
910.915	15884
911.03	15835
911.145	15530
911.259	15644
911.374	15580
911.489	15477
911.604	15485
911.718	15370
911.833	15408
911.947	15199
912.062	15287
912.176	15370
912.291	15405
912.405	15367
912.519	15629
912.633	15610
912.748	15382
912.862	15287
912.976	15165
913.09	15009
913.204	15165
913.318	15123
913.431	15157
913.545	15317
913.659	15192
913.772	15036
913.886	14998
914	14941
914.113	15009
914.226	15058
914.34	15055
914.453	14823
914.566	15024
914.68	14838
914.793	14868
914.906	14712
915.019	14632
915.132	14625
915.245	14648
915.358	14621
915.47	14613
915.583	14560
915.696	14602
915.809	14659
915.921	14743
916.034	14564
916.146	14579
916.259	14473
916.371	14659
916.483	14499
916.595	14309
916.708	14393
916.82	14446
916.932	14415
917.044	14461
917.156	14351
917.268	14244
917.38	14191
917.491	14214
917.603	14305
917.715	14305
917.826	14332
917.938	14225
918.049	14084
918.161	14161
918.272	14404
918.384	14290
918.495	14176
918.606	14077
918.717	13879
918.828	13989
918.939	14008
919.05	13917
919.161	13978
919.272	13841
919.383	13906
919.494	14077
919.604	14298
919.715	14050
919.826	13902
919.936	13967
920.047	14069
920.157	13944
920.267	14237
920.378	14130
920.488	13879
920.598	14168
920.708	14240
920.818	14092
920.928	14138
921.038	14248
921.148	14142
921.258	13955
921.368	13849
921.477	13776
921.587	13723
921.697	13643
921.806	13738
921.916	13594
922.025	13472
922.134	13396
922.244	13415
922.353	13430
922.462	13335
922.571	13301
922.68	13145
922.789	12916
922.898	13126
923.007	12985
923.116	13145
923.224	13008
923.333	13034
923.442	12871
923.55	12901
923.659	12863
923.767	12958
923.876	12837
923.984	12916
924.092	12719
924.201	12806
924.309	12745
924.417	12859
924.525	12734
924.633	12768
924.741	13449
924.849	12521
924.956	12627
925.064	12471
925.172	12494
925.279	12467
925.387	12528
925.494	12536
925.602	12566
925.709	12589
925.816	12471
925.924	12467
926.031	12509
926.138	12483
926.245	12452
926.352	12281
926.459	12403
926.566	12540
926.673	12308
926.779	12194
926.886	12228
926.993	12175
927.099	12163
927.206	12022
927.312	12114
927.419	12095
927.525	12064
927.631	12076
927.737	11999
927.843	11942
927.95	11828
928.056	11904
928.162	11923
928.267	12007
928.373	12467
928.479	12003
928.585	11729
928.69	11851
928.796	11851
928.901	11805
929.007	11653
929.112	11722
929.218	11710
929.323	11718
929.428	11505
929.533	11809
929.638	11562
929.743	11611
929.848	11611
929.953	11551
930.058	11414
930.163	11334
930.267	11379
930.372	11547
930.477	11277
930.581	11524
930.685	11345
930.79	11208
930.894	11193
930.998	11269
931.103	11318
931.207	10991
931.311	10847
931.415	10816
931.519	10687
931.623	10577
