Data from test_V78500241_578.txt Node
Date: Fri Mar 25 15:13:52 CST 2022
User: usil
Spectrometer: V785-0024
Trigger mode: 0
Integration Time (sec): 4.000000E-1
Scans to average: 1
Nonlinearity correction enabled: false
Boxcar width: 0
Storing dark spectrum: false
XAxis mode: Wavelengths
Number of Pixels in Spectrum: 1024
>>>>>Begin Spectral Data<<<<<
801.071	27435
801.214	27477
801.356	27393
801.499	27192
801.641	27001
801.783	27013
801.926	27192
802.068	27146
802.211	26948
802.353	26857
802.496	26792
802.638	26712
802.78	26746
802.923	26655
803.065	26659
803.208	26697
803.35	26800
803.492	26781
803.635	26914
803.777	26720
803.919	26731
804.061	27100
804.204	26807
804.346	26804
804.488	26765
804.63	26830
804.773	26758
804.915	26967
805.057	27009
805.199	26845
805.341	27032
805.483	26998
805.626	27062
805.768	26849
805.91	26880
806.052	26933
806.194	26956
806.336	27112
806.478	27074
806.62	27020
806.762	27066
806.904	27275
807.046	27500
807.188	27370
807.33	27351
807.472	27504
807.614	27355
807.756	27348
807.898	27180
808.04	27233
808.182	27211
808.324	27241
808.465	27245
808.607	27386
808.749	27542
808.891	27778
809.033	27717
809.174	27709
809.316	27618
809.458	27679
809.6	27713
809.741	27854
809.883	27797
810.025	27838
810.166	27781
810.308	27846
810.45	27918
810.591	27888
810.733	27705
810.875	27614
811.016	27523
811.158	27538
811.299	27846
811.441	27823
811.582	27800
811.724	27599
811.865	27583
812.007	27587
812.148	27686
812.29	27656
812.431	27701
812.573	28036
812.714	27998
812.855	28173
812.997	28257
813.138	28295
813.279	28398
813.421	28287
813.562	28135
813.703	27907
813.845	27846
813.986	27587
814.127	27466
814.268	27279
814.41	27313
814.551	27233
814.692	27317
814.833	27230
814.974	27230
815.115	27408
815.256	27249
815.397	27184
815.539	27222
815.68	27024
815.821	27108
815.962	27188
816.103	26960
816.244	27119
816.385	26819
816.526	26899
816.666	26655
816.807	26648
816.948	26701
817.089	26819
817.23	26686
817.371	26552
817.512	26594
817.653	26571
817.793	26594
817.934	26587
818.075	26537
818.216	26598
818.356	26526
818.497	26419
818.638	26476
818.778	26347
818.919	26370
819.06	26332
819.2	26446
819.341	26583
819.481	26499
819.622	26701
819.762	26830
819.903	26815
820.043	26632
820.184	26769
820.324	26769
820.465	26883
820.605	26705
820.746	26590
820.886	26488
821.026	26606
821.167	26651
821.307	26777
821.447	26754
821.588	26488
821.728	26438
821.868	26347
822.008	26149
822.149	25963
822.289	26012
822.429	25868
822.569	25731
822.709	25632
822.849	25639
822.99	25514
823.13	25681
823.27	25552
823.41	25434
823.55	25320
823.69	25426
823.83	25358
823.97	25225
824.11	25129
824.25	25027
824.389	25343
824.529	25263
824.669	25225
824.809	25122
824.949	25297
825.089	25312
825.228	25297
825.368	25175
825.508	25042
825.648	25179
825.787	25137
825.927	25122
826.067	25076
826.206	25084
826.346	25156
826.485	25053
826.625	25145
826.765	25057
826.904	25080
827.044	24798
827.183	24829
827.323	24616
827.462	24844
827.601	24817
827.741	24806
827.88	24878
828.02	24646
828.159	24791
828.298	24810
828.437	24795
828.577	24665
828.716	24905
828.855	24650
828.994	24589
829.134	24540
829.273	24540
829.412	24437
829.551	24582
829.69	24498
829.829	24536
829.968	24547
830.107	24502
830.246	24452
830.385	24395
830.524	24410
830.663	24330
830.802	24148
830.941	24239
831.08	24186
831.219	24311
831.357	24273
831.496	24357
831.635	24190
831.774	23965
831.913	24076
832.051	24034
832.19	23965
832.329	23946
832.467	23794
832.606	23794
832.744	23920
832.883	23863
833.022	23794
833.16	23817
833.299	23843
833.437	23897
833.576	23931
833.714	23866
833.852	23863
833.991	23882
834.129	24034
834.267	23927
834.406	23958
834.544	23973
834.682	23832
834.821	23824
834.959	24060
835.097	23878
835.235	24022
835.373	24026
835.511	23824
835.65	23813
835.788	23680
835.926	23611
836.064	23547
836.202	23570
836.34	23775
836.478	23840
836.615	23668
836.753	23794
836.891	23722
837.029	23794
837.167	23657
837.305	23661
837.443	23501
837.58	23539
837.718	23684
837.856	23634
837.993	23490
838.131	23444
838.269	23486
838.406	23486
838.544	23429
838.681	23239
838.819	23269
838.956	23075
839.094	22972
839.231	23140
839.369	23322
839.506	23414
839.643	23269
839.781	23090
839.918	23037
840.055	23102
840.193	23018
840.33	23041
840.467	23033
840.604	22995
840.742	23185
840.879	22949
841.016	22938
841.153	22873
841.29	23029
841.427	22877
841.564	23048
841.701	22873
841.838	22911
841.975	22820
842.112	22869
842.249	22736
842.385	22668
842.522	22919
842.659	22774
842.796	22694
842.933	22645
843.069	22626
843.206	22611
843.343	22843
843.479	22736
843.616	22691
843.752	22527
843.889	22531
844.025	22641
844.162	22447
844.298	22554
844.435	22462
844.571	22409
844.708	22470
844.844	22603
844.98	22550
845.117	22626
845.253	22379
845.389	22272
845.525	22402
845.661	22249
845.798	22181
845.934	22253
846.07	22284
846.206	22356
846.342	22398
846.478	22143
846.614	22006
846.75	21880
846.886	21892
847.022	21994
847.158	22048
847.294	22090
847.429	22044
847.565	21953
847.701	22204
847.837	21633
847.972	21667
848.108	21747
848.244	21865
848.379	21526
848.515	21530
848.65	21515
848.786	21526
848.921	21534
849.057	21618
849.192	21618
849.328	21629
849.463	21526
849.598	21557
849.734	21496
849.869	21401
850.004	21363
850.14	21447
850.275	21439
850.41	21275
850.545	21279
850.68	21351
850.815	21359
850.95	21313
851.085	21534
851.22	21553
851.355	21355
851.49	21294
851.625	21344
851.76	21260
851.895	21325
852.03	21370
852.165	21412
852.299	21355
852.434	21336
852.569	21355
852.703	21321
852.838	21439
852.973	21447
853.107	21492
853.242	21291
853.376	21275
853.511	21146
853.645	21085
853.78	21230
853.914	21203
854.048	21077
854.183	21127
854.317	21222
854.451	21355
854.585	21173
854.72	21150
854.854	21252
854.988	21127
855.122	21260
855.256	21032
855.39	21138
855.524	21188
855.658	21146
855.792	21154
855.926	21165
856.06	21241
856.194	21279
856.327	21176
856.461	21077
856.595	21157
856.729	21135
856.862	21150
856.996	21142
857.13	21287
857.263	21294
857.397	21294
857.53	21192
857.664	21192
857.797	21260
857.931	21211
858.064	21165
858.197	21176
858.331	21096
858.464	21100
858.597	21096
858.731	20979
858.864	21096
858.997	21089
859.13	21096
859.263	21214
859.396	21310
859.529	21062
859.662	21123
859.795	21036
859.928	21119
860.061	21344
860.194	21317
860.327	21233
860.46	21146
860.592	21275
860.725	21275
860.858	21272
860.99	21180
861.123	21100
861.256	21070
861.388	21116
861.521	21888
861.653	21028
861.786	20975
861.918	21047
862.05	21020
862.183	21119
862.315	21089
862.447	21116
862.58	21043
862.712	20952
862.844	20971
862.976	21032
863.108	20811
863.24	21245
863.372	20705
863.504	20941
863.636	20872
863.768	20887
863.9	20895
864.032	20811
864.164	20956
864.296	20952
864.428	20994
864.559	20937
864.691	20868
864.823	20979
864.954	20941
865.086	20834
865.217	20754
865.349	20678
865.48	20693
865.612	20697
865.743	20902
865.875	20800
866.006	20705
866.137	20762
866.269	20670
866.4	20689
866.531	20674
866.662	20746
866.793	20746
866.924	20651
867.055	20773
867.186	20868
867.317	20556
867.448	20617
867.579	20545
867.71	20587
867.841	20701
867.972	20765
868.103	20754
868.233	20632
868.364	20606
868.495	20834
868.625	20956
868.756	20975
868.886	20819
869.017	21020
869.147	21157
869.278	21009
869.408	21070
869.539	20857
869.669	21024
869.799	21077
869.929	21096
870.06	21096
870.19	21135
870.32	21272
870.45	21306
870.58	21405
870.71	21344
870.84	21477
870.97	21264
871.1	21439
871.23	21545
871.36	21507
871.489	21454
871.619	21477
871.749	21485
871.879	21576
872.008	21564
872.138	21454
872.267	21587
872.397	21389
872.526	21386
872.656	21412
872.785	21355
872.915	21591
873.044	21625
873.173	21591
873.303	21526
873.432	21603
873.561	21591
873.69	21580
873.819	21580
873.948	21614
874.077	21515
874.206	21545
874.335	21454
874.464	21667
874.593	21713
874.722	21816
874.851	21930
874.979	21892
875.108	21736
875.237	21698
875.365	21622
875.494	21778
875.623	21899
875.751	21865
875.88	21926
876.008	21880
876.136	21892
876.265	22185
876.393	22246
876.521	22219
876.65	22242
876.778	22181
876.906	22029
877.034	22131
877.162	22044
877.29	22044
877.418	22109
877.546	22051
877.674	22124
877.802	22128
877.93	22090
878.058	22135
878.185	22044
878.313	22086
878.441	22162
878.568	21770
878.696	21983
878.824	22204
878.951	22230
879.079	22268
879.206	22443
879.333	22253
879.461	22162
879.588	22230
879.715	22382
879.842	22276
879.97	22230
880.097	21994
880.224	21941
880.351	21972
880.478	22021
880.605	21903
880.732	22025
880.859	22280
880.986	21812
881.112	21991
881.239	21831
881.366	21713
881.493	21652
881.619	21538
881.746	21667
881.872	21530
881.999	21530
882.125	21504
882.252	21629
882.378	21583
882.505	21633
882.631	21462
882.757	21348
882.883	21367
883.01	21306
883.136	21298
883.262	21287
883.388	20967
883.514	21233
883.64	21336
883.766	21131
883.892	21070
884.018	21081
884.143	21165
884.269	21218
884.395	20918
884.52	20857
884.646	20895
884.772	20918
884.897	20845
885.023	20906
885.148	20887
885.274	20963
885.399	20971
885.524	20876
885.65	20857
885.775	20994
885.9	20876
886.025	21043
886.15	20861
886.275	20773
886.4	20712
886.525	20739
886.65	20758
886.775	20712
886.9	20956
887.025	21184
887.149	20861
887.274	20800
887.399	20514
887.523	20579
887.648	20606
887.773	20629
887.897	20750
888.021	20697
888.146	20579
888.27	20663
888.395	20712
888.519	20746
888.643	20629
888.767	20682
888.891	20632
889.015	20393
889.139	20492
889.263	20427
889.387	20560
889.511	20564
889.635	20568
889.759	20495
889.883	20400
890.006	20575
890.13	20457
890.254	20370
890.377	20259
890.501	20267
890.624	20225
890.748	20252
890.871	20020
890.995	19940
891.118	19978
891.241	20058
891.364	20001
891.488	20069
891.611	20027
891.734	20062
891.857	20119
891.98	20115
892.103	20092
892.226	20001
892.349	19928
892.471	19708
892.594	19837
892.717	19967
892.839	19871
892.962	19879
893.085	20054
893.207	19986
893.33	19753
893.452	19830
893.575	19986
893.697	19898
893.819	20050
893.941	20107
894.064	20050
894.186	19887
894.308	19750
894.43	19936
894.552	20054
894.674	19894
894.796	19807
894.918	19841
895.04	19818
895.161	20031
895.283	19997
895.405	19849
895.526	19902
895.648	19807
895.769	19928
895.891	19932
896.012	20145
896.134	19947
896.255	19917
896.376	19772
896.498	19986
896.619	19978
896.74	19978
896.861	19967
896.982	20103
897.103	20412
897.224	20168
897.345	20111
897.466	20046
897.587	20145
897.708	20210
897.828	20324
897.949	20058
898.07	20001
898.19	20077
898.311	20168
898.431	20111
898.552	20271
898.672	20218
898.792	20237
898.913	20149
899.033	20058
899.153	20001
899.273	19788
899.393	19887
899.513	19925
899.633	19833
899.753	19902
899.873	19871
899.993	19963
900.113	19784
900.232	19955
900.352	19868
900.472	19811
900.591	19575
900.711	19738
900.83	19704
900.95	19795
901.069	19761
901.189	19571
901.308	19369
901.427	19244
901.546	19202
901.665	19297
901.784	19263
901.904	19126
902.023	19148
902.141	18924
902.26	18852
902.379	18878
902.498	18844
902.617	18734
902.735	18856
902.854	18757
902.973	18711
903.091	18486
903.21	18448
903.328	18513
903.446	18410
903.565	18270
903.683	18334
903.801	18155
903.919	18129
904.038	18163
904.156	18129
904.274	18079
904.392	18003
904.51	17992
904.627	17916
904.745	18060
904.863	18022
904.981	17859
905.098	17649
905.216	17851
905.334	17741
905.451	17699
905.569	17783
905.686	17794
905.803	17714
905.921	17467
906.038	17687
906.155	17581
906.272	17425
906.389	17356
906.506	17296
906.623	17303
906.74	17258
906.857	17140
906.974	17166
907.091	17277
907.208	17452
907.324	17387
907.441	17193
907.557	17037
907.674	17067
907.79	16999
907.907	16938
908.023	16987
908.139	16965
908.256	16889
908.372	16854
908.488	16904
908.604	16767
908.72	16668
908.836	16812
908.952	16683
909.068	16675
909.184	16862
909.3	16725
909.415	16736
909.531	16763
909.647	16455
909.762	16375
909.878	16314
909.993	16535
910.108	16390
910.224	16386
910.339	16348
910.454	16287
910.57	16238
910.685	16188
910.8	16466
910.915	16382
911.03	16211
911.145	16131
911.259	16017
911.374	16036
911.489	15895
911.604	15819
911.718	15739
911.833	15762
911.947	15694
912.062	15644
912.176	15713
912.291	15739
912.405	15736
912.519	15953
912.633	15899
912.748	15770
912.862	15728
912.976	15667
913.09	15473
913.204	15511
913.318	15614
913.431	15698
913.545	15713
913.659	15663
913.772	15523
913.886	15408
914	15344
914.113	15348
914.226	15610
914.34	15416
914.453	15302
914.566	15428
914.68	15218
914.793	15249
914.906	15055
915.019	14971
915.132	14967
915.245	15024
915.358	15009
915.47	15039
915.583	14956
915.696	15036
915.809	15036
915.921	14994
916.034	15085
916.146	14929
916.259	14765
916.371	14929
916.483	14914
916.595	14910
916.708	14842
916.82	14796
916.932	14743
917.044	14754
917.156	14811
917.268	14629
917.38	14667
917.491	14708
917.603	14621
917.715	14655
917.826	14762
917.938	14495
918.049	14537
918.161	14594
918.272	14705
918.384	14739
918.495	14594
918.606	14488
918.717	14465
918.828	14396
918.939	14419
919.05	14278
919.161	14324
919.272	14164
919.383	14191
919.494	14484
919.604	14667
919.715	14450
919.826	14244
919.936	14412
920.047	14457
920.157	14404
920.267	14575
920.378	14351
920.488	14320
920.598	14480
920.708	14720
920.818	14545
920.928	14419
921.038	14762
921.148	14651
921.258	14332
921.368	14252
921.477	14161
921.587	14278
921.697	13955
921.806	14237
921.916	14012
922.025	13849
922.134	13750
922.244	13693
922.353	13677
922.462	13636
922.571	13632
922.68	13510
922.789	13472
922.898	13369
923.007	13304
923.116	13422
923.224	13411
923.333	13377
923.442	13293
923.55	13232
923.659	13274
923.767	13346
923.876	13209
923.984	13190
924.092	13057
924.201	13080
924.309	13137
924.417	13141
924.525	13114
924.633	13072
924.741	13894
924.849	12821
924.956	13019
925.064	12878
925.172	12844
925.279	12779
925.387	12856
925.494	12825
925.602	12871
925.709	12909
925.816	12715
925.924	12715
926.031	12848
926.138	12829
926.245	12837
926.352	12726
926.459	12791
926.566	12837
926.673	12707
926.779	12517
926.886	12578
926.993	12388
927.099	12414
927.206	12285
927.312	12266
927.419	12498
927.525	12452
927.631	12407
927.737	12342
927.843	12213
927.95	12144
928.056	12258
928.162	12057
928.267	12296
928.373	12890
928.479	12292
928.585	12068
928.69	12182
928.796	12232
928.901	12125
929.007	11923
929.112	12022
929.218	12095
929.323	12045
929.428	11946
929.533	12083
929.638	11836
929.743	11916
929.848	11969
929.953	11859
930.058	11847
930.163	11619
930.267	11680
930.372	11821
930.477	11611
930.581	11775
930.685	11680
930.79	11501
930.894	11535
930.998	11467
931.103	11619
931.207	11356
931.311	11273
931.415	11208
931.519	11010
931.623	10828
