Data from test_V78500241_1363.txt Node
Date: Fri Mar 25 15:19:20 CST 2022
User: usil
Spectrometer: V785-0024
Trigger mode: 0
Integration Time (sec): 4.000000E-1
Scans to average: 1
Nonlinearity correction enabled: false
Boxcar width: 0
Storing dark spectrum: false
XAxis mode: Wavelengths
Number of Pixels in Spectrum: 1024
>>>>>Begin Spectral Data<<<<<
801.071	28177
801.214	28006
801.356	27899
801.499	27892
801.641	27755
801.783	27435
801.926	27770
802.068	27808
802.211	27671
802.353	27557
802.496	27481
802.638	27249
802.78	27203
802.923	27348
803.065	27256
803.208	27336
803.35	27389
803.492	27542
803.635	27477
803.777	27408
803.919	27568
804.061	27854
804.204	27629
804.346	27549
804.488	27469
804.63	27656
804.773	27443
804.915	27629
805.057	27739
805.199	27572
805.341	27663
805.483	27709
805.626	27781
805.768	27473
805.91	27610
806.052	27709
806.194	27583
806.336	27892
806.478	27694
806.62	27895
806.762	27892
806.904	28048
807.046	28295
807.188	28082
807.33	28177
807.472	28192
807.614	28150
807.756	27998
807.898	28040
808.04	27903
808.182	27994
808.324	27956
808.465	28032
808.607	28158
808.749	28443
808.891	28504
809.033	28542
809.174	28462
809.316	28417
809.458	28223
809.6	28295
809.741	28470
809.883	28516
810.025	28774
810.166	28717
810.308	28698
810.45	28596
810.591	28538
810.733	28394
810.875	28314
811.016	28356
811.158	28166
811.299	28314
811.441	28447
811.582	28580
811.724	28360
811.865	28329
812.007	28466
812.148	28325
812.29	28466
812.431	28588
812.573	28877
812.714	28683
812.855	28957
812.997	29041
813.138	29121
813.279	29071
813.421	28816
813.562	28923
813.703	28653
813.845	28527
813.986	28375
814.127	28124
814.268	28192
814.41	28013
814.551	28002
814.692	28158
814.833	27972
814.974	28006
815.115	28185
815.256	27941
815.397	27903
815.539	27960
815.68	27953
815.821	27759
815.962	27975
816.103	27873
816.244	27743
816.385	27648
816.526	27652
816.666	27439
816.807	27447
816.948	27306
817.089	27405
817.23	27389
817.371	27420
817.512	27370
817.653	27329
817.793	27287
817.934	27363
818.075	27435
818.216	27420
818.356	27386
818.497	27230
818.638	27096
818.778	27108
818.919	27123
819.06	27157
819.2	27207
819.341	27378
819.481	27420
819.622	27469
819.762	27743
819.903	27648
820.043	27622
820.184	27534
820.324	27412
820.465	27523
820.605	27412
820.746	27481
820.886	27252
821.026	27523
821.167	27466
821.307	27408
821.447	27435
821.588	27332
821.728	27077
821.868	26948
822.008	26876
822.149	26952
822.289	26876
822.429	26442
822.569	26499
822.709	26533
822.849	26355
822.99	26434
823.13	26324
823.27	26301
823.41	26210
823.55	26005
823.69	26210
823.83	26157
823.97	26168
824.11	25913
824.25	25925
824.389	25963
824.529	26107
824.669	25890
824.809	26134
824.949	26081
825.089	26065
825.228	26138
825.368	25757
825.508	25803
825.648	25887
825.787	25966
825.927	25932
826.067	25849
826.206	25868
826.346	25902
826.485	25826
826.625	25856
826.765	25978
826.904	25928
827.044	25681
827.183	25567
827.323	25449
827.462	25674
827.601	25586
827.741	25575
827.88	25639
828.02	25438
828.159	25578
828.298	25651
828.437	25704
828.577	25525
828.716	25620
828.855	25575
828.994	25312
829.134	25202
829.273	25346
829.412	25457
829.551	25202
829.69	25301
829.829	25362
829.968	25293
830.107	25266
830.246	25297
830.385	25240
830.524	25099
830.663	25129
830.802	25004
830.941	24817
831.08	24722
831.219	24992
831.357	24943
831.496	25187
831.635	24882
831.774	24829
831.913	24886
832.051	24779
832.19	24715
832.329	24665
832.467	24620
832.606	24566
832.744	24593
832.883	24513
833.022	24593
833.16	24631
833.299	24669
833.437	24601
833.576	24616
833.714	24593
833.852	24665
833.991	24642
834.129	24642
834.267	24745
834.406	24673
834.544	24692
834.682	24669
834.821	24578
834.959	24772
835.097	24673
835.235	24696
835.373	24589
835.511	24661
835.65	24483
835.788	24574
835.926	24380
836.064	24262
836.202	24281
836.34	24304
836.478	24399
836.615	24471
836.753	24380
836.891	24467
837.029	24544
837.167	24479
837.305	24380
837.443	24445
837.58	24323
837.718	24338
837.856	24372
837.993	24258
838.131	24300
838.269	24133
838.406	24209
838.544	24072
838.681	23889
838.819	24083
838.956	23893
839.094	23832
839.231	23863
839.369	23832
839.506	24163
839.643	23984
839.781	23767
839.918	23745
840.055	23756
840.193	23668
840.33	23627
840.467	23771
840.604	23691
840.742	23836
840.879	23360
841.016	23630
841.153	23562
841.29	23771
841.427	23585
841.564	23642
841.701	23649
841.838	23520
841.975	23573
842.112	23600
842.249	23452
842.385	23269
842.522	23558
842.659	23543
842.796	23311
842.933	23474
843.069	23318
843.206	23296
843.343	23440
843.479	23345
843.616	23379
843.752	23318
843.889	23227
844.025	23356
844.162	23166
844.298	23296
844.435	23159
844.571	23102
844.708	23273
844.844	23360
844.98	23379
845.117	23345
845.253	23185
845.389	23151
845.525	23166
845.661	23075
845.798	22919
845.934	22953
846.07	22835
846.206	23010
846.342	22949
846.478	22949
846.614	22774
846.75	22634
846.886	22740
847.022	22755
847.158	22584
847.294	22717
847.429	22767
847.565	22672
847.701	22850
847.837	22284
847.972	22470
848.108	22421
848.244	22432
848.379	22428
848.515	22306
848.65	22143
848.786	22185
848.921	22154
849.057	22382
849.192	22348
849.328	22253
849.463	22348
849.598	22169
849.734	22162
849.869	22044
850.004	21979
850.14	22059
850.275	22067
850.41	21968
850.545	21972
850.68	22013
850.815	22010
850.95	21972
851.085	22135
851.22	22116
851.355	21979
851.49	21994
851.625	22036
851.76	22032
851.895	21949
852.03	21953
852.165	21762
852.299	21964
852.434	22067
852.569	21953
852.703	22032
852.838	22055
852.973	22044
853.107	22131
853.242	22048
853.376	21915
853.511	21641
853.645	21823
853.78	21987
853.914	21789
854.048	21751
854.183	21816
854.317	21819
854.451	21998
854.585	21884
854.72	21911
854.854	21804
854.988	21766
855.122	21857
855.256	21774
855.39	21789
855.524	21842
855.658	21739
855.792	21759
855.926	21800
856.06	21823
856.194	21812
856.327	21869
856.461	21694
856.595	21850
856.729	21854
856.862	21922
856.996	21793
857.13	21854
857.263	21873
857.397	21888
857.53	21705
857.664	21850
857.797	21869
857.931	21934
858.064	21838
858.197	21937
858.331	21770
858.464	21865
858.597	21648
858.731	21869
858.864	21846
858.997	21778
859.13	21789
859.263	21827
859.396	21903
859.529	21808
859.662	21747
859.795	21770
859.928	21823
860.061	21926
860.194	22116
860.327	21842
860.46	21804
860.592	22013
860.725	21960
860.858	21819
860.99	21804
861.123	21739
861.256	21812
861.388	21785
861.521	22459
861.653	21751
861.786	21500
861.918	21557
862.05	21671
862.183	21846
862.315	21785
862.447	21816
862.58	21774
862.712	21466
862.844	21526
862.976	21644
863.108	21648
863.24	21892
863.372	21389
863.504	21500
863.636	21435
863.768	21564
863.9	21530
864.032	21359
864.164	21466
864.296	21492
864.428	21545
864.559	21587
864.691	21500
864.823	21561
864.954	21530
865.086	21450
865.217	21485
865.349	21408
865.48	21408
865.612	21397
865.743	21564
865.875	21492
866.006	21359
866.137	21370
866.269	21420
866.4	21405
866.531	21313
866.662	21230
866.793	21344
866.924	21264
867.055	21313
867.186	21367
867.317	21260
867.448	21211
867.579	21302
867.71	21268
867.841	21272
867.972	21332
868.103	21412
868.233	21336
868.364	21408
868.495	21397
868.625	21637
868.756	21766
868.886	21431
869.017	21641
869.147	21732
869.278	21842
869.408	21587
869.539	21439
869.669	21690
869.799	21583
869.929	21663
870.06	21545
870.19	21960
870.32	21930
870.45	21911
870.58	22002
870.71	22078
870.84	22101
870.97	21991
871.1	21991
871.23	22177
871.36	22173
871.489	22025
871.619	22070
871.749	22196
871.879	22223
872.008	22230
872.138	22162
872.267	22226
872.397	22029
872.526	21861
872.656	21987
872.785	21975
872.915	22143
873.044	22223
873.173	22166
873.303	22204
873.432	22067
873.561	22249
873.69	22135
873.819	22162
873.948	22284
874.077	21991
874.206	22143
874.335	22158
874.464	22242
874.593	22421
874.722	22363
874.851	22428
874.979	22432
875.108	22466
875.237	22356
875.365	22348
875.494	22299
875.623	22440
875.751	22390
875.88	22379
876.008	22531
876.136	22653
876.265	22812
876.393	22900
876.521	22763
876.65	22748
876.778	22885
876.906	22698
877.034	22725
877.162	22786
877.29	22816
877.418	22721
877.546	22729
877.674	22759
877.802	22797
877.93	22668
878.058	22660
878.185	22618
878.313	22736
878.441	22698
878.568	22565
878.696	22668
878.824	22771
878.951	22694
879.079	22961
879.206	22961
879.333	22946
879.461	22782
879.588	22828
879.715	22885
879.842	22995
879.97	22873
880.097	22512
880.224	22523
880.351	22542
880.478	22603
880.605	22569
880.732	22584
880.859	22752
880.986	22561
881.112	22767
881.239	22398
881.366	22242
881.493	22200
881.619	22124
881.746	22188
881.872	22204
881.999	22090
882.125	22070
882.252	22188
882.378	22124
882.505	22268
882.631	21987
882.757	21865
882.883	22032
883.01	21816
883.136	21728
883.262	21671
883.388	21568
883.514	21915
883.64	21861
883.766	21759
883.892	21637
884.018	21572
884.143	21785
884.269	21918
884.395	21519
884.52	21496
884.646	21454
884.772	21397
884.897	21374
885.023	21507
885.148	21644
885.274	21679
885.399	21633
885.524	21519
885.65	21488
885.775	21511
885.9	21405
886.025	21538
886.15	21488
886.275	21241
886.4	21279
886.525	21466
886.65	21351
886.775	21329
886.9	21606
887.025	21660
887.149	21393
887.274	21340
887.399	21245
887.523	21317
887.648	21180
887.773	21226
887.897	21298
888.021	21351
888.146	21180
888.27	21310
888.395	21283
888.519	21268
888.643	21291
888.767	21291
888.891	21070
889.015	21062
889.139	21142
889.263	20971
889.387	21192
889.511	21226
889.635	21173
889.759	20982
889.883	20872
890.006	21062
890.13	21142
890.254	20933
890.377	20948
890.501	20838
890.624	20621
890.748	20773
890.871	20667
890.995	20495
891.118	20499
891.241	20663
891.364	20518
891.488	20613
891.611	20526
891.734	20663
891.857	20678
891.98	20602
892.103	20625
892.226	20545
892.349	20446
892.471	20320
892.594	20465
892.717	20670
892.839	20514
892.962	20488
893.085	20663
893.207	20442
893.33	20347
893.452	20389
893.575	20480
893.697	20282
893.819	20602
893.941	20655
894.064	20678
894.186	20370
894.308	20385
894.43	20434
894.552	20511
894.674	20590
894.796	20385
894.918	20492
895.04	20541
895.161	20530
895.283	20621
895.405	20366
895.526	20507
895.648	20454
895.769	20526
895.891	20499
896.012	20617
896.134	20579
896.255	20541
896.376	20438
896.498	20499
896.619	20552
896.74	20518
896.861	20427
896.982	20823
897.103	21005
897.224	20724
897.345	20674
897.466	20701
897.587	20682
897.708	20880
897.828	20785
897.949	20682
898.07	20526
898.19	20564
898.311	20815
898.431	20609
898.552	20552
898.672	20788
898.792	20750
898.913	20769
899.033	20545
899.153	20514
899.273	20332
899.393	20495
899.513	20423
899.633	20358
899.753	20476
899.873	20488
899.993	20396
900.113	20374
900.232	20347
900.352	20328
900.472	20187
900.591	20126
900.711	20202
900.83	20142
900.95	20370
901.069	20305
901.189	20100
901.308	19811
901.427	19868
901.546	19871
901.665	19837
901.784	19723
901.904	19586
902.023	19613
902.141	19263
902.26	19304
902.379	19392
902.498	19377
902.617	19308
902.735	19327
902.854	19266
902.973	19225
903.091	18909
903.21	18943
903.328	18913
903.446	18863
903.565	18776
903.683	18753
903.801	18681
903.919	18730
904.038	18623
904.156	18532
904.274	18612
904.392	18498
904.51	18479
904.627	18445
904.745	18631
904.863	18532
904.981	18270
905.098	18197
905.216	18228
905.334	18197
905.451	18239
905.569	18140
905.686	18224
905.803	18182
905.921	18041
906.038	18060
906.155	18011
906.272	17824
906.389	17984
906.506	17726
906.623	17600
906.74	17775
906.857	17539
906.974	17467
907.091	17733
907.208	17775
907.324	17680
907.441	17608
907.557	17349
907.674	17554
907.79	17395
907.907	17486
908.023	17512
908.139	17436
908.256	17296
908.372	17299
908.488	17273
908.604	17155
908.72	17094
908.836	17151
908.952	17064
909.068	17162
909.184	17200
909.3	17200
909.415	17220
909.531	17128
909.647	16908
909.762	16847
909.878	16839
909.993	16847
910.108	16885
910.224	16809
910.339	16793
910.454	16694
910.57	16683
910.685	16481
910.8	16831
910.915	16904
911.03	16618
911.145	16451
911.259	16500
911.374	16417
911.489	16382
911.604	16261
911.718	16071
911.833	16109
911.947	16032
912.062	16051
912.176	16086
912.291	16154
912.405	16093
912.519	16352
912.633	16291
912.748	16272
912.862	16124
912.976	16067
913.09	15922
913.204	15949
913.318	16002
913.431	16040
913.545	16017
913.659	16082
913.772	15895
913.886	15838
914	15751
914.113	15880
914.226	15873
914.34	15922
914.453	15694
914.566	15838
914.68	15625
914.793	15709
914.906	15534
915.019	15367
915.132	15340
915.245	15359
915.358	15287
915.47	15272
915.583	15408
915.696	15367
915.809	15477
915.921	15412
916.034	15344
916.146	15252
916.259	15245
916.371	15207
916.483	15405
916.595	15264
916.708	15306
916.82	15207
916.932	15116
917.044	15218
917.156	15108
917.268	15051
917.38	15135
917.491	14929
917.603	15043
917.715	15116
917.826	15116
917.938	15028
918.049	14868
918.161	15058
918.272	15116
918.384	15055
918.495	14994
918.606	14823
918.717	14807
918.828	14857
918.939	14705
919.05	14765
919.161	14655
919.272	14629
919.383	14678
919.494	14769
919.604	14823
919.715	14750
919.826	14712
919.936	14686
920.047	14899
920.157	14769
920.267	14925
920.378	14708
920.488	14727
920.598	15017
920.708	15085
920.818	14853
920.928	14807
921.038	15138
921.148	15032
921.258	14636
921.368	14587
921.477	14610
921.587	14488
921.697	14339
921.806	14400
921.916	14271
922.025	14199
922.134	14103
922.244	13974
922.353	14096
922.462	13913
922.571	13887
922.68	13765
922.789	13761
922.898	13769
923.007	13723
923.116	13731
923.224	13696
923.333	13731
923.442	13658
923.55	13571
923.659	13582
923.767	13590
923.876	13605
923.984	13544
924.092	13476
924.201	13537
924.309	13480
924.417	13521
924.525	13415
924.633	13316
924.741	14199
924.849	13179
924.956	13324
925.064	13198
925.172	13114
925.279	13228
925.387	13194
925.494	13084
925.602	13236
925.709	13251
925.816	13031
925.924	13076
926.031	13206
926.138	13027
926.245	13171
926.352	12924
926.459	13137
926.566	13255
926.673	13012
926.779	12909
926.886	12875
926.993	12783
927.099	12795
927.206	12627
927.312	12623
927.419	12787
927.525	12741
927.631	12722
927.737	12703
927.843	12585
927.95	12456
928.056	12498
928.162	12536
928.267	12528
928.373	13175
928.479	12570
928.585	12361
928.69	12559
928.796	12547
928.901	12464
929.007	12270
929.112	12372
929.218	12422
929.323	12304
929.428	12285
929.533	12395
929.638	12194
929.743	12232
929.848	12220
929.953	12186
930.058	12087
930.163	11901
930.267	11969
930.372	12079
930.477	11935
930.581	12129
930.685	12003
930.79	11767
930.894	11893
930.998	11752
931.103	11920
931.207	11562
931.311	11486
931.415	11311
931.519	11231
931.623	11170
