Data from test_V78500241_781.txt Node
Date: Fri Mar 25 15:15:17 CST 2022
User: usil
Spectrometer: V785-0024
Trigger mode: 0
Integration Time (sec): 4.000000E-1
Scans to average: 1
Nonlinearity correction enabled: false
Boxcar width: 0
Storing dark spectrum: false
XAxis mode: Wavelengths
Number of Pixels in Spectrum: 1024
>>>>>Begin Spectral Data<<<<<
801.071	28303
801.214	28162
801.356	27857
801.499	28017
801.641	27994
801.783	27922
801.926	27922
802.068	27781
802.211	27671
802.353	27656
802.496	27526
802.638	27606
802.78	27450
802.923	27401
803.065	27408
803.208	27530
803.35	27450
803.492	27576
803.635	27599
803.777	27644
803.919	27823
804.061	27941
804.204	27770
804.346	27736
804.488	27694
804.63	27694
804.773	27610
804.915	27610
805.057	27816
805.199	27625
805.341	27739
805.483	27759
805.626	27816
805.768	27709
805.91	27739
806.052	27850
806.194	27622
806.336	28040
806.478	27899
806.62	27861
806.762	28025
806.904	28173
807.046	28325
807.188	28291
807.33	28242
807.472	28280
807.614	28139
807.756	28185
807.898	28173
808.04	27994
808.182	28188
808.324	28036
808.465	28238
808.607	28451
808.749	28421
808.891	28584
809.033	28702
809.174	28599
809.316	28573
809.458	28531
809.6	28432
809.741	28683
809.883	28565
810.025	28976
810.166	28831
810.308	28858
810.45	28824
810.591	28660
810.733	28599
810.875	28474
811.016	28322
811.158	28379
811.299	28634
811.441	28622
811.582	28588
811.724	28508
811.865	28493
812.007	28516
812.148	28611
812.29	28538
812.431	28740
812.573	28942
812.714	29022
812.855	29109
812.997	29315
813.138	29398
813.279	29246
813.421	29132
813.562	29094
813.703	28972
813.845	28713
813.986	28641
814.127	28322
814.268	28287
814.41	28268
814.551	28261
814.692	28257
814.833	28173
814.974	28276
815.115	28303
815.256	28196
815.397	28128
815.539	28177
815.68	28036
815.821	27945
815.962	28078
816.103	27899
816.244	28017
816.385	27854
816.526	27857
816.666	27694
816.807	27583
816.948	27690
817.089	27705
817.23	27652
817.371	27416
817.512	27648
817.653	27408
817.793	27545
817.934	27587
818.075	27492
818.216	27564
818.356	27549
818.497	27450
818.638	27317
818.778	27310
818.919	27431
819.06	27367
819.2	27500
819.341	27511
819.481	27603
819.622	27751
819.762	27949
819.903	27854
820.043	27869
820.184	27770
820.324	27622
820.465	27686
820.605	27591
820.746	27587
820.886	27504
821.026	27671
821.167	27610
821.307	27648
821.447	27701
821.588	27515
821.728	27386
821.868	27211
822.008	26910
822.149	27074
822.289	26925
822.429	26765
822.569	26678
822.709	26701
822.849	26602
822.99	26461
823.13	26560
823.27	26492
823.41	26400
823.55	26142
823.69	26427
823.83	26499
823.97	26286
824.11	26168
824.25	26050
824.389	26081
824.529	26229
824.669	26267
824.809	26317
824.949	26305
825.089	26396
825.228	26237
825.368	25966
825.508	26126
825.648	26069
825.787	26092
825.927	26328
826.067	26058
826.206	26073
826.346	26199
826.485	26096
826.625	26096
826.765	26168
826.904	26100
827.044	25944
827.183	25814
827.323	25780
827.462	25970
827.601	25887
827.741	25677
827.88	25925
828.02	25677
828.159	25811
828.298	25750
828.437	25951
828.577	25750
828.716	25921
828.855	25666
828.994	25582
829.134	25419
829.273	25601
829.412	25506
829.551	25373
829.69	25483
829.829	25605
829.968	25624
830.107	25506
830.246	25540
830.385	25407
830.524	25331
830.663	25304
830.802	25179
830.941	25061
831.08	24951
831.219	25255
831.357	25217
831.496	25198
831.635	25050
831.774	25152
831.913	24947
832.051	24951
832.19	24856
832.329	24977
832.467	24741
832.606	24852
832.744	24684
832.883	24616
833.022	24810
833.16	24764
833.299	24719
833.437	24837
833.576	24890
833.714	24673
833.852	24798
833.991	24833
834.129	24909
834.267	24837
834.406	24764
834.544	24837
834.682	24867
834.821	24601
834.959	25042
835.097	24753
835.235	24825
835.373	24817
835.511	24913
835.65	24642
835.788	24525
835.926	24490
836.064	24407
836.202	24555
836.34	24589
836.478	24730
836.615	24612
836.753	24612
836.891	24768
837.029	24734
837.167	24692
837.305	24593
837.443	24475
837.58	24582
837.718	24513
837.856	24551
837.993	24426
838.131	24540
838.269	24448
838.406	24384
838.544	24239
838.681	24095
838.819	24117
838.956	23920
839.094	23961
839.231	23980
839.369	24190
839.506	24327
839.643	24163
839.781	23973
839.918	23908
840.055	23817
840.193	23923
840.33	23828
840.467	23832
840.604	24011
840.742	24167
840.879	23718
841.016	23889
841.153	23748
841.29	24030
841.427	23824
841.564	23954
841.701	23817
841.838	23851
841.975	23805
842.112	23722
842.249	23710
842.385	23596
842.522	23710
842.659	23573
842.796	23524
842.933	23714
843.069	23581
843.206	23619
843.343	23627
843.479	23707
843.616	23703
843.752	23459
843.889	23551
844.025	23455
844.162	23330
844.298	23562
844.435	23421
844.571	23436
844.708	23417
844.844	23543
844.98	23482
845.117	23505
845.253	23334
845.389	23113
845.525	23326
845.661	23250
845.798	23193
845.934	23143
846.07	23121
846.206	23048
846.342	23307
846.478	22961
846.614	22877
846.75	22790
846.886	22858
847.022	22835
847.158	22828
847.294	22809
847.429	22892
847.565	22862
847.701	23033
847.837	22565
847.972	22588
848.108	22546
848.244	22637
848.379	22512
848.515	22402
848.65	22481
848.786	22550
848.921	22436
849.057	22527
849.192	22375
849.328	22527
849.463	22356
849.598	22481
849.734	22310
849.869	22272
850.004	22192
850.14	22238
850.275	22253
850.41	22215
850.545	22105
850.68	22131
850.815	22185
850.95	22112
851.085	22375
851.22	22181
851.355	22265
851.49	22261
851.625	22223
851.76	22166
851.895	22207
852.03	22124
852.165	22181
852.299	22150
852.434	22325
852.569	22044
852.703	22166
852.838	22280
852.973	22276
853.107	22394
853.242	22158
853.376	22067
853.511	21911
853.645	22013
853.78	22112
853.914	22070
854.048	22006
854.183	22097
854.317	21964
854.451	22177
854.585	22017
854.72	21960
854.854	22090
854.988	22032
855.122	22051
855.256	21876
855.39	21911
855.524	22090
855.658	22090
855.792	22082
855.926	21994
856.06	22002
856.194	22082
856.327	21960
856.461	21964
856.595	21968
856.729	21949
856.862	22097
856.996	21983
857.13	22074
857.263	22120
857.397	22150
857.53	22044
857.664	21964
857.797	22021
857.931	22173
858.064	22143
858.197	22097
858.331	21983
858.464	21968
858.597	21941
858.731	22097
858.864	21945
858.997	22010
859.13	22166
859.263	22002
859.396	21998
859.529	21964
859.662	21930
859.795	22017
859.928	22082
860.061	22112
860.194	22215
860.327	22101
860.46	21979
860.592	22154
860.725	22109
860.858	22097
860.99	22097
861.123	21861
861.256	21926
861.388	22055
861.521	22691
861.653	21861
861.786	21846
861.918	21960
862.05	21827
862.183	21865
862.315	21934
862.447	22032
862.58	21812
862.712	21633
862.844	21781
862.976	21835
863.108	21675
863.24	22261
863.372	21641
863.504	21751
863.636	21610
863.768	21736
863.9	21720
864.032	21622
864.164	21637
864.296	21717
864.428	21793
864.559	21800
864.691	21709
864.823	21694
864.954	21701
865.086	21717
865.217	21606
865.349	21534
865.48	21580
865.612	21675
865.743	21766
865.875	21648
866.006	21504
866.137	21656
866.269	21591
866.4	21603
866.531	21511
866.662	21507
866.793	21637
866.924	21500
867.055	21504
867.186	21549
867.317	21587
867.448	21507
867.579	21572
867.71	21504
867.841	21469
867.972	21564
868.103	21431
868.233	21557
868.364	21340
868.495	21637
868.625	21641
868.756	21960
868.886	21720
869.017	21835
869.147	21842
869.278	21911
869.408	21827
869.539	21812
869.669	21827
869.799	21842
869.929	21911
870.06	21823
870.19	22215
870.32	21960
870.45	22010
870.58	22101
870.71	22363
870.84	22147
870.97	22078
871.1	22166
871.23	22310
871.36	22417
871.489	22238
871.619	22382
871.749	22371
871.879	22314
872.008	22409
872.138	22428
872.267	22421
872.397	22223
872.526	22215
872.656	22097
872.785	22242
872.915	22276
873.044	22519
873.173	22432
873.303	22436
873.432	22322
873.561	22333
873.69	22459
873.819	22382
873.948	22493
874.077	22348
874.206	22344
874.335	22367
874.464	22443
874.593	22675
874.722	22481
874.851	22611
874.979	22557
875.108	22755
875.237	22637
875.365	22470
875.494	22466
875.623	22634
875.751	22398
875.88	22672
876.008	22698
876.136	22790
876.265	22927
876.393	23197
876.521	23090
876.65	22976
876.778	22934
876.906	22972
877.034	22889
877.162	23018
877.29	22957
877.418	22976
877.546	22915
877.674	22927
877.802	22946
877.93	22919
878.058	22812
878.185	22790
878.313	22854
878.441	22934
878.568	22702
878.696	22767
878.824	22999
878.951	22965
879.079	23159
879.206	23178
879.333	23121
879.461	23003
879.588	22946
879.715	22991
879.842	23239
879.97	22976
880.097	22805
880.224	22641
880.351	22698
880.478	22778
880.605	22729
880.732	22618
880.859	23086
880.986	22809
881.112	22877
881.239	22577
881.366	22409
881.493	22489
881.619	22348
881.746	22306
881.872	22322
881.999	22375
882.125	22253
882.252	22249
882.378	22280
882.505	22409
882.631	22200
882.757	21964
882.883	22101
883.01	21994
883.136	21888
883.262	22036
883.388	21873
883.514	21983
883.64	22021
883.766	21888
883.892	21926
884.018	21774
884.143	21880
884.269	22070
884.395	21720
884.52	21591
884.646	21629
884.772	21580
884.897	21633
885.023	21603
885.148	21774
885.274	21606
885.399	21755
885.524	21743
885.65	21705
885.775	21603
885.9	21652
886.025	21713
886.15	21644
886.275	21625
886.4	21469
886.525	21705
886.65	21587
886.775	21420
886.9	21709
887.025	21835
887.149	21595
887.274	21393
887.399	21382
887.523	21519
887.648	21428
887.773	21348
887.897	21386
888.021	21477
888.146	21454
888.27	21462
888.395	21496
888.519	21428
888.643	21397
888.767	21447
888.891	21298
889.015	21211
889.139	21272
889.263	21233
889.387	21268
889.511	21321
889.635	21176
889.759	21112
889.883	21165
890.006	21245
890.13	21268
890.254	21077
890.377	21108
890.501	20895
890.624	20956
890.748	20842
890.871	20792
890.995	20674
891.118	20693
891.241	20788
891.364	20693
891.488	20826
891.611	20788
891.734	20667
891.857	20823
891.98	20708
892.103	20842
892.226	20762
892.349	20571
892.471	20590
892.594	20701
892.717	20689
892.839	20560
892.962	20686
893.085	20811
893.207	20708
893.33	20412
893.452	20556
893.575	20655
893.697	20629
893.819	20693
893.941	20785
894.064	20762
894.186	20511
894.308	20552
894.43	20735
894.552	20769
894.674	20739
894.796	20564
894.918	20511
895.04	20590
895.161	20705
895.283	20617
895.405	20537
895.526	20636
895.648	20678
895.769	20579
895.891	20659
896.012	20663
896.134	20781
896.255	20606
896.376	20613
896.498	20697
896.619	20613
896.74	20556
896.861	20670
896.982	21009
897.103	21009
897.224	20960
897.345	20758
897.466	20731
897.587	20804
897.708	20906
897.828	20788
897.949	20739
898.07	20670
898.19	20750
898.311	20994
898.431	20906
898.552	20773
898.672	20948
898.792	20883
898.913	20872
899.033	20727
899.153	20636
899.273	20526
899.393	20648
899.513	20701
899.633	20590
899.753	20507
899.873	20537
899.993	20617
900.113	20446
900.232	20526
900.352	20454
900.472	20473
900.591	20294
900.711	20423
900.83	20271
900.95	20389
901.069	20454
901.189	20180
901.308	19997
901.427	19887
901.546	19974
901.665	19944
901.784	19944
901.904	19776
902.023	19723
902.141	19533
902.26	19502
902.379	19544
902.498	19384
902.617	19407
902.735	19392
902.854	19369
902.973	19236
903.091	19042
903.21	19289
903.328	19160
903.446	19053
903.565	18943
903.683	19042
903.801	18817
903.919	18795
904.038	18844
904.156	18551
904.274	18681
904.392	18661
904.51	18593
904.627	18620
904.745	18684
904.863	18654
904.981	18502
905.098	18330
905.216	18361
905.334	18365
905.451	18319
905.569	18361
905.686	18262
905.803	18334
905.921	18041
906.038	18205
906.155	18045
906.272	18125
906.389	18072
906.506	17832
906.623	17908
906.74	17828
906.857	17771
906.974	17767
907.091	17885
907.208	17950
907.324	17805
907.441	17798
907.557	17676
907.674	17630
907.79	17604
907.907	17452
908.023	17539
908.139	17524
908.256	17547
908.372	17528
908.488	17387
908.604	17341
908.72	17337
908.836	17273
908.952	17208
909.068	17307
909.184	17368
909.3	17170
909.415	17334
909.531	17269
909.647	17052
909.762	17056
909.878	17025
909.993	17010
910.108	16942
910.224	17010
910.339	17014
910.454	16824
910.57	16843
910.685	16733
910.8	17071
910.915	16984
911.03	16687
911.145	16596
911.259	16630
911.374	16641
911.489	16478
911.604	16329
911.718	16417
911.833	16268
911.947	16287
912.062	16162
912.176	16246
912.291	16188
912.405	16341
912.519	16462
912.633	16516
912.748	16303
912.862	16242
912.976	16112
913.09	16105
913.204	16124
913.318	16143
913.431	16219
913.545	16166
913.659	16238
913.772	16036
913.886	15979
914	15949
914.113	15934
914.226	16097
914.34	15907
914.453	15827
914.566	15899
914.68	15819
914.793	15724
914.906	15568
915.019	15606
915.132	15523
915.245	15485
915.358	15511
915.47	15587
915.583	15564
915.696	15606
915.809	15724
915.921	15667
916.034	15485
916.146	15370
916.259	15374
916.371	15325
916.483	15393
916.595	15336
916.708	15382
916.82	15317
916.932	15374
917.044	15264
917.156	15226
917.268	15173
917.38	15268
917.491	15150
917.603	15119
917.715	15226
917.826	15283
917.938	15039
918.049	15005
918.161	15135
918.272	15226
918.384	15230
918.495	15074
918.606	15005
918.717	14914
918.828	14914
918.939	14979
919.05	14845
919.161	14883
919.272	14678
919.383	14735
919.494	14906
919.604	15119
919.715	14853
919.826	14826
919.936	14880
920.047	14842
920.157	14792
920.267	15093
920.378	14902
920.488	14773
920.598	15005
920.708	15192
920.818	14933
920.928	15043
921.038	15146
921.148	15165
921.258	14777
921.368	14754
921.477	14617
921.587	14484
921.697	14511
921.806	14629
921.916	14473
922.025	14229
922.134	14229
922.244	14233
922.353	14233
922.462	14130
922.571	14031
922.68	13883
922.789	13909
922.898	13902
923.007	13871
923.116	13894
923.224	13814
923.333	13841
923.442	13734
923.55	13674
923.659	13719
923.767	13666
923.876	13639
923.984	13700
924.092	13620
924.201	13632
924.309	13567
924.417	13582
924.525	13575
924.633	13548
924.741	14286
924.849	13308
924.956	13468
925.064	13327
925.172	13198
925.279	13209
925.387	13270
925.494	13362
925.602	13274
925.709	13266
925.816	13034
925.924	13190
926.031	13358
926.138	13160
926.245	13259
926.352	13038
926.459	13282
926.566	13175
926.673	13076
926.779	13053
926.886	13118
926.993	12894
927.099	12920
927.206	12837
927.312	12814
927.419	12844
927.525	12837
927.631	12753
927.737	12840
927.843	12734
927.95	12521
928.056	12681
928.162	12635
928.267	12715
928.373	13324
928.479	12787
928.585	12498
928.69	12563
928.796	12639
928.901	12418
929.007	12342
929.112	12547
929.218	12456
929.323	12361
929.428	12372
929.533	12506
929.638	12247
929.743	12273
929.848	12372
929.953	12296
930.058	12186
930.163	11996
930.267	12007
930.372	12152
930.477	12003
930.581	12167
930.685	12148
930.79	11939
930.894	11961
930.998	11847
931.103	12064
931.207	11691
931.311	11493
931.415	11573
931.519	11261
931.623	11170
