Data from test_V78500241_43.txt Node
Date: Fri Mar 25 15:10:09 CST 2022
User: usil
Spectrometer: V785-0024
Trigger mode: 0
Integration Time (sec): 4.000000E-1
Scans to average: 1
Nonlinearity correction enabled: false
Boxcar width: 0
Storing dark spectrum: false
XAxis mode: Wavelengths
Number of Pixels in Spectrum: 1024
>>>>>Begin Spectral Data<<<<<
801.071	28805
801.214	28626
801.356	28557
801.499	28405
801.641	28318
801.783	28367
801.926	28257
802.068	28424
802.211	28291
802.353	28124
802.496	28086
802.638	27922
802.78	27956
802.923	27838
803.065	27778
803.208	27759
803.35	27930
803.492	27911
803.635	28044
803.777	28029
803.919	28040
804.061	28329
804.204	28234
804.346	27865
804.488	27972
804.63	28116
804.773	27766
804.915	28006
805.057	27956
805.199	28017
805.341	27953
805.483	28196
805.626	28143
805.768	27884
805.91	28067
806.052	28124
806.194	27850
806.336	28223
806.478	28063
806.62	28032
806.762	28223
806.904	28196
807.046	28478
807.188	28409
807.33	28299
807.472	28607
807.614	28413
807.756	28401
807.898	28242
808.04	28036
808.182	28219
808.324	28101
808.465	28257
808.607	28325
808.749	28428
808.891	28569
809.033	28854
809.174	28557
809.316	28462
809.458	28436
809.6	28500
809.741	28618
809.883	28493
810.025	28793
810.166	28668
810.308	28915
810.45	28713
810.591	28717
810.733	28455
810.875	28432
811.016	28367
811.158	28436
811.299	28398
811.441	28611
811.582	28474
811.724	28367
811.865	28322
812.007	28535
812.148	28504
812.29	28428
812.431	28729
812.573	28820
812.714	28824
812.855	28869
812.997	29033
813.138	29143
813.279	29117
813.421	28885
813.562	29044
813.703	28713
813.845	28580
813.986	28223
814.127	28147
814.268	28048
814.41	27998
814.551	27914
814.692	28196
814.833	27922
814.974	27892
815.115	28032
815.256	27918
815.397	27850
815.539	27751
815.68	27819
815.821	27732
815.962	27720
816.103	27705
816.244	27614
816.385	27583
816.526	27625
816.666	27416
816.807	27085
816.948	27211
817.089	27287
817.23	27405
817.371	27222
817.512	27157
817.653	27264
817.793	27058
817.934	27017
818.075	27214
818.216	27203
818.356	27024
818.497	27028
818.638	26788
818.778	26663
818.919	26686
819.06	26944
819.2	27070
819.341	27036
819.481	27024
819.622	27310
819.762	27382
819.903	27173
820.043	27161
820.184	27264
820.324	27051
820.465	27085
820.605	27093
820.746	27089
820.886	26994
821.026	27108
821.167	27047
821.307	27108
821.447	27074
821.588	26910
821.728	26815
821.868	26583
822.008	26522
822.149	26461
822.289	26465
822.429	26305
822.569	26096
822.709	26240
822.849	25989
822.99	25963
823.13	25887
823.27	25845
823.41	25681
823.55	25696
823.69	25799
823.83	25750
823.97	25784
824.11	25529
824.25	25502
824.389	25529
824.529	25548
824.669	25514
824.809	25651
824.949	25544
825.089	25567
825.228	25537
825.368	25324
825.508	25339
825.648	25285
825.787	25384
825.927	25324
826.067	25225
826.206	25384
826.346	25377
826.485	25350
826.625	25194
826.765	25369
826.904	25312
827.044	25057
827.183	25008
827.323	25008
827.462	25088
827.601	24977
827.741	24882
827.88	25175
828.02	24833
828.159	25088
828.298	24970
828.437	25080
828.577	24863
828.716	25110
828.855	24989
828.994	24692
829.134	24608
829.273	24787
829.412	24760
829.551	24544
829.69	24669
829.829	24795
829.968	24730
830.107	24741
830.246	24620
830.385	24639
830.524	24563
830.663	24353
830.802	24353
830.941	24315
831.08	24205
831.219	24357
831.357	24205
831.496	24426
831.635	24209
831.774	24304
831.913	23893
832.051	23984
832.19	23954
832.329	23946
832.467	23824
832.606	23748
832.744	23737
832.883	23843
833.022	23760
833.16	23821
833.299	23863
833.437	23897
833.576	24003
833.714	23866
833.852	24026
833.991	23794
834.129	23836
834.267	24022
834.406	23889
834.544	23973
834.682	23798
834.821	23802
834.959	24079
835.097	23790
835.235	23931
835.373	23794
835.511	23779
835.65	23551
835.788	23516
835.926	23463
836.064	23474
836.202	23516
836.34	23630
836.478	23687
836.615	23391
836.753	23718
836.891	23661
837.029	23657
837.167	23627
837.305	23589
837.443	23558
837.58	23512
837.718	23604
837.856	23547
837.993	23440
838.131	23478
838.269	23246
838.406	23364
838.544	23364
838.681	23162
838.819	23003
838.956	22999
839.094	22790
839.231	22980
839.369	23102
839.506	23395
839.643	23208
839.781	22744
839.918	22805
840.055	22828
840.193	22847
840.33	22744
840.467	22729
840.604	22915
840.742	22980
840.879	22603
841.016	22698
841.153	22672
841.29	22805
841.427	22812
841.564	22881
841.701	22748
841.838	22626
841.975	22557
842.112	22622
842.249	22459
842.385	22542
842.522	22611
842.659	22584
842.796	22512
842.933	22500
843.069	22348
843.206	22310
843.343	22516
843.479	22554
843.616	22424
843.752	22188
843.889	22219
844.025	22402
844.162	22303
844.298	22219
844.435	22101
844.571	22162
844.708	22249
844.844	22268
844.98	22417
845.117	22230
845.253	22135
845.389	22086
845.525	22150
845.661	22105
845.798	21907
845.934	21915
846.07	21937
846.206	21907
846.342	21972
846.478	22074
846.614	21629
846.75	21428
846.886	21614
847.022	21682
847.158	21770
847.294	21622
847.429	21705
847.565	21523
847.701	21793
847.837	21378
847.972	21142
848.108	21462
848.244	21370
848.379	21195
848.515	21222
848.65	21123
848.786	21127
848.921	21188
849.057	21184
849.192	21218
849.328	21165
849.463	21184
849.598	21192
849.734	21138
849.869	21100
850.004	20971
850.14	21001
850.275	20925
850.41	20880
850.545	20830
850.68	20887
850.815	20921
850.95	20891
851.085	21108
851.22	21009
851.355	20891
851.49	20853
851.625	20861
851.76	20788
851.895	20769
852.03	20777
852.165	20933
852.299	20876
852.434	20994
852.569	20902
852.703	20872
852.838	20834
852.973	20921
853.107	20925
853.242	20804
853.376	20720
853.511	20579
853.645	20606
853.78	20807
853.914	20609
854.048	20621
854.183	20716
854.317	20583
854.451	20864
854.585	20613
854.72	20746
854.854	20697
854.988	20537
855.122	20705
855.256	20629
855.39	20720
855.524	20686
855.658	20644
855.792	20609
855.926	20674
856.06	20746
856.194	20712
856.327	20629
856.461	20644
856.595	20712
856.729	20594
856.862	20682
856.996	20689
857.13	20743
857.263	20842
857.397	20815
857.53	20693
857.664	20701
857.797	20762
857.931	20819
858.064	20743
858.197	20701
858.331	20678
858.464	20560
858.597	20526
858.731	20488
858.864	20625
858.997	20571
859.13	20811
859.263	20560
859.396	20758
859.529	20625
859.662	20526
859.795	20583
859.928	20568
860.061	20731
860.194	20724
860.327	20617
860.46	20522
860.592	20682
860.725	20667
860.858	20674
860.99	20571
861.123	20423
861.256	20636
861.388	20556
861.521	21077
861.653	20488
861.786	20362
861.918	20366
862.05	20609
862.183	20522
862.315	20609
862.447	20659
862.58	20571
862.712	20370
862.844	20423
862.976	20415
863.108	20351
863.24	20750
863.372	20214
863.504	20305
863.636	20145
863.768	20358
863.9	20218
864.032	20210
864.164	20183
864.296	20240
864.428	20339
864.559	20336
864.691	20362
864.823	20393
864.954	20183
865.086	20221
865.217	20161
865.349	20088
865.48	20126
865.612	20172
865.743	20278
865.875	20100
866.006	20145
866.137	20149
866.269	20233
866.4	20240
866.531	20157
866.662	20043
866.793	20046
866.924	20088
867.055	20210
867.186	20187
867.317	20077
867.448	20027
867.579	20035
867.71	19986
867.841	19940
867.972	20119
868.103	20084
868.233	20134
868.364	20012
868.495	20088
868.625	20336
868.756	20374
868.886	20157
869.017	20271
869.147	20438
869.278	20533
869.408	20309
869.539	20465
869.669	20332
869.799	20343
869.929	20465
870.06	20530
870.19	20602
870.32	20773
870.45	20648
870.58	20686
870.71	20834
870.84	20765
870.97	20571
871.1	20701
871.23	20880
871.36	20925
871.489	20788
871.619	20914
871.749	20929
871.879	20895
872.008	21074
872.138	20899
872.267	20891
872.397	20712
872.526	20750
872.656	20792
872.785	20667
872.915	20956
873.044	21104
873.173	20963
873.303	20895
873.432	21017
873.561	21039
873.69	20944
873.819	20895
873.948	21017
874.077	20861
874.206	20735
874.335	21009
874.464	21036
874.593	21203
874.722	21108
874.851	21176
874.979	21173
875.108	21268
875.237	21100
875.365	21230
875.494	21161
875.623	21287
875.751	21112
875.88	21138
876.008	21211
876.136	21344
876.265	21526
876.393	21762
876.521	21736
876.65	21660
876.778	21599
876.906	21507
877.034	21511
877.162	21515
877.29	21549
877.418	21500
877.546	21564
877.674	21526
877.802	21545
877.93	21549
878.058	21583
878.185	21454
878.313	21580
878.441	21511
878.568	21306
878.696	21420
878.824	21576
878.951	21652
879.079	21667
879.206	21915
879.333	21770
879.461	21564
879.588	21549
879.715	21728
879.842	21854
879.97	21648
880.097	21462
880.224	21435
880.351	21469
880.478	21329
880.605	21241
880.732	21329
880.859	21580
880.986	21420
881.112	21291
881.239	21245
881.366	21222
881.493	21001
881.619	20952
881.746	20864
881.872	20910
881.999	20857
882.125	20838
882.252	21013
882.378	21039
882.505	21104
882.631	20800
882.757	20636
882.883	20925
883.01	20686
883.136	20602
883.262	20636
883.388	20587
883.514	20667
883.64	20686
883.766	20678
883.892	20537
884.018	20549
884.143	20511
884.269	20765
884.395	20431
884.52	20328
884.646	20358
884.772	20275
884.897	20199
885.023	20298
885.148	20313
885.274	20431
885.399	20480
885.524	20343
885.65	20393
885.775	20393
885.9	20377
886.025	20511
886.15	20415
886.275	20267
886.4	20153
886.525	20233
886.65	20355
886.775	20206
886.9	20408
887.025	20556
887.149	20415
887.274	20103
887.399	20062
887.523	20107
887.648	19963
887.773	19974
887.897	20077
888.021	20016
888.146	20035
888.27	20142
888.395	20161
888.519	20084
888.643	20153
888.767	20149
888.891	19909
889.015	19860
889.139	19944
889.263	19841
889.387	19967
889.511	20065
889.635	19982
889.759	19921
889.883	19894
890.006	19799
890.13	19849
890.254	19746
890.377	19704
890.501	19575
890.624	19685
890.748	19594
890.871	19453
890.995	19480
891.118	19308
891.241	19434
891.364	19460
891.488	19533
891.611	19415
891.734	19468
891.857	19487
891.98	19441
892.103	19464
892.226	19441
892.349	19316
892.471	19327
892.594	19400
892.717	19331
892.839	19308
892.962	19407
893.085	19438
893.207	19289
893.33	19274
893.452	19263
893.575	19415
893.697	19392
893.819	19510
893.941	19502
894.064	19434
894.186	19308
894.308	19225
894.43	19373
894.552	19506
894.674	19384
894.796	19293
894.918	19190
895.04	19339
895.161	19502
895.283	19400
895.405	19312
895.526	19354
895.648	19362
895.769	19320
895.891	19392
896.012	19343
896.134	19548
896.255	19327
896.376	19365
896.498	19396
896.619	19510
896.74	19422
896.861	19460
896.982	19784
897.103	19959
897.224	19677
897.345	19597
897.466	19540
897.587	19635
897.708	19712
897.828	19643
897.949	19601
898.07	19457
898.19	19563
898.311	19620
898.431	19597
898.552	19613
898.672	19582
898.792	19620
898.913	19681
899.033	19396
899.153	19369
899.273	19403
899.393	19327
899.513	19304
899.633	19377
899.753	19335
899.873	19133
899.993	19377
900.113	19301
900.232	19362
900.352	19194
900.472	19107
900.591	19080
900.711	19118
900.83	19023
900.95	19175
901.069	19293
901.189	19023
901.308	18798
901.427	18700
901.546	18802
901.665	18741
901.784	18722
901.904	18555
902.023	18589
902.141	18262
902.26	18235
902.379	18304
902.498	18209
902.617	18182
902.735	18239
902.854	18167
902.973	18152
903.091	17935
903.21	17866
903.328	17809
903.446	17828
903.565	17733
903.683	17710
903.801	17573
903.919	17699
904.038	17710
904.156	17512
904.274	17509
904.392	17455
904.51	17528
904.627	17417
904.745	17471
904.863	17543
904.981	17280
905.098	17170
905.216	17178
905.334	17170
905.451	17086
905.569	17121
905.686	17223
905.803	17178
905.921	16809
906.038	17041
906.155	16908
906.272	16733
906.389	16862
906.506	16733
906.623	16710
906.74	16694
906.857	16546
906.974	16603
907.091	16694
907.208	16816
907.324	16694
907.441	16485
907.557	16413
907.674	16394
907.79	16379
907.907	16238
908.023	16360
908.139	16363
908.256	16280
908.372	16234
908.488	16226
908.604	16074
908.72	16002
908.836	15983
908.952	16002
909.068	16147
909.184	16219
909.3	15979
909.415	16036
909.531	15975
909.647	15857
909.762	15804
909.878	15728
909.993	15759
910.108	15679
910.224	15694
910.339	15698
910.454	15675
910.57	15538
910.685	15485
910.8	15854
910.915	15660
911.03	15545
911.145	15348
911.259	15344
911.374	15298
911.489	15264
911.604	15203
911.718	15097
911.833	15009
911.947	15009
912.062	14895
912.176	14960
912.291	15051
912.405	15085
912.519	15214
912.633	15211
912.748	15066
912.862	14990
912.976	14819
913.09	14800
913.204	14853
913.318	14914
913.431	15013
913.545	14906
913.659	14952
913.772	14883
913.886	14746
914	14602
914.113	14807
914.226	14845
914.34	14727
914.453	14583
914.566	14769
914.68	14606
914.793	14568
914.906	14454
915.019	14377
915.132	14267
915.245	14385
915.358	14309
915.47	14393
915.583	14324
915.696	14423
915.809	14530
915.921	14454
916.034	14267
916.146	14286
916.259	14275
916.371	14309
916.483	14374
916.595	14084
916.708	14214
916.82	14183
916.932	14103
917.044	14069
917.156	14199
917.268	13982
917.38	14039
917.491	13925
917.603	14016
917.715	14123
917.826	14157
917.938	13921
918.049	13833
918.161	13913
918.272	14130
918.384	14062
918.495	14153
918.606	13875
918.717	13826
918.828	13837
918.939	13803
919.05	13670
919.161	13738
919.272	13639
919.383	13670
919.494	13791
919.604	13898
919.715	13757
919.826	13670
919.936	13731
920.047	13791
920.157	13727
920.267	13906
920.378	13780
920.488	13620
920.598	13917
920.708	14039
920.818	13856
920.928	13841
921.038	13940
921.148	13959
921.258	13662
921.368	13601
921.477	13529
921.587	13415
921.697	13381
921.806	13525
921.916	13293
922.025	13171
922.134	13114
922.244	13050
922.353	13168
922.462	12943
922.571	12932
922.68	12791
922.789	12753
922.898	12745
923.007	12700
923.116	12707
923.224	12745
923.333	12623
923.442	12566
923.55	12547
923.659	12627
923.767	12627
923.876	12521
923.984	12608
924.092	12536
924.201	12555
924.309	12517
924.417	12418
924.525	12395
924.633	12506
924.741	13217
924.849	12262
924.956	12357
925.064	12216
925.172	12201
925.279	12232
925.387	12167
925.494	12163
925.602	12281
925.709	12232
925.816	12163
925.924	12133
926.031	12239
926.138	12175
926.245	12239
926.352	12087
926.459	12258
926.566	12285
926.673	12201
926.779	12022
926.886	11996
926.993	11874
927.099	11836
927.206	11733
927.312	11752
927.419	11851
927.525	11668
927.631	11783
927.737	11668
927.843	11741
927.95	11532
928.056	11638
928.162	11642
928.267	11661
928.373	12300
928.479	11779
928.585	11505
928.69	11665
928.796	11668
928.901	11471
929.007	11406
929.112	11509
929.218	11532
929.323	11311
929.428	11322
929.533	11436
929.638	11353
929.743	11311
929.848	11349
929.953	11204
930.058	11273
930.163	11056
930.267	11162
930.372	11201
930.477	10987
930.581	11376
930.685	11151
930.79	10976
930.894	10961
930.998	10889
931.103	11037
931.207	10687
931.311	10706
931.415	10523
931.519	10409
931.623	10360
