Data from test_V78500241_105.txt Node
Date: Fri Mar 25 15:10:35 CST 2022
User: usil
Spectrometer: V785-0024
Trigger mode: 0
Integration Time (sec): 4.000000E-1
Scans to average: 1
Nonlinearity correction enabled: false
Boxcar width: 0
Storing dark spectrum: false
XAxis mode: Wavelengths
Number of Pixels in Spectrum: 1024
>>>>>Begin Spectral Data<<<<<
801.071	28276
801.214	28196
801.356	28135
801.499	28013
801.641	27857
801.783	27793
801.926	27720
802.068	27698
802.211	27637
802.353	27622
802.496	27355
802.638	27348
802.78	27439
802.923	27325
803.065	27313
803.208	27412
803.35	27348
803.492	27526
803.635	27450
803.777	27386
803.919	27416
804.061	27823
804.204	27469
804.346	27306
804.488	27310
804.63	27382
804.773	27313
804.915	27435
805.057	27504
805.199	27405
805.341	27523
805.483	27454
805.626	27427
805.768	27386
805.91	27439
806.052	27610
806.194	27431
806.336	27610
806.478	27561
806.62	27526
806.762	27576
806.904	27545
807.046	27949
807.188	27800
807.33	27869
807.472	27850
807.614	27941
807.756	27694
807.898	27728
808.04	27713
808.182	27823
808.324	27675
808.465	27644
808.607	27956
808.749	27854
808.891	28097
809.033	28128
809.174	27979
809.316	28036
809.458	28006
809.6	27949
809.741	28086
809.883	28109
810.025	28185
810.166	28200
810.308	28287
810.45	28154
810.591	28188
810.733	28013
810.875	28044
811.016	27937
811.158	27793
811.299	27876
811.441	28006
811.582	28025
811.724	27789
811.865	27930
812.007	27964
812.148	27937
812.29	27956
812.431	28135
812.573	28280
812.714	28424
812.855	28474
812.997	28519
813.138	28767
813.279	28550
813.421	28485
813.562	28325
813.703	28139
813.845	28173
813.986	27880
814.127	27736
814.268	27675
814.41	27519
814.551	27545
814.692	27652
814.833	27530
814.974	27534
815.115	27625
815.256	27462
815.397	27233
815.539	27393
815.68	27275
815.821	27150
815.962	27138
816.103	27272
816.244	27237
816.385	27013
816.526	27070
816.666	26838
816.807	26739
816.948	26845
817.089	26891
817.23	26667
817.371	26648
817.512	26834
817.653	26632
817.793	26594
817.934	26678
818.075	26655
818.216	26720
818.356	26583
818.497	26522
818.638	26339
818.778	26286
818.919	26290
819.06	26457
819.2	26518
819.341	26625
819.481	26609
819.622	26758
819.762	26895
819.903	26899
820.043	26804
820.184	26678
820.324	26682
820.465	26819
820.605	26712
820.746	26617
820.886	26609
821.026	26769
821.167	26564
821.307	26758
821.447	26655
821.588	26400
821.728	26294
821.868	26107
822.008	26138
822.149	26096
822.289	26145
822.429	25818
822.569	25624
822.709	25753
822.849	25643
822.99	25510
823.13	25487
823.27	25468
823.41	25343
823.55	25232
823.69	25282
823.83	25358
823.97	25343
824.11	25084
824.25	25042
824.389	25103
824.529	25244
824.669	25008
824.809	25145
824.949	25148
825.089	25270
825.228	25095
825.368	24863
825.508	24928
825.648	24935
825.787	24966
825.927	24928
826.067	24840
826.206	24821
826.346	24989
826.485	24920
826.625	24806
826.765	24924
826.904	24905
827.044	24673
827.183	24631
827.323	24566
827.462	24696
827.601	24585
827.741	24433
827.88	24646
828.02	24509
828.159	24631
828.298	24559
828.437	24563
828.577	24460
828.716	24776
828.855	24536
828.994	24292
829.134	24273
829.273	24334
829.412	24239
829.551	24178
829.69	24224
829.829	24186
829.968	24266
830.107	24361
830.246	24338
830.385	24129
830.524	24220
830.663	24076
830.802	23920
830.941	23733
831.08	23726
831.219	23885
831.357	23790
831.496	24049
831.635	23832
831.774	23707
831.913	23570
832.051	23615
832.19	23608
832.329	23741
832.467	23600
832.606	23364
832.744	23307
832.883	23459
833.022	23452
833.16	23490
833.299	23467
833.437	23429
833.576	23410
833.714	23543
833.852	23596
833.991	23474
834.129	23490
834.267	23531
834.406	23395
834.544	23501
834.682	23471
834.821	23383
834.959	23581
835.097	23364
835.235	23330
835.373	23379
835.511	23391
835.65	23326
835.788	23280
835.926	23178
836.064	22984
836.202	23159
836.34	23269
836.478	23246
836.615	23162
836.753	23250
836.891	23395
837.029	23166
837.167	23231
837.305	23197
837.443	23181
837.58	23124
837.718	23239
837.856	23170
837.993	22984
838.131	23136
838.269	23006
838.406	22976
838.544	22881
838.681	22786
838.819	22729
838.956	22546
839.094	22634
839.231	22653
839.369	22786
839.506	22885
839.643	22759
839.781	22516
839.918	22451
840.055	22466
840.193	22470
840.33	22542
840.467	22352
840.604	22478
840.742	22729
840.879	22421
841.016	22363
841.153	22348
841.29	22550
841.427	22481
841.564	22470
841.701	22375
841.838	22478
841.975	22352
842.112	22314
842.249	22249
842.385	22158
842.522	22363
842.659	22116
842.796	22131
842.933	22234
843.069	22166
843.206	22166
843.343	22124
843.479	22044
843.616	22036
843.752	21953
843.889	21888
844.025	22044
844.162	21816
844.298	21941
844.435	21876
844.571	21884
844.708	21907
844.844	22086
844.98	21922
845.117	21975
845.253	21762
845.389	21800
845.525	21694
845.661	21705
845.798	21534
845.934	21751
846.07	21473
846.206	21671
846.342	21743
846.478	21587
846.614	21405
846.75	21173
846.886	21272
847.022	21412
847.158	21336
847.294	21340
847.429	21389
847.565	21291
847.701	21679
847.837	21055
847.972	21032
848.108	21146
848.244	21119
848.379	20887
848.515	20891
848.65	20910
848.786	20910
848.921	20906
849.057	20971
849.192	21036
849.328	20857
849.463	20807
849.598	20796
849.734	20769
849.869	20823
850.004	20705
850.14	20594
850.275	20583
850.41	20556
850.545	20503
850.68	20682
850.815	20571
850.95	20564
851.085	20781
851.22	20663
851.355	20609
851.49	20602
851.625	20613
851.76	20560
851.895	20442
852.03	20404
852.165	20613
852.299	20708
852.434	20625
852.569	20636
852.703	20454
852.838	20731
852.973	20739
853.107	20689
853.242	20564
853.376	20427
853.511	20434
853.645	20343
853.78	20533
853.914	20495
854.048	20389
854.183	20385
854.317	20476
854.451	20507
854.585	20492
854.72	20366
854.854	20522
854.988	20324
855.122	20404
855.256	20324
855.39	20492
855.524	20454
855.658	20476
855.792	20446
855.926	20381
856.06	20415
856.194	20370
856.327	20408
856.461	20309
856.595	20305
856.729	20454
856.862	20457
856.996	20469
857.13	20514
857.263	20495
857.397	20526
857.53	20408
857.664	20480
857.797	20492
857.931	20480
858.064	20492
858.197	20480
858.331	20400
858.464	20374
858.597	20298
858.731	20431
858.864	20332
858.997	20393
859.13	20366
859.263	20381
859.396	20419
859.529	20275
859.662	20366
859.795	20218
859.928	20336
860.061	20511
860.194	20537
860.327	20370
860.46	20419
860.592	20507
860.725	20533
860.858	20446
860.99	20336
861.123	20237
861.256	20252
861.388	20305
861.521	20914
861.653	20301
861.786	20077
861.918	20256
862.05	20309
862.183	20305
862.315	20438
862.447	20415
862.58	20320
862.712	20122
862.844	20115
862.976	20081
863.108	20119
863.24	20579
863.372	19921
863.504	20031
863.636	20027
863.768	20187
863.9	19944
864.032	19993
864.164	19982
864.296	20020
864.428	20218
864.559	20088
864.691	20077
864.823	20054
864.954	20100
865.086	20138
865.217	20058
865.349	19963
865.48	19875
865.612	19963
865.743	19974
865.875	19993
866.006	19871
866.137	19997
866.269	19928
866.4	20001
866.531	19837
866.662	19928
866.793	19864
866.924	19830
867.055	19921
867.186	19890
867.317	19898
867.448	19811
867.579	19860
867.71	19860
867.841	19765
867.972	19883
868.103	19826
868.233	19947
868.364	19822
868.495	19856
868.625	20153
868.756	20183
868.886	19967
869.017	20176
869.147	20210
869.278	20252
869.408	20164
869.539	20115
869.669	20221
869.799	20244
869.929	20206
870.06	20252
870.19	20419
870.32	20343
870.45	20469
870.58	20476
870.71	20583
870.84	20511
870.97	20476
871.1	20492
871.23	20670
871.36	20716
871.489	20541
871.619	20762
871.749	20712
871.879	20868
872.008	20815
872.138	20693
872.267	20701
872.397	20651
872.526	20613
872.656	20636
872.785	20545
872.915	20735
873.044	20739
873.173	20727
873.303	20735
873.432	20826
873.561	20861
873.69	20834
873.819	20720
873.948	20823
874.077	20705
874.206	20670
874.335	20750
874.464	20906
874.593	20971
874.722	20971
874.851	20971
874.979	21005
875.108	21062
875.237	20956
875.365	20891
875.494	20971
875.623	21028
875.751	20826
875.88	20982
876.008	21043
876.136	21207
876.265	21313
876.393	21408
876.521	21412
876.65	21454
876.778	21393
876.906	21370
877.034	21298
877.162	21340
877.29	21214
877.418	21302
877.546	21382
877.674	21359
877.802	21439
877.93	21287
878.058	21340
878.185	21287
878.313	21420
878.441	21272
878.568	21135
878.696	21214
878.824	21329
878.951	21370
879.079	21428
879.206	21705
879.333	21462
879.461	21428
879.588	21397
879.715	21458
879.842	21698
879.97	21416
880.097	21165
880.224	21222
880.351	21241
880.478	21070
880.605	21119
880.732	21108
880.859	21363
880.986	21207
881.112	21218
881.239	21062
881.366	20933
881.493	20921
881.619	20807
881.746	20693
881.872	20773
881.999	20724
882.125	20674
882.252	20705
882.378	20712
882.505	20876
882.631	20625
882.757	20511
882.883	20648
883.01	20385
883.136	20518
883.262	20431
883.388	20469
883.514	20423
883.64	20507
883.766	20499
883.892	20271
884.018	20271
884.143	20423
884.269	20579
884.395	20267
884.52	20259
884.646	20195
884.772	20008
884.897	20077
885.023	20278
885.148	20347
885.274	20351
885.399	20149
885.524	20107
885.65	20168
885.775	20301
885.9	20069
886.025	20259
886.15	20119
886.275	20111
886.4	20050
886.525	20122
886.65	20119
886.775	20020
886.9	20199
887.025	20271
887.149	20039
887.274	19932
887.399	19871
887.523	19811
887.648	19811
887.773	19830
887.897	20054
888.021	20012
888.146	19795
888.27	20058
888.395	20054
888.519	19986
888.643	19959
888.767	19864
888.891	19776
889.015	19666
889.139	19784
889.263	19738
889.387	19731
889.511	19906
889.635	19890
889.759	19685
889.883	19594
890.006	19765
890.13	19811
890.254	19613
890.377	19559
890.501	19358
890.624	19331
890.748	19441
890.871	19388
890.995	19304
891.118	19274
891.241	19350
891.364	19301
891.488	19301
891.611	19289
891.734	19263
891.857	19244
891.98	19331
892.103	19343
892.226	19213
892.349	19293
892.471	19103
892.594	19247
892.717	19236
892.839	19175
892.962	19076
893.085	19240
893.207	19225
893.33	19046
893.452	19053
893.575	19168
893.697	19198
893.819	19293
893.941	19403
894.064	19244
894.186	19133
894.308	19137
894.43	19221
894.552	19320
894.674	19228
894.796	19103
894.918	19118
895.04	19133
895.161	19122
895.283	19278
895.405	19148
895.526	19236
895.648	19198
895.769	19221
895.891	19316
896.012	19240
896.134	19320
896.255	19240
896.376	19297
896.498	19228
896.619	19297
896.74	19297
896.861	19270
896.982	19578
897.103	19700
897.224	19525
897.345	19426
897.466	19476
897.587	19457
897.708	19575
897.828	19582
897.949	19468
898.07	19266
898.19	19354
898.311	19521
898.431	19369
898.552	19327
898.672	19502
898.792	19514
898.913	19419
899.033	19384
899.153	19175
899.273	19148
899.393	19187
899.513	19221
899.633	19118
899.753	19202
899.873	19042
899.993	19209
900.113	19099
900.232	19110
900.352	19236
900.472	19072
900.591	18916
900.711	18878
900.83	18916
900.95	19129
901.069	19015
901.189	18833
901.308	18787
901.427	18692
901.546	18677
901.665	18646
901.784	18646
901.904	18589
902.023	18346
902.141	18144
902.26	18091
902.379	18155
902.498	18079
902.617	18034
902.735	18140
902.854	18045
902.973	18057
903.091	17729
903.21	17775
903.328	17760
903.446	17649
903.565	17577
903.683	17528
903.801	17543
903.919	17596
904.038	17604
904.156	17250
904.274	17425
904.392	17254
904.51	17383
904.627	17254
904.745	17395
904.863	17433
904.981	17140
905.098	16984
905.216	16999
905.334	16995
905.451	16976
905.569	17052
905.686	16972
905.803	16862
905.921	16828
906.038	16896
906.155	16831
906.272	16687
906.389	16748
906.506	16577
906.623	16546
906.74	16512
906.857	16344
906.974	16470
907.091	16554
907.208	16577
907.324	16512
907.441	16478
907.557	16246
907.674	16192
907.79	16207
907.907	16207
908.023	16234
908.139	16257
908.256	16196
908.372	16097
908.488	16112
908.604	15899
908.72	15838
908.836	15915
908.952	15884
909.068	15915
909.184	15968
909.3	15964
909.415	15865
909.531	15968
909.647	15599
909.762	15644
909.878	15603
909.993	15663
910.108	15652
910.224	15656
910.339	15610
910.454	15435
910.57	15511
910.685	15298
910.8	15557
910.915	15549
911.03	15458
911.145	15249
911.259	15218
911.374	15245
911.489	15135
911.604	15146
911.718	14811
911.833	15062
911.947	14868
912.062	14807
912.176	14887
912.291	14921
912.405	14891
912.519	15176
912.633	15074
912.748	15009
912.862	14933
912.976	14826
913.09	14682
913.204	14705
913.318	14750
913.431	14785
913.545	14868
913.659	14815
913.772	14769
913.886	14746
914	14583
914.113	14632
914.226	14720
914.34	14697
914.453	14579
914.566	14598
914.68	14511
914.793	14400
914.906	14355
915.019	14218
915.132	14313
915.245	14256
915.358	14332
915.47	14214
915.583	14267
915.696	14259
915.809	14408
915.921	14473
916.034	14301
916.146	14058
916.259	14088
916.371	14237
916.483	14126
916.595	14126
916.708	14111
916.82	14020
916.932	14065
917.044	14134
917.156	14077
917.268	13818
917.38	13974
917.491	13902
917.603	13986
917.715	13963
917.826	13967
917.938	13887
918.049	13731
918.161	13864
918.272	14008
918.384	13913
918.495	13860
918.606	13795
918.717	13594
918.828	13750
918.939	13712
919.05	13476
919.161	13639
919.272	13392
919.383	13548
919.494	13624
919.604	13780
919.715	13708
919.826	13597
919.936	13521
920.047	13723
920.157	13674
920.267	13833
920.378	13723
920.488	13590
920.598	13784
920.708	13894
920.818	13807
920.928	13757
921.038	13917
921.148	13890
921.258	13594
921.368	13499
921.477	13483
921.587	13381
921.697	13339
921.806	13426
921.916	13278
922.025	13118
922.134	13038
922.244	12996
922.353	13065
922.462	13004
922.571	12776
922.68	12734
922.789	12684
922.898	12779
923.007	12612
923.116	12681
923.224	12688
923.333	12631
923.442	12559
923.55	12555
923.659	12551
923.767	12585
923.876	12532
923.984	12669
924.092	12391
924.201	12483
924.309	12407
924.417	12464
924.525	12342
924.633	12350
924.741	13141
924.849	12308
924.956	12376
925.064	12247
925.172	12098
925.279	12091
925.387	12209
925.494	12197
925.602	12258
925.709	12175
925.816	12125
925.924	12121
926.031	12178
926.138	12087
926.245	12213
926.352	12045
926.459	12140
926.566	12247
926.673	12045
926.779	11969
926.886	11927
926.993	11802
927.099	11748
927.206	11630
927.312	11707
927.419	11767
927.525	11718
927.631	11752
927.737	11707
927.843	11493
927.95	11516
928.056	11551
928.162	11562
928.267	11619
928.373	12163
928.479	11680
928.585	11474
928.69	11505
928.796	11642
928.901	11425
929.007	11258
929.112	11414
929.218	11356
929.323	11334
929.428	11299
929.533	11417
929.638	11280
929.743	11303
929.848	11265
929.953	11250
930.058	11162
930.163	10961
930.267	11094
930.372	11223
930.477	11052
930.581	11242
930.685	11037
930.79	10999
930.894	10915
930.998	10839
931.103	11033
931.207	10687
931.311	10569
931.415	10474
931.519	10314
931.623	10337
