Data from test_V78500241_1292.txt Node
Date: Fri Mar 25 15:18:51 CST 2022
User: usil
Spectrometer: V785-0024
Trigger mode: 0
Integration Time (sec): 4.000000E-1
Scans to average: 1
Nonlinearity correction enabled: false
Boxcar width: 0
Storing dark spectrum: false
XAxis mode: Wavelengths
Number of Pixels in Spectrum: 1024
>>>>>Begin Spectral Data<<<<<
801.071	28150
801.214	28093
801.356	27903
801.499	27747
801.641	27675
801.783	27694
801.926	27812
802.068	27713
802.211	27656
802.353	27530
802.496	27359
802.638	27272
802.78	27294
802.923	27195
803.065	27207
803.208	27268
803.35	27310
803.492	27526
803.635	27523
803.777	27416
803.919	27576
804.061	27766
804.204	27492
804.346	27496
804.488	27583
804.63	27462
804.773	27431
804.915	27610
805.057	27690
805.199	27523
805.341	27690
805.483	27698
805.626	27682
805.768	27389
805.91	27739
806.052	27625
806.194	27534
806.336	27762
806.478	27675
806.62	27667
806.762	27739
806.904	27922
807.046	28246
807.188	28169
807.33	28139
807.472	28188
807.614	28025
807.756	28040
807.898	27945
808.04	27911
808.182	28040
808.324	28086
808.465	28036
808.607	28112
808.749	28192
808.891	28440
809.033	28489
809.174	28314
809.316	28306
809.458	28261
809.6	28352
809.741	28337
809.883	28451
810.025	28687
810.166	28679
810.308	28599
810.45	28607
810.591	28542
810.733	28360
810.875	28363
811.016	28139
811.158	28257
811.299	28409
811.441	28386
811.582	28379
811.724	28352
811.865	28341
812.007	28424
812.148	28352
812.29	28356
812.431	28557
812.573	28675
812.714	28797
812.855	28866
812.997	28908
813.138	29052
813.279	29124
813.421	28908
813.562	28828
813.703	28721
813.845	28573
813.986	28356
814.127	28051
814.268	28067
814.41	28055
814.551	27968
814.692	28036
814.833	27899
814.974	28013
815.115	27956
815.256	27812
815.397	27793
815.539	27949
815.68	27926
815.821	27633
815.962	27793
816.103	27911
816.244	27778
816.385	27637
816.526	27545
816.666	27660
816.807	27294
816.948	27416
817.089	27393
817.23	27294
817.371	27268
817.512	27317
817.653	27298
817.793	27325
817.934	27192
818.075	27462
818.216	27329
818.356	27310
818.497	27214
818.638	27039
818.778	27100
818.919	27051
819.06	27096
819.2	27275
819.341	27359
819.481	27416
819.622	27500
819.762	27732
819.903	27591
820.043	27583
820.184	27443
820.324	27306
820.465	27507
820.605	27416
820.746	27367
820.886	27272
821.026	27443
821.167	27374
821.307	27511
821.447	27321
821.588	27195
821.728	27116
821.868	27020
822.008	26872
822.149	26811
822.289	26773
822.429	26579
822.569	26457
822.709	26526
822.849	26278
822.99	26377
823.13	26377
823.27	26218
823.41	26149
823.55	26065
823.69	26161
823.83	26244
823.97	26081
824.11	25993
824.25	25868
824.389	26084
824.529	26039
824.669	25947
824.809	26096
824.949	26039
825.089	26126
825.228	25860
825.368	25811
825.508	25833
825.648	25902
825.787	25818
825.927	25864
826.067	25837
826.206	25803
826.346	25830
826.485	25932
826.625	25780
826.765	25970
826.904	25830
827.044	25674
827.183	25670
827.323	25635
827.462	25693
827.601	25544
827.741	25544
827.88	25514
828.02	25445
828.159	25521
828.298	25453
828.437	25597
828.577	25647
828.716	25822
828.855	25453
828.994	25335
829.134	25354
829.273	25362
829.412	25377
829.551	25183
829.69	25365
829.829	25384
829.968	25499
830.107	25415
830.246	25373
830.385	25259
830.524	25251
830.663	25190
830.802	25012
830.941	24901
831.08	24837
831.219	24981
831.357	25027
831.496	25050
831.635	24798
831.774	24802
831.913	24924
832.051	24688
832.19	24703
832.329	24787
832.467	24593
832.606	24570
832.744	24692
832.883	24570
833.022	24490
833.16	24753
833.299	24650
833.437	24646
833.576	24631
833.714	24475
833.852	24734
833.991	24696
834.129	24620
834.267	24806
834.406	24601
834.544	24730
834.682	24582
834.821	24566
834.959	24738
835.097	24601
835.235	24654
835.373	24669
835.511	24528
835.65	24536
835.788	24544
835.926	24429
836.064	24262
836.202	24296
836.34	24517
836.478	24608
836.615	24437
836.753	24490
836.891	24441
837.029	24498
837.167	24574
837.305	24357
837.443	24353
837.58	24319
837.718	24327
837.856	24311
837.993	24281
838.131	24338
838.269	24182
838.406	24258
838.544	24064
838.681	24011
838.819	23885
838.956	23817
839.094	23714
839.231	23878
839.369	23977
839.506	24182
839.643	23969
839.781	23691
839.918	23741
840.055	23779
840.193	23794
840.33	23737
840.467	23745
840.604	23722
840.742	23961
840.879	23619
841.016	23710
841.153	23539
841.29	23859
841.427	23684
841.564	23608
841.701	23638
841.838	23600
841.975	23577
842.112	23592
842.249	23566
842.385	23482
842.522	23726
842.659	23528
842.796	23356
842.933	23410
843.069	23383
843.206	23330
843.343	23459
843.479	23467
843.616	23455
843.752	23079
843.889	23189
844.025	23307
844.162	23143
844.298	23417
844.435	23181
844.571	23212
844.708	23193
844.844	23379
844.98	23299
845.117	23383
845.253	23155
845.389	22984
845.525	23143
845.661	23052
845.798	23029
845.934	23071
846.07	22953
846.206	23102
846.342	23098
846.478	22911
846.614	22759
846.75	22634
846.886	22656
847.022	22801
847.158	22637
847.294	22603
847.429	22630
847.565	22801
847.701	22908
847.837	22466
847.972	22519
848.108	22428
848.244	22367
848.379	22394
848.515	22246
848.65	22211
848.786	22360
848.921	22287
849.057	22405
849.192	22337
849.328	22314
849.463	22196
849.598	22207
849.734	22322
849.869	22105
850.004	22086
850.14	21956
850.275	22074
850.41	21907
850.545	22032
850.68	21968
850.815	21991
850.95	21949
851.085	22139
851.22	22291
851.355	22021
851.49	22002
851.625	21998
851.76	22048
851.895	22074
852.03	21880
852.165	22017
852.299	22128
852.434	22032
852.569	22078
852.703	22086
852.838	22112
852.973	22173
853.107	22131
853.242	22070
853.376	21838
853.511	21812
853.645	21762
853.78	21808
853.914	21953
854.048	21739
854.183	21797
854.317	21895
854.451	22150
854.585	21762
854.72	21857
854.854	22013
854.988	21903
855.122	21865
855.256	21751
855.39	21785
855.524	21785
855.658	21800
855.792	21854
855.926	21907
856.06	21831
856.194	21907
856.327	21994
856.461	21915
856.595	21736
856.729	21800
856.862	21987
856.996	21918
857.13	21789
857.263	21937
857.397	21888
857.53	21778
857.664	21918
857.797	21903
857.931	21930
858.064	21816
858.197	21983
858.331	21895
858.464	21770
858.597	21736
858.731	21728
858.864	21759
858.997	21781
859.13	21880
859.263	21835
859.396	21926
859.529	21778
859.662	21652
859.795	21846
859.928	21915
860.061	22036
860.194	21937
860.327	21892
860.46	21835
860.592	22036
860.725	22105
860.858	21869
860.99	21899
861.123	21808
861.256	21819
861.388	21831
861.521	22641
861.653	21720
861.786	21728
861.918	21644
862.05	21785
862.183	21728
862.315	21785
862.447	21842
862.58	21705
862.712	21587
862.844	21500
862.976	21660
863.108	21576
863.24	21945
863.372	21515
863.504	21587
863.636	21515
863.768	21553
863.9	21587
864.032	21469
864.164	21519
864.296	21523
864.428	21667
864.559	21595
864.691	21667
864.823	21500
864.954	21454
865.086	21564
865.217	21439
865.349	21256
865.48	21283
865.612	21450
865.743	21534
865.875	21462
866.006	21428
866.137	21420
866.269	21428
866.4	21382
866.531	21310
866.662	21378
866.793	21313
866.924	21340
867.055	21401
867.186	21405
867.317	21329
867.448	21252
867.579	21279
867.71	21310
867.841	21283
867.972	21412
868.103	21370
868.233	21291
868.364	21431
868.495	21466
868.625	21530
868.756	21686
868.886	21564
869.017	21682
869.147	21603
869.278	21603
869.408	21572
869.539	21492
869.669	21743
869.799	21637
869.929	21682
870.06	21667
870.19	21911
870.32	21838
870.45	21819
870.58	21968
870.71	21964
870.84	22048
870.97	21968
871.1	21960
871.23	22158
871.36	22097
871.489	22032
871.619	22128
871.749	22135
871.879	22154
872.008	22379
872.138	22166
872.267	22196
872.397	21972
872.526	22044
872.656	22116
872.785	22002
872.915	22234
873.044	22314
873.173	22211
873.303	22303
873.432	22131
873.561	22284
873.69	22284
873.819	22284
873.948	22238
874.077	22257
874.206	22272
874.335	22200
874.464	22367
874.593	22390
874.722	22386
874.851	22485
874.979	22550
875.108	22398
875.237	22337
875.365	22363
875.494	22299
875.623	22398
875.751	22371
875.88	22535
876.008	22622
876.136	22668
876.265	22752
876.393	22873
876.521	22877
876.65	22961
876.778	22801
876.906	22748
877.034	22759
877.162	22729
877.29	22645
877.418	22904
877.546	22908
877.674	22691
877.802	22793
877.93	22752
878.058	22793
878.185	22618
878.313	22771
878.441	22755
878.568	22622
878.696	22569
878.824	22801
878.951	22858
879.079	23003
879.206	23056
879.333	22881
879.461	22771
879.588	22930
879.715	22889
879.842	23174
879.97	22698
880.097	22577
880.224	22577
880.351	22653
880.478	22649
880.605	22573
880.732	22531
880.859	22866
880.986	22516
881.112	22672
881.239	22481
881.366	22325
881.493	22242
881.619	22276
881.746	22116
881.872	22185
881.999	22078
882.125	22093
882.252	22097
882.378	22265
882.505	22158
882.631	22025
882.757	21835
882.883	22048
883.01	21831
883.136	21861
883.262	21682
883.388	21663
883.514	21857
883.64	21911
883.766	21842
883.892	21576
884.018	21572
884.143	21728
884.269	21846
884.395	21663
884.52	21435
884.646	21515
884.772	21329
884.897	21473
885.023	21526
885.148	21583
885.274	21610
885.399	21587
885.524	21439
885.65	21538
885.775	21458
885.9	21348
886.025	21663
886.15	21523
886.275	21492
886.4	21332
886.525	21462
886.65	21348
886.775	21313
886.9	21587
887.025	21705
887.149	21481
887.274	21306
887.399	21336
887.523	21313
887.648	21245
887.773	21100
887.897	21302
888.021	21393
888.146	21237
888.27	21317
888.395	21207
888.519	21298
888.643	21310
888.767	21260
888.891	21218
889.015	20998
889.139	21032
889.263	21043
889.387	21138
889.511	21207
889.635	21237
889.759	20944
889.883	20929
890.006	21058
890.13	21119
890.254	20948
890.377	20971
890.501	20682
890.624	20720
890.748	20861
890.871	20689
890.995	20663
891.118	20507
891.241	20522
891.364	20659
891.488	20765
891.611	20613
891.734	20651
891.857	20663
891.98	20583
892.103	20613
892.226	20625
892.349	20541
892.471	20446
892.594	20461
892.717	20571
892.839	20480
892.962	20530
893.085	20560
893.207	20492
893.33	20415
893.452	20351
893.575	20545
893.697	20514
893.819	20454
893.941	20746
894.064	20674
894.186	20461
894.308	20400
894.43	20594
894.552	20655
894.674	20716
894.796	20366
894.918	20514
895.04	20408
895.161	20564
895.283	20461
895.405	20408
895.526	20511
895.648	20377
895.769	20484
895.891	20469
896.012	20507
896.134	20530
896.255	20499
896.376	20320
896.498	20503
896.619	20434
896.74	20488
896.861	20461
896.982	20785
897.103	20948
897.224	20765
897.345	20689
897.466	20678
897.587	20659
897.708	20830
897.828	20781
897.949	20621
898.07	20602
898.19	20617
898.311	20727
898.431	20556
898.552	20708
898.672	20800
898.792	20731
898.913	20724
899.033	20621
899.153	20537
899.273	20377
899.393	20446
899.513	20396
899.633	20457
899.753	20438
899.873	20381
899.993	20415
900.113	20423
900.232	20400
900.352	20267
900.472	20286
900.591	20172
900.711	20195
900.83	20206
900.95	20252
901.069	20278
901.189	20092
901.308	19913
901.427	19932
901.546	19780
901.665	19795
901.784	19830
901.904	19715
902.023	19502
902.141	19400
902.26	19274
902.379	19381
902.498	19270
902.617	19232
902.735	19251
902.854	19213
902.973	19187
903.091	18878
903.21	18970
903.328	18886
903.446	18821
903.565	18734
903.683	18749
903.801	18658
903.919	18722
904.038	18601
904.156	18540
904.274	18658
904.392	18494
904.51	18574
904.627	18456
904.745	18528
904.863	18551
904.981	18323
905.098	18213
905.216	17988
905.334	18167
905.451	18243
905.569	18209
905.686	18209
905.803	18171
905.921	17992
906.038	18083
906.155	17923
906.272	17935
906.389	17893
906.506	17668
906.623	17805
906.74	17687
906.857	17562
906.974	17653
907.091	17760
907.208	17912
907.324	17752
907.441	17722
907.557	17459
907.674	17474
907.79	17379
907.907	17490
908.023	17452
908.139	17455
908.256	17341
908.372	17368
908.488	17353
908.604	17197
908.72	17151
908.836	17178
908.952	17136
909.068	17193
909.184	17250
909.3	17090
909.415	17227
909.531	17147
909.647	16881
909.762	16854
909.878	16820
909.993	16892
910.108	16809
910.224	16820
910.339	16911
910.454	16645
910.57	16694
910.685	16679
910.8	16889
910.915	16755
911.03	16634
911.145	16462
911.259	16478
911.374	16424
911.489	16360
911.604	16325
911.718	16268
911.833	16105
911.947	16006
912.062	15960
912.176	16128
912.291	16177
912.405	16215
912.519	16363
912.633	16428
912.748	16200
912.862	16280
912.976	15975
913.09	15831
913.204	15926
913.318	16021
913.431	16090
913.545	16082
913.659	16105
913.772	15960
913.886	15869
914	15838
914.113	15880
914.226	15899
914.34	15903
914.453	15736
914.566	15819
914.68	15732
914.793	15667
914.906	15485
915.019	15389
915.132	15355
915.245	15466
915.358	15538
915.47	15408
915.583	15454
915.696	15439
915.809	15488
915.921	15458
916.034	15359
916.146	15233
916.259	15294
916.371	15428
916.483	15272
916.595	15283
916.708	15249
916.82	15161
916.932	15157
917.044	15195
917.156	15066
917.268	15150
917.38	15093
917.491	15070
917.603	15024
917.715	15070
917.826	15150
917.938	14956
918.049	14952
918.161	15024
918.272	15066
918.384	15146
918.495	14941
918.606	14872
918.717	14731
918.828	14883
918.939	14880
919.05	14663
919.161	14727
919.272	14610
919.383	14659
919.494	14902
919.604	14929
919.715	14708
919.826	14648
919.936	14777
920.047	14800
920.157	14788
920.267	14941
920.378	14686
920.488	14712
920.598	14941
920.708	15020
920.818	15001
920.928	14842
921.038	14990
921.148	15001
921.258	14640
921.368	14640
921.477	14545
921.587	14404
921.697	14313
921.806	14495
921.916	14259
922.025	14191
922.134	14134
922.244	14084
922.353	14126
922.462	14016
922.571	13986
922.68	13833
922.789	13757
922.898	13830
923.007	13727
923.116	13738
923.224	13776
923.333	13689
923.442	13578
923.55	13483
923.659	13563
923.767	13670
923.876	13487
923.984	13674
924.092	13594
924.201	13506
924.309	13499
924.417	13411
924.525	13381
924.633	13445
924.741	14278
924.849	13126
924.956	13396
925.064	13126
925.172	13069
925.279	13088
925.387	13247
925.494	13168
925.602	13244
925.709	13259
925.816	13050
925.924	13084
926.031	13171
926.138	13114
926.245	13198
926.352	13072
926.459	13076
926.566	13187
926.673	13069
926.779	12913
926.886	12878
926.993	12783
927.099	12741
927.206	12681
927.312	12608
927.419	12791
927.525	12738
927.631	12783
927.737	12559
927.843	12547
927.95	12445
928.056	12536
928.162	12593
928.267	12677
928.373	13190
928.479	12601
928.585	12391
928.69	12445
928.796	12494
928.901	12342
929.007	12346
929.112	12422
929.218	12292
929.323	12391
929.428	12262
929.533	12429
929.638	12144
929.743	12239
929.848	12110
929.953	12220
930.058	12087
930.163	11942
930.267	11996
930.372	12106
930.477	11897
930.581	12159
930.685	11923
930.79	11767
930.894	11813
930.998	11703
931.103	11893
931.207	11581
931.311	11474
931.415	11402
931.519	11170
931.623	11201
