Data from test_V78500241_2092.txt Node
Date: Fri Mar 25 15:24:25 CST 2022
User: usil
Spectrometer: V785-0024
Trigger mode: 0
Integration Time (sec): 4.000000E-1
Scans to average: 1
Nonlinearity correction enabled: false
Boxcar width: 0
Storing dark spectrum: false
XAxis mode: Wavelengths
Number of Pixels in Spectrum: 1024
>>>>>Begin Spectral Data<<<<<
801.071	27914
801.214	27934
801.356	27481
801.499	27511
801.641	27348
801.783	27454
801.926	27507
802.068	27321
802.211	27241
802.353	27317
802.496	27062
802.638	27085
802.78	26975
802.923	26940
803.065	26735
803.208	26986
803.35	27108
803.492	27108
803.635	27051
803.777	27062
803.919	27249
804.061	27622
804.204	27424
804.346	27195
804.488	27123
804.63	27351
804.773	27272
804.915	27245
805.057	27291
805.199	27195
805.341	27245
805.483	27287
805.626	27496
805.768	27207
805.91	27378
806.052	27363
806.194	27462
806.336	27637
806.478	27268
806.62	27344
806.762	27481
806.904	27637
807.046	27911
807.188	27633
807.33	27705
807.472	27895
807.614	27599
807.756	27869
807.898	27755
808.04	27618
808.182	27682
808.324	27728
808.465	27663
808.607	27926
808.749	27998
808.891	28139
809.033	28166
809.174	27991
809.316	28116
809.458	28017
809.6	27937
809.741	28097
809.883	28044
810.025	28299
810.166	28363
810.308	28284
810.45	28131
810.591	28192
810.733	28067
810.875	27926
811.016	27884
811.158	27926
811.299	27964
811.441	28101
811.582	28215
811.724	27987
811.865	28063
812.007	27945
812.148	27945
812.29	28021
812.431	28017
812.573	28459
812.714	28607
812.855	28432
812.997	28504
813.138	28866
813.279	28664
813.421	28599
813.562	28485
813.703	28325
813.845	28162
813.986	27861
814.127	27846
814.268	27804
814.41	27861
814.551	27641
814.692	27660
814.833	27606
814.974	27625
815.115	27747
815.256	27397
815.397	27580
815.539	27507
815.68	27427
815.821	27420
815.962	27458
816.103	27378
816.244	27348
816.385	27374
816.526	27112
816.666	27169
816.807	27009
816.948	27058
817.089	27081
817.23	27055
817.371	26975
817.512	26998
817.653	26944
817.793	26838
817.934	26902
818.075	26929
818.216	27047
818.356	26956
818.497	26769
818.638	26758
818.778	26648
818.919	26621
819.06	27020
819.2	26952
819.341	27051
819.481	27013
819.622	27264
819.762	27348
819.903	27241
820.043	27184
820.184	27096
820.324	27169
820.465	27180
820.605	26967
820.746	26952
820.886	26899
821.026	27093
821.167	27062
821.307	27100
821.447	27188
821.588	26845
821.728	26777
821.868	26667
822.008	26476
822.149	26427
822.289	26385
822.429	26100
822.569	26183
822.709	26191
822.849	25989
822.99	25921
823.13	26077
823.27	25894
823.41	25693
823.55	25674
823.69	25643
823.83	25788
823.97	25639
824.11	25681
824.25	25479
824.389	25400
824.529	25571
824.669	25518
824.809	25628
824.949	25670
825.089	25746
825.228	25677
825.368	25430
825.508	25415
825.648	25422
825.787	25499
825.927	25552
826.067	25468
826.206	25392
826.346	25506
826.485	25563
826.625	25460
826.765	25510
826.904	25449
827.044	25331
827.183	25221
827.323	25126
827.462	25346
827.601	25213
827.741	25095
827.88	25232
828.02	25114
828.159	25099
828.298	25145
828.437	25251
828.577	25152
828.716	25209
828.855	25061
828.994	24875
829.134	24928
829.273	24935
829.412	24989
829.551	24833
829.69	24787
829.829	24795
829.968	24939
830.107	24863
830.246	24985
830.385	24798
830.524	24909
830.663	24707
830.802	24700
830.941	24608
831.08	24521
831.219	24452
831.357	24464
831.496	24658
831.635	24479
831.774	24429
831.913	24342
832.051	24209
832.19	24182
832.329	24273
832.467	24258
832.606	24098
832.744	24030
832.883	24129
833.022	24003
833.16	24292
833.299	24171
833.437	24201
833.576	24235
833.714	24205
833.852	24201
833.991	24209
834.129	24239
834.267	24213
834.406	24216
834.544	24224
834.682	24159
834.821	24133
834.959	24369
835.097	24140
835.235	24178
835.373	24186
835.511	24140
835.65	23927
835.788	23973
835.926	23958
836.064	23855
836.202	23988
836.34	24034
836.478	24270
836.615	23969
836.753	23931
836.891	24068
837.029	23965
837.167	24015
837.305	23912
837.443	23935
837.58	23889
837.718	24117
837.856	23805
837.993	23836
838.131	23866
838.269	23733
838.406	23878
838.544	23745
838.681	23379
838.819	23554
838.956	23448
839.094	23330
839.231	23345
839.369	23478
839.506	23745
839.643	23623
839.781	23288
839.918	23235
840.055	23349
840.193	23360
840.33	23284
840.467	23174
840.604	23296
840.742	23452
840.879	23109
841.016	23132
841.153	23006
841.29	23387
841.427	23220
841.564	23315
841.701	23269
841.838	23212
841.975	23166
842.112	23006
842.249	23010
842.385	22904
842.522	23315
842.659	23143
842.796	22965
842.933	23083
843.069	22919
843.206	23102
843.343	23132
843.479	23006
843.616	23170
843.752	22809
843.889	22820
844.025	22881
844.162	22740
844.298	22930
844.435	22771
844.571	22828
844.708	22854
844.844	22858
844.98	22831
845.117	22854
845.253	22736
845.389	22691
845.525	22691
845.661	22763
845.798	22493
845.934	22637
846.07	22607
846.206	22451
846.342	22713
846.478	22447
846.614	22265
846.75	22207
846.886	22325
847.022	22303
847.158	22261
847.294	22314
847.429	22230
847.565	22230
847.701	22443
847.837	21937
847.972	21922
848.108	22032
848.244	22063
848.379	21888
848.515	21835
848.65	21831
848.786	21865
848.921	21812
849.057	21937
849.192	21846
849.328	21808
849.463	21800
849.598	21808
849.734	21732
849.869	21705
850.004	21633
850.14	21686
850.275	21728
850.41	21583
850.545	21534
850.68	21648
850.815	21545
850.95	21530
851.085	21736
851.22	21644
851.355	21557
851.49	21587
851.625	21557
851.76	21450
851.895	21462
852.03	21515
852.165	21511
852.299	21568
852.434	21583
852.569	21526
852.703	21572
852.838	21538
852.973	21797
853.107	21701
853.242	21504
853.376	21435
853.511	21325
853.645	21397
853.78	21587
853.914	21477
854.048	21351
854.183	21344
854.317	21549
854.451	21595
854.585	21374
854.72	21530
854.854	21348
854.988	21348
855.122	21428
855.256	21386
855.39	21348
855.524	21439
855.658	21401
855.792	21386
855.926	21359
856.06	21507
856.194	21595
856.327	21428
856.461	21302
856.595	21370
856.729	21439
856.862	21549
856.996	21488
857.13	21439
857.263	21466
857.397	21447
857.53	21348
857.664	21443
857.797	21477
857.931	21542
858.064	21401
858.197	21557
858.331	21359
858.464	21313
858.597	21321
858.731	21302
858.864	21344
858.997	21378
859.13	21450
859.263	21420
859.396	21511
859.529	21302
859.662	21340
859.795	21485
859.928	21431
860.061	21660
860.194	21675
860.327	21408
860.46	21401
860.592	21492
860.725	21545
860.858	21545
860.99	21515
861.123	21466
861.256	21313
861.388	21389
861.521	22013
861.653	21291
861.786	21184
861.918	21131
862.05	21256
862.183	21363
862.315	21317
862.447	21443
862.58	21329
862.712	21047
862.844	21024
862.976	21188
863.108	21169
863.24	21439
863.372	20990
863.504	21192
863.636	21138
863.768	21165
863.9	21085
864.032	21135
864.164	21070
864.296	21100
864.428	21241
864.559	21218
864.691	21123
864.823	21135
864.954	21173
865.086	21093
865.217	21085
865.349	20883
865.48	20956
865.612	21081
865.743	21100
865.875	21036
866.006	21093
866.137	21085
866.269	20872
866.4	20944
866.531	21055
866.662	20891
866.793	20758
866.924	20891
867.055	20887
867.186	21108
867.317	20883
867.448	20880
867.579	20906
867.71	20826
867.841	20842
867.972	20914
868.103	20956
868.233	20925
868.364	20944
868.495	20921
868.625	21241
868.756	21260
868.886	21017
869.017	21165
869.147	21298
869.278	21306
869.408	21260
869.539	21066
869.669	21260
869.799	21199
869.929	21294
870.06	21355
870.19	21496
870.32	21523
870.45	21435
870.58	21549
870.71	21751
870.84	21648
870.97	21591
871.1	21564
871.23	21724
871.36	21686
871.489	21686
871.619	21717
871.749	21739
871.879	21667
872.008	21907
872.138	21850
872.267	21690
872.397	21625
872.526	21629
872.656	21717
872.785	21557
872.915	21789
873.044	21827
873.173	21892
873.303	21842
873.432	21846
873.561	21960
873.69	21797
873.819	21747
873.948	21831
874.077	21743
874.206	21717
874.335	21899
874.464	21876
874.593	22021
874.722	21926
874.851	22044
874.979	22029
875.108	22135
875.237	21926
875.365	21854
875.494	21991
875.623	22185
875.751	21884
875.88	21975
876.008	22128
876.136	22246
876.265	22329
876.393	22470
876.521	22603
876.65	22557
876.778	22440
876.906	22348
877.034	22322
877.162	22249
877.29	22447
877.418	22303
877.546	22291
877.674	22261
877.802	22512
877.93	22337
878.058	22386
878.185	22238
878.313	22363
878.441	22318
878.568	22131
878.696	22375
878.824	22367
878.951	22356
879.079	22436
879.206	22584
879.333	22626
879.461	22478
879.588	22367
879.715	22413
879.842	22645
879.97	22394
880.097	22166
880.224	22147
880.351	22253
880.478	22234
880.605	22120
880.732	22223
880.859	22470
880.986	22219
881.112	22211
881.239	22032
881.366	22002
881.493	21789
881.619	21846
881.746	21785
881.872	21736
881.999	21739
882.125	21736
882.252	21808
882.378	21739
882.505	21930
882.631	21747
882.757	21485
882.883	21568
883.01	21534
883.136	21458
883.262	21412
883.388	21237
883.514	21416
883.64	21450
883.766	21275
883.892	21237
884.018	21252
884.143	21488
884.269	21393
884.395	21222
884.52	21055
884.646	21165
884.772	21157
884.897	21070
885.023	20979
885.148	21275
885.274	21203
885.399	21085
885.524	21047
885.65	21108
885.775	21085
885.9	21047
886.025	21169
886.15	21230
886.275	21047
886.4	20990
886.525	21169
886.65	21108
886.775	21131
886.9	21085
887.025	21321
887.149	21047
887.274	21024
887.399	20830
887.523	20811
887.648	20921
887.773	20762
887.897	21005
888.021	20883
888.146	20716
888.27	20895
888.395	20960
888.519	20914
888.643	20899
888.767	20925
888.891	20891
889.015	20689
889.139	20705
889.263	20693
889.387	20781
889.511	20815
889.635	20853
889.759	20693
889.883	20621
890.006	20594
890.13	20731
890.254	20590
890.377	20560
890.501	20389
890.624	20362
890.748	20423
890.871	20336
890.995	20240
891.118	20282
891.241	20214
891.364	20183
891.488	20393
891.611	20282
891.734	20313
891.857	20332
891.98	20225
892.103	20317
892.226	20301
892.349	20081
892.471	20077
892.594	20134
892.717	20221
892.839	20218
892.962	20275
893.085	20119
893.207	20115
893.33	20020
893.452	20027
893.575	20275
893.697	20084
893.819	20225
893.941	20244
894.064	20313
894.186	20157
894.308	20039
894.43	20195
894.552	20332
894.674	20267
894.796	20005
894.918	20111
895.04	20134
895.161	20115
895.283	20225
895.405	19974
895.526	20240
895.648	20225
895.769	20240
895.891	20195
896.012	20275
896.134	20202
896.255	20153
896.376	20081
896.498	20088
896.619	20305
896.74	20088
896.861	20180
896.982	20522
897.103	20617
897.224	20480
897.345	20431
897.466	20286
897.587	20301
897.708	20396
897.828	20377
897.949	20248
898.07	20191
898.19	20313
898.311	20507
898.431	20271
898.552	20404
898.672	20343
898.792	20377
898.913	20355
899.033	20267
899.153	20149
899.273	20111
899.393	19986
899.513	20084
899.633	20126
899.753	20111
899.873	20016
899.993	20122
900.113	20103
900.232	20103
900.352	19982
900.472	19902
900.591	19906
900.711	19951
900.83	19864
900.95	20012
901.069	19986
901.189	19791
901.308	19510
901.427	19438
901.546	19460
901.665	19540
901.784	19544
901.904	19282
902.023	19217
902.141	19023
902.26	19065
902.379	19095
902.498	18977
902.617	19091
902.735	18958
902.854	18970
902.973	18833
903.091	18673
903.21	18715
903.328	18528
903.446	18623
903.565	18517
903.683	18551
903.801	18422
903.919	18422
904.038	18388
904.156	18239
904.274	18342
904.392	18220
904.51	18178
904.627	18121
904.745	18239
904.863	18213
904.981	18098
905.098	17901
905.216	17904
905.334	17859
905.451	17923
905.569	17802
905.686	17942
905.803	17824
905.921	17611
906.038	17741
906.155	17752
906.272	17638
906.389	17581
906.506	17398
906.623	17478
906.74	17364
906.857	17364
906.974	17337
907.091	17524
907.208	17562
907.324	17455
907.441	17322
907.557	17223
907.674	17220
907.79	17075
907.907	17117
908.023	17162
908.139	17121
908.256	17098
908.372	16968
908.488	17041
908.604	16999
908.72	16862
908.836	16942
908.952	16797
909.068	16850
909.184	16934
909.3	16892
909.415	16976
909.531	16843
909.647	16675
909.762	16512
909.878	16592
909.993	16561
910.108	16447
910.224	16428
910.339	16626
910.454	16417
910.57	16459
910.685	16268
910.8	16577
910.915	16523
911.03	16360
911.145	16211
911.259	16177
911.374	16139
911.489	16093
911.604	16017
911.718	16006
911.833	15934
911.947	15850
912.062	15770
912.176	15888
912.291	15865
912.405	15846
912.519	16093
912.633	16082
912.748	15953
912.862	15907
912.976	15679
913.09	15606
913.204	15835
913.318	15724
913.431	15705
913.545	15869
913.659	15838
913.772	15667
913.886	15492
914	15469
914.113	15629
914.226	15603
914.34	15526
914.453	15370
914.566	15648
914.68	15397
914.793	15321
914.906	15279
915.019	15135
915.132	15142
915.245	15192
915.358	15097
915.47	15142
915.583	15135
915.696	15264
915.809	15142
915.921	15268
916.034	15051
916.146	15028
916.259	14982
916.371	15097
916.483	15077
916.595	14921
916.708	14941
916.82	15032
916.932	14906
917.044	14982
917.156	14834
917.268	14815
917.38	14765
917.491	14708
917.603	14842
917.715	14811
917.826	14849
917.938	14781
918.049	14655
918.161	14682
918.272	14845
918.384	14842
918.495	14765
918.606	14568
918.717	14530
918.828	14568
918.939	14678
919.05	14404
919.161	14556
919.272	14305
919.383	14400
919.494	14530
919.604	14720
919.715	14507
919.826	14507
919.936	14442
920.047	14556
920.157	14511
920.267	14674
920.378	14568
920.488	14503
920.598	14617
920.708	14785
920.818	14613
920.928	14655
921.038	14811
921.148	14739
921.258	14415
921.368	14339
921.477	14240
921.587	14233
921.697	14073
921.806	14191
921.916	14046
922.025	13955
922.134	13967
922.244	13814
922.353	13883
922.462	13765
922.571	13719
922.68	13658
922.789	13460
922.898	13544
923.007	13449
923.116	13586
923.224	13449
923.333	13464
923.442	13320
923.55	13339
923.659	13384
923.767	13362
923.876	13251
923.984	13430
924.092	13255
924.201	13403
924.309	13282
924.417	13320
924.525	13160
924.633	13145
924.741	13970
924.849	12985
924.956	13137
925.064	12951
925.172	12894
925.279	12932
925.387	12951
925.494	12958
925.602	13027
925.709	12954
925.816	12837
925.924	12901
926.031	12970
926.138	12894
926.245	12993
926.352	12764
926.459	12856
926.566	12977
926.673	12837
926.779	12776
926.886	12673
926.993	12639
927.099	12509
927.206	12486
927.312	12460
927.419	12544
927.525	12441
927.631	12509
927.737	12357
927.843	12311
927.95	12186
928.056	12311
928.162	12475
928.267	12338
928.373	12905
928.479	12418
928.585	12167
928.69	12296
928.796	12319
928.901	12239
929.007	12007
929.112	12190
929.218	12076
929.323	12098
929.428	12057
929.533	12216
929.638	12038
929.743	11992
929.848	11984
929.953	11980
930.058	11996
930.163	11726
930.267	11775
930.372	11878
930.477	11741
930.581	11805
930.685	11783
930.79	11657
930.894	11695
930.998	11573
931.103	11786
931.207	11349
931.311	11284
931.415	11265
931.519	11045
931.623	11029
