Data from test_V78500241_685.txt Node
Date: Fri Mar 25 15:14:37 CST 2022
User: usil
Spectrometer: V785-0024
Trigger mode: 0
Integration Time (sec): 4.000000E-1
Scans to average: 1
Nonlinearity correction enabled: false
Boxcar width: 0
Storing dark spectrum: false
XAxis mode: Wavelengths
Number of Pixels in Spectrum: 1024
>>>>>Begin Spectral Data<<<<<
801.071	28082
801.214	27937
801.356	27861
801.499	27660
801.641	27785
801.783	27732
801.926	27705
802.068	27507
802.211	27545
802.353	27530
802.496	27389
802.638	27348
802.78	27272
802.923	27252
803.065	27199
803.208	27344
803.35	27287
803.492	27462
803.635	27507
803.777	27485
803.919	27534
804.061	27785
804.204	27523
804.346	27504
804.488	27378
804.63	27648
804.773	27500
804.915	27572
805.057	27690
805.199	27507
805.341	27682
805.483	27648
805.626	27652
805.768	27561
805.91	27549
806.052	27595
806.194	27576
806.336	27945
806.478	27671
806.62	27713
806.762	27854
806.904	28010
807.046	28265
807.188	28059
807.33	28166
807.472	28067
807.614	27880
807.756	28044
807.898	28082
808.04	27979
808.182	28074
808.324	27983
808.465	28044
808.607	28105
808.749	28287
808.891	28356
809.033	28436
809.174	28303
809.316	28249
809.458	28284
809.6	28424
809.741	28322
809.883	28508
810.025	28443
810.166	28683
810.308	28649
810.45	28672
810.591	28546
810.733	28504
810.875	28367
811.016	28211
811.158	28120
811.299	28535
811.441	28459
811.582	28356
811.724	28284
811.865	28325
812.007	28352
812.148	28379
812.29	28436
812.431	28653
812.573	28637
812.714	28744
812.855	28812
812.997	28862
813.138	29132
813.279	29140
813.421	28900
813.562	28991
813.703	28790
813.845	28569
813.986	28265
814.127	28120
814.268	28177
814.41	28086
814.551	28017
814.692	28090
814.833	28029
814.974	27945
815.115	28211
815.256	27823
815.397	28135
815.539	27945
815.68	27964
815.821	27861
815.962	27918
816.103	27789
816.244	27713
816.385	27686
816.526	27618
816.666	27435
816.807	27504
816.948	27370
817.089	27500
817.23	27313
817.371	27397
817.512	27340
817.653	27370
817.793	27230
817.934	27393
818.075	27275
818.216	27393
818.356	27405
818.497	27119
818.638	27043
818.778	27100
818.919	27188
819.06	27173
819.2	27188
819.341	27378
819.481	27268
819.622	27298
819.762	27625
819.903	27827
820.043	27682
820.184	27561
820.324	27481
820.465	27534
820.605	27405
820.746	27393
820.886	27412
821.026	27504
821.167	27321
821.307	27591
821.447	27378
821.588	27180
821.728	27184
821.868	26777
822.008	26720
822.149	26910
822.289	26823
822.429	26488
822.569	26507
822.709	26492
822.849	26362
822.99	26282
823.13	26221
823.27	26317
823.41	26119
823.55	26027
823.69	26164
823.83	26183
823.97	26043
824.11	25963
824.25	26024
824.389	25986
824.529	26134
824.669	25833
824.809	25982
824.949	26062
825.089	26050
825.228	25966
825.368	25807
825.508	25970
825.648	25940
825.787	26031
825.927	25974
826.067	25833
826.206	25936
826.346	25921
826.485	26016
826.625	25940
826.765	25951
826.904	25826
827.044	25605
827.183	25578
827.323	25563
827.462	25567
827.601	25620
827.741	25578
827.88	25552
828.02	25434
828.159	25620
828.298	25491
828.437	25590
828.577	25506
828.716	25696
828.855	25422
828.994	25263
829.134	25244
829.273	25369
829.412	25308
829.551	25240
829.69	25251
829.829	25312
829.968	25301
830.107	25301
830.246	25228
830.385	25179
830.524	25221
830.663	25015
830.802	25027
830.941	24852
831.08	24920
831.219	24901
831.357	24939
831.496	25038
831.635	24837
831.774	24810
831.913	24669
832.051	24601
832.19	24665
832.329	24753
832.467	24601
832.606	24505
832.744	24593
832.883	24620
833.022	24559
833.16	24563
833.299	24722
833.437	24578
833.576	24700
833.714	24715
833.852	24616
833.991	24540
834.129	24749
834.267	24627
834.406	24715
834.544	24730
834.682	24669
834.821	24517
834.959	24760
835.097	24528
835.235	24532
835.373	24612
835.511	24597
835.65	24639
835.788	24380
835.926	24224
836.064	24258
836.202	24460
836.34	24525
836.478	24460
836.615	24448
836.753	24410
836.891	24585
837.029	24494
837.167	24308
837.305	24304
837.443	24353
837.58	24372
837.718	24407
837.856	24357
837.993	24194
838.131	24262
838.269	24190
838.406	24007
838.544	24057
838.681	23958
838.819	23847
838.956	23897
839.094	23657
839.231	23840
839.369	23908
839.506	24083
839.643	23999
839.781	23756
839.918	23760
840.055	23718
840.193	23737
840.33	23722
840.467	23623
840.604	23863
840.742	23935
840.879	23611
841.016	23718
841.153	23619
841.29	23783
841.427	23589
841.564	23691
841.701	23779
841.838	23558
841.975	23395
842.112	23627
842.249	23421
842.385	23372
842.522	23547
842.659	23554
842.796	23497
842.933	23558
843.069	23467
843.206	23516
843.343	23410
843.479	23372
843.616	23417
843.752	23227
843.889	23193
844.025	23311
844.162	23231
844.298	23383
844.435	23417
844.571	23223
844.708	23166
844.844	23318
844.98	23372
845.117	23425
845.253	23105
845.389	23060
845.525	23121
845.661	23178
845.798	22980
845.934	22942
846.07	23071
846.206	22953
846.342	22976
846.478	22885
846.614	22778
846.75	22675
846.886	22668
847.022	22839
847.158	22694
847.294	22668
847.429	22755
847.565	22561
847.701	22987
847.837	22333
847.972	22367
848.108	22478
848.244	22440
848.379	22341
848.515	22242
848.65	22249
848.786	22280
848.921	22265
849.057	22428
849.192	22284
849.328	22314
849.463	22398
849.598	22280
849.734	22219
849.869	22086
850.004	22067
850.14	22021
850.275	22036
850.41	22006
850.545	21983
850.68	21903
850.815	21998
850.95	21922
851.085	22196
851.22	22169
851.355	22097
851.49	22040
851.625	22025
851.76	21975
851.895	21949
852.03	21842
852.165	22002
852.299	22051
852.434	22238
852.569	21994
852.703	22086
852.838	22112
852.973	22002
853.107	22086
853.242	22070
853.376	21888
853.511	21804
853.645	21846
853.78	21846
853.914	21720
854.048	21743
854.183	21903
854.317	21888
854.451	22017
854.585	21781
854.72	21895
854.854	21884
854.988	21747
855.122	21743
855.256	21614
855.39	21835
855.524	21895
855.658	21903
855.792	21949
855.926	21888
856.06	21812
856.194	21873
856.327	21831
856.461	21774
856.595	21739
856.729	21656
856.862	21892
856.996	22002
857.13	21975
857.263	21956
857.397	22051
857.53	21819
857.664	21949
857.797	21918
857.931	21915
858.064	21930
858.197	21895
858.331	21789
858.464	21663
858.597	21797
858.731	21804
858.864	21770
858.997	21751
859.13	21797
859.263	21789
859.396	22070
859.529	21865
859.662	21686
859.795	21713
859.928	21838
860.061	22006
860.194	22070
860.327	21934
860.46	21842
860.592	21918
860.725	21991
860.858	21983
860.99	21850
861.123	21759
861.256	21842
861.388	21873
861.521	22733
861.653	21660
861.786	21698
861.918	21675
862.05	21770
862.183	21713
862.315	21751
862.447	21816
862.58	21652
862.712	21629
862.844	21557
862.976	21549
863.108	21755
863.24	21991
863.372	21500
863.504	21469
863.636	21523
863.768	21504
863.9	21519
864.032	21523
864.164	21534
864.296	21523
864.428	21720
864.559	21545
864.691	21667
864.823	21397
864.954	21572
865.086	21458
865.217	21469
865.349	21291
865.48	21519
865.612	21420
865.743	21587
865.875	21393
866.006	21435
866.137	21511
866.269	21367
866.4	21344
866.531	21336
866.662	21336
866.793	21317
866.924	21332
867.055	21481
867.186	21458
867.317	21294
867.448	21199
867.579	21363
867.71	21241
867.841	21249
867.972	21275
868.103	21344
868.233	21370
868.364	21393
868.495	21435
868.625	21545
868.756	21580
868.886	21534
869.017	21545
869.147	21667
869.278	21713
869.408	21652
869.539	21686
869.669	21663
869.799	21606
869.929	21835
870.06	21732
870.19	21930
870.32	21819
870.45	21888
870.58	21972
870.71	22067
870.84	22101
870.97	21979
871.1	21964
871.23	22211
871.36	22318
871.489	22086
871.619	22143
871.749	22276
871.879	22207
872.008	22207
872.138	22226
872.267	22226
872.397	22055
872.526	22101
872.656	21949
872.785	22002
872.915	22234
873.044	22272
873.173	22154
873.303	22223
873.432	22238
873.561	22303
873.69	22230
873.819	22200
873.948	22253
874.077	22090
874.206	22177
874.335	22246
874.464	22360
874.593	22306
874.722	22360
874.851	22443
874.979	22459
875.108	22390
875.237	22352
875.365	22325
875.494	22356
875.623	22375
875.751	22394
875.88	22360
876.008	22569
876.136	22634
876.265	22873
876.393	22957
876.521	22850
876.65	22980
876.778	22790
876.906	22637
877.034	22653
877.162	22740
877.29	22687
877.418	22790
877.546	22869
877.674	22660
877.802	22698
877.93	22774
878.058	22683
878.185	22546
878.313	22759
878.441	22805
878.568	22569
878.696	22615
878.824	22809
878.951	22862
879.079	22881
879.206	23044
879.333	23003
879.461	22786
879.588	22904
879.715	22946
879.842	23018
879.97	22911
880.097	22618
880.224	22493
880.351	22603
880.478	22626
880.605	22523
880.732	22497
880.859	22790
880.986	22664
881.112	22569
881.239	22554
881.366	22314
881.493	22207
881.619	22166
881.746	22246
881.872	22242
881.999	22070
882.125	22055
882.252	22249
882.378	22128
882.505	22280
882.631	21918
882.757	21895
882.883	21918
883.01	21884
883.136	21774
883.262	21724
883.388	21709
883.514	21842
883.64	21823
883.766	21785
883.892	21603
884.018	21789
884.143	21751
884.269	21823
884.395	21469
884.52	21435
884.646	21515
884.772	21393
884.897	21405
885.023	21424
885.148	21564
885.274	21671
885.399	21603
885.524	21469
885.65	21447
885.775	21538
885.9	21519
886.025	21557
886.15	21435
886.275	21340
886.4	21382
886.525	21477
886.65	21435
886.775	21241
886.9	21595
887.025	21671
887.149	21401
887.274	21245
887.399	21233
887.523	21176
887.648	21150
887.773	21226
887.897	21256
888.021	21264
888.146	21294
888.27	21382
888.395	21332
888.519	21203
888.643	21226
888.767	21237
888.891	21184
889.015	21051
889.139	21104
889.263	20944
889.387	21226
889.511	21233
889.635	21127
889.759	21058
889.883	21047
890.006	21074
890.13	21108
890.254	21017
890.377	20967
890.501	20746
890.624	20765
890.748	20796
890.871	20724
890.995	20678
891.118	20571
891.241	20701
891.364	20571
891.488	20777
891.611	20613
891.734	20503
891.857	20655
891.98	20556
892.103	20648
892.226	20583
892.349	20670
892.471	20393
892.594	20438
892.717	20530
892.839	20530
892.962	20625
893.085	20499
893.207	20381
893.33	20476
893.452	20343
893.575	20545
893.697	20511
893.819	20625
893.941	20758
894.064	20629
894.186	20396
894.308	20457
894.43	20587
894.552	20568
894.674	20533
894.796	20518
894.918	20533
895.04	20518
895.161	20549
895.283	20552
895.405	20434
895.526	20549
895.648	20514
895.769	20488
895.891	20518
896.012	20545
896.134	20568
896.255	20476
896.376	20450
896.498	20412
896.619	20613
896.74	20503
896.861	20552
896.982	20804
897.103	20842
897.224	20701
897.345	20579
897.466	20606
897.587	20587
897.708	20937
897.828	20826
897.949	20533
898.07	20579
898.19	20644
898.311	20777
898.431	20621
898.552	20648
898.672	20724
898.792	20735
898.913	20727
899.033	20644
899.153	20484
899.273	20313
899.393	20495
899.513	20590
899.633	20400
899.753	20374
899.873	20404
899.993	20423
900.113	20427
900.232	20343
900.352	20377
900.472	20317
900.591	20180
900.711	20263
900.83	20138
900.95	20145
901.069	20267
901.189	20145
901.308	19974
901.427	19727
901.546	19864
901.665	19814
901.784	19723
901.904	19635
902.023	19632
902.141	19312
902.26	19308
902.379	19472
902.498	19388
902.617	19289
902.735	19316
902.854	19331
902.973	19114
903.091	18954
903.21	18973
903.328	18875
903.446	18878
903.565	18814
903.683	18791
903.801	18631
903.919	18650
904.038	18684
904.156	18627
904.274	18627
904.392	18429
904.51	18540
904.627	18566
904.745	18623
904.863	18532
904.981	18330
905.098	18174
905.216	18167
905.334	18239
905.451	18258
905.569	18098
905.686	18319
905.803	18072
905.921	18079
906.038	18129
906.155	17969
906.272	17889
906.389	17923
906.506	17729
906.623	17687
906.74	17649
906.857	17786
906.974	17600
907.091	17809
907.208	17832
907.324	17710
907.441	17722
907.557	17459
907.674	17448
907.79	17402
907.907	17444
908.023	17444
908.139	17459
908.256	17376
908.372	17398
908.488	17277
908.604	17212
908.72	17094
908.836	17166
908.952	17060
909.068	17136
909.184	17151
909.3	17235
909.415	17200
909.531	17140
909.647	16896
909.762	16892
909.878	16786
909.993	16900
910.108	16820
910.224	16771
910.339	16923
910.454	16710
910.57	16679
910.685	16656
910.8	16847
910.915	16797
911.03	16641
911.145	16470
911.259	16405
911.374	16481
911.489	16344
911.604	16405
911.718	16249
911.833	16287
911.947	16067
912.062	16040
912.176	16215
912.291	16147
912.405	16150
912.519	16398
912.633	16356
912.748	16234
912.862	16120
912.976	15983
913.09	15907
913.204	15960
913.318	15987
913.431	16074
913.545	16090
913.659	16154
913.772	15949
913.886	15857
914	15831
914.113	15876
914.226	15979
914.34	15861
914.453	15709
914.566	15846
914.68	15732
914.793	15633
914.906	15393
915.019	15393
915.132	15268
915.245	15367
915.358	15416
915.47	15450
915.583	15374
915.696	15378
915.809	15595
915.921	15561
916.034	15351
916.146	15313
916.259	15279
916.371	15431
916.483	15348
916.595	15214
916.708	15287
916.82	15184
916.932	15188
917.044	15131
917.156	15097
917.268	15081
917.38	15028
917.491	15005
917.603	15028
917.715	15108
917.826	15199
917.938	14994
918.049	14834
918.161	14979
918.272	15047
918.384	15119
918.495	14982
918.606	14807
918.717	14640
918.828	14762
918.939	14826
919.05	14720
919.161	14830
919.272	14575
919.383	14636
919.494	14830
919.604	15017
919.715	14842
919.826	14724
919.936	14682
920.047	14807
920.157	14716
920.267	14883
920.378	14743
920.488	14724
920.598	14830
920.708	15055
920.818	14853
920.928	14765
921.038	14998
921.148	15043
921.258	14693
921.368	14560
921.477	14469
921.587	14465
921.697	14317
921.806	14336
921.916	14298
922.025	14229
922.134	14191
922.244	14027
922.353	14142
922.462	13894
922.571	13944
922.68	13852
922.789	13822
922.898	13734
923.007	13723
923.116	13780
923.224	13689
923.333	13696
923.442	13674
923.55	13609
923.659	13594
923.767	13662
923.876	13559
923.984	13704
924.092	13506
924.201	13483
924.309	13480
924.417	13483
924.525	13388
924.633	13495
924.741	14164
924.849	13278
924.956	13392
925.064	13232
925.172	13175
925.279	13179
925.387	13152
925.494	13168
925.602	13331
925.709	13164
925.816	13133
925.924	13171
926.031	13114
926.138	13053
926.245	13213
926.352	12993
926.459	13160
926.566	13171
926.673	13008
926.779	12909
926.886	12932
926.993	12810
927.099	12692
927.206	12707
927.312	12730
927.419	12692
927.525	12764
927.631	12810
927.737	12620
927.843	12593
927.95	12441
928.056	12525
928.162	12509
928.267	12521
928.373	13202
928.479	12639
928.585	12357
928.69	12498
928.796	12467
928.901	12410
929.007	12273
929.112	12471
929.218	12376
929.323	12254
929.428	12285
929.533	12338
929.638	12262
929.743	12152
929.848	12285
929.953	12167
930.058	12098
930.163	11980
930.267	12030
930.372	12125
930.477	11855
930.581	12186
930.685	12034
930.79	11817
930.894	11817
930.998	11790
931.103	11984
931.207	11630
931.311	11444
931.415	11406
931.519	11235
931.623	11231
