Data from test_V78500241_2157.txt Node
Date: Fri Mar 25 15:24:52 CST 2022
User: usil
Spectrometer: V785-0024
Trigger mode: 0
Integration Time (sec): 4.000000E-1
Scans to average: 1
Nonlinearity correction enabled: false
Boxcar width: 0
Storing dark spectrum: false
XAxis mode: Wavelengths
Number of Pixels in Spectrum: 1024
>>>>>Begin Spectral Data<<<<<
801.071	27698
801.214	27633
801.356	27454
801.499	27408
801.641	27245
801.783	27203
801.926	27272
802.068	27222
802.211	27310
802.353	27077
802.496	27077
802.638	27085
802.78	26819
802.923	26861
803.065	26735
803.208	26838
803.35	26990
803.492	27032
803.635	27165
803.777	27089
803.919	27119
804.061	27306
804.204	27237
804.346	26963
804.488	26975
804.63	27180
804.773	26998
804.915	27192
805.057	27199
805.199	26925
805.341	27249
805.483	27272
805.626	27249
805.768	27127
805.91	27291
806.052	27260
806.194	26998
806.336	27378
806.478	27203
806.62	27252
806.762	27389
806.904	27382
807.046	27827
807.188	27644
807.33	27686
807.472	27781
807.614	27523
807.756	27633
807.898	27412
808.04	27424
808.182	27511
808.324	27542
808.465	27580
808.607	27766
808.749	27880
808.891	28040
809.033	27964
809.174	27857
809.316	27728
809.458	27911
809.6	27781
809.741	27945
809.883	27949
810.025	28070
810.166	28097
810.308	28082
810.45	27926
810.591	28055
810.733	27922
810.875	27873
811.016	27739
811.158	27793
811.299	27911
811.441	27842
811.582	27953
811.724	27751
811.865	27854
812.007	27743
812.148	27861
812.29	27876
812.431	28006
812.573	28063
812.714	28295
812.855	28455
812.997	28443
813.138	28713
813.279	28459
813.421	28382
813.562	28223
813.703	28150
813.845	28090
813.986	27831
814.127	27606
814.268	27614
814.41	27587
814.551	27443
814.692	27534
814.833	27530
814.974	27374
815.115	27538
815.256	27549
815.397	27526
815.539	27458
815.68	27321
815.821	27351
815.962	27359
816.103	27310
816.244	27108
816.385	27051
816.526	27055
816.666	26891
816.807	26758
816.948	26914
817.089	26937
817.23	26849
817.371	26853
817.512	26838
817.653	26731
817.793	26781
817.934	26948
818.075	26834
818.216	26811
818.356	26708
818.497	26651
818.638	26423
818.778	26594
818.919	26492
819.06	26693
819.2	26712
819.341	26765
819.481	26727
819.622	26990
819.762	27180
819.903	26948
820.043	26979
820.184	26872
820.324	26880
820.465	26921
820.605	26887
820.746	27001
820.886	26853
821.026	26842
821.167	26857
821.307	26739
821.447	26857
821.588	26708
821.728	26568
821.868	26412
822.008	26309
822.149	26237
822.289	26381
822.429	26012
822.569	25997
822.709	25940
822.849	25811
822.99	25807
823.13	25708
823.27	25757
823.41	25658
823.55	25533
823.69	25582
823.83	25544
823.97	25563
824.11	25369
824.25	25373
824.389	25422
824.529	25525
824.669	25282
824.809	25548
824.949	25540
825.089	25510
825.228	25537
825.368	25225
825.508	25327
825.648	25381
825.787	25316
825.927	25308
826.067	25213
826.206	25263
826.346	25232
826.485	25240
826.625	25263
826.765	25293
826.904	25251
827.044	25008
827.183	25076
827.323	24954
827.462	25038
827.601	25000
827.741	24985
827.88	24970
828.02	24913
828.159	25027
828.298	24943
828.437	24985
828.577	24905
828.716	24897
828.855	24776
828.994	24593
829.134	24749
829.273	24661
829.412	24547
829.551	24471
829.69	24627
829.829	24646
829.968	24795
830.107	24681
830.246	24642
830.385	24582
830.524	24578
830.663	24612
830.802	24372
830.941	24247
831.08	24201
831.219	24350
831.357	24330
831.496	24528
831.635	24190
831.774	24136
831.913	24129
832.051	24110
832.19	24121
832.329	24083
832.467	23935
832.606	23874
832.744	23992
832.883	23950
833.022	23942
833.16	23878
833.299	23965
833.437	24022
833.576	23954
833.714	23988
833.852	23920
833.991	24034
834.129	23958
834.267	24114
834.406	23996
834.544	24049
834.682	24064
834.821	23999
834.959	24171
835.097	23946
835.235	23920
835.373	23901
835.511	24007
835.65	23889
835.788	23809
835.926	23714
836.064	23638
836.202	23600
836.34	23760
836.478	23977
836.615	23851
836.753	23912
836.891	23866
837.029	23828
837.167	23783
837.305	23741
837.443	23714
837.58	23577
837.718	23741
837.856	23672
837.993	23604
838.131	23771
838.269	23573
838.406	23649
838.544	23459
838.681	23334
838.819	23322
838.956	23178
839.094	23162
839.231	23162
839.369	23250
839.506	23497
839.643	23345
839.781	23086
839.918	23162
840.055	23189
840.193	23086
840.33	23014
840.467	23113
840.604	23041
840.742	23178
840.879	22866
841.016	22850
841.153	22976
841.29	23204
841.427	23162
841.564	23025
841.701	22987
841.838	23022
841.975	23029
842.112	22957
842.249	22828
842.385	22748
842.522	22927
842.659	22885
842.796	22850
842.933	22797
843.069	22782
843.206	22752
843.343	22771
843.479	22668
843.616	22831
843.752	22607
843.889	22611
844.025	22721
844.162	22527
844.298	22691
844.435	22546
844.571	22500
844.708	22554
844.844	22816
844.98	22740
845.117	22630
845.253	22481
845.389	22417
845.525	22523
845.661	22489
845.798	22238
845.934	22341
846.07	22276
846.206	22405
846.342	22284
846.478	22367
846.614	22169
846.75	22082
846.886	22090
847.022	22082
847.158	22124
847.294	22082
847.429	22086
847.565	21831
847.701	22261
847.837	21857
847.972	21949
848.108	21987
848.244	21968
848.379	21682
848.515	21599
848.65	21572
848.786	21583
848.921	21679
849.057	21835
849.192	21705
849.328	21644
849.463	21603
849.598	21561
849.734	21561
849.869	21530
850.004	21458
850.14	21504
850.275	21439
850.41	21340
850.545	21435
850.68	21408
850.815	21340
850.95	21428
851.085	21629
851.22	21408
851.355	21393
851.49	21355
851.625	21332
851.76	21412
851.895	21321
852.03	21211
852.165	21336
852.299	21492
852.434	21477
852.569	21401
852.703	21386
852.838	21477
852.973	21523
853.107	21610
853.242	21329
853.376	21203
853.511	21089
853.645	21135
853.78	21408
853.914	21256
854.048	21161
854.183	21142
854.317	21351
854.451	21401
854.585	21192
854.72	21176
854.854	21249
854.988	21306
855.122	21123
855.256	21211
855.39	21272
855.524	21412
855.658	21310
855.792	21211
855.926	21313
856.06	21252
856.194	21378
856.327	21188
856.461	21096
856.595	21154
856.729	21093
856.862	21374
856.996	21249
857.13	21176
857.263	21435
857.397	21355
857.53	21218
857.664	21291
857.797	21294
857.931	21336
858.064	21294
858.197	21386
858.331	21108
858.464	21127
858.597	21089
858.731	21180
858.864	21207
858.997	21096
859.13	21203
859.263	21146
859.396	21336
859.529	21268
859.662	21112
859.795	21173
859.928	21173
860.061	21291
860.194	21321
860.327	21313
860.46	21249
860.592	21268
860.725	21321
860.858	21237
860.99	21237
861.123	21036
861.256	21188
861.388	21165
861.521	21876
861.653	21100
861.786	20933
861.918	21039
862.05	21070
862.183	21195
862.315	21123
862.447	21275
862.58	21180
862.712	20971
862.844	20921
862.976	20982
863.108	20910
863.24	21477
863.372	20994
863.504	20952
863.636	21028
863.768	20944
863.9	20921
864.032	20788
864.164	20967
864.296	20994
864.428	21001
864.559	21043
864.691	20998
864.823	21005
864.954	20967
865.086	20823
865.217	20857
865.349	20769
865.48	20906
865.612	20823
865.743	20967
865.875	20906
866.006	20754
866.137	20857
866.269	20883
866.4	20655
866.531	20743
866.662	20750
866.793	20712
866.924	20864
867.055	20861
867.186	20712
867.317	20609
867.448	20701
867.579	20716
867.71	20678
867.841	20590
867.972	20609
868.103	20754
868.233	20750
868.364	20773
868.495	20857
868.625	21043
868.756	21085
868.886	20906
869.017	20952
869.147	21096
869.278	21074
869.408	21074
869.539	20971
869.669	21062
869.799	21085
869.929	21146
870.06	21119
870.19	21241
870.32	21252
870.45	21336
870.58	21344
870.71	21481
870.84	21515
870.97	21412
871.1	21405
871.23	21553
871.36	21572
871.489	21393
871.619	21561
871.749	21557
871.879	21496
872.008	21770
872.138	21591
872.267	21637
872.397	21439
872.526	21431
872.656	21431
872.785	21401
872.915	21507
873.044	21789
873.173	21622
873.303	21606
873.432	21641
873.561	21667
873.69	21644
873.819	21511
873.948	21755
874.077	21682
874.206	21637
874.335	21720
874.464	21804
874.593	21937
874.722	21816
874.851	21895
874.979	21854
875.108	21922
875.237	21850
875.365	21648
875.494	21701
875.623	21907
875.751	21831
875.88	21827
876.008	21911
876.136	22109
876.265	22257
876.393	22352
876.521	22109
876.65	22367
876.778	22204
876.906	22196
877.034	22173
877.162	22219
877.29	22169
877.418	22230
877.546	22036
877.674	22162
877.802	22105
877.93	22207
878.058	22105
878.185	21968
878.313	22150
878.441	22166
878.568	21998
878.696	22143
878.824	22299
878.951	22356
879.079	22428
879.206	22527
879.333	22409
879.461	22318
879.588	22291
879.715	22276
879.842	22447
879.97	22314
880.097	22048
880.224	21941
880.351	22063
880.478	22086
880.605	22025
880.732	22048
880.859	22204
880.986	22013
881.112	21979
881.239	21880
881.366	21819
881.493	21728
881.619	21705
881.746	21797
881.872	21629
881.999	21538
882.125	21633
882.252	21667
882.378	21595
882.505	21667
882.631	21378
882.757	21344
882.883	21382
883.01	21298
883.136	21192
883.262	21119
883.388	21123
883.514	21389
883.64	21344
883.766	21180
883.892	21043
884.018	21138
884.143	21241
884.269	21351
884.395	20990
884.52	20979
884.646	21020
884.772	20853
884.897	20979
885.023	20960
885.148	21013
885.274	21161
885.399	20883
885.524	20975
885.65	20971
885.775	21013
885.9	20910
886.025	21001
886.15	21017
886.275	20902
886.4	20872
886.525	21017
886.65	20918
886.775	20746
886.9	21001
887.025	21104
887.149	20937
887.274	20804
887.399	20655
887.523	20727
887.648	20663
887.773	20629
887.897	20746
888.021	20712
888.146	20693
888.27	20792
888.395	20796
888.519	20735
888.643	20731
888.767	20754
888.891	20670
889.015	20480
889.139	20602
889.263	20537
889.387	20667
889.511	20663
889.635	20629
889.759	20442
889.883	20450
890.006	20442
890.13	20492
890.254	20366
890.377	20355
890.501	20400
890.624	20332
890.748	20362
890.871	20126
890.995	20065
891.118	20096
891.241	20081
891.364	20180
891.488	20187
891.611	20088
891.734	20161
891.857	20210
891.98	20107
892.103	20145
892.226	20206
892.349	20142
892.471	19833
892.594	20081
892.717	20016
892.839	20084
892.962	20065
893.085	19909
893.207	20054
893.33	19974
893.452	19887
893.575	20016
893.697	20020
893.819	20134
893.941	20214
894.064	20149
894.186	19974
894.308	19887
894.43	20084
894.552	20100
894.674	20107
894.796	19967
894.918	20039
895.04	19928
895.161	19955
895.283	19860
895.405	20005
895.526	20008
895.648	20001
895.769	19989
895.891	19967
896.012	20081
896.134	20062
896.255	20001
896.376	19989
896.498	20008
896.619	19947
896.74	19936
896.861	20221
896.982	20339
897.103	20461
897.224	20172
897.345	20305
897.466	20130
897.587	20229
897.708	20488
897.828	20301
897.949	20195
898.07	20005
898.19	20172
898.311	20294
898.431	20218
898.552	20278
898.672	20259
898.792	20202
898.913	20218
899.033	20221
899.153	20035
899.273	19959
899.393	19986
899.513	20103
899.633	20039
899.753	20054
899.873	19955
899.993	19974
900.113	19879
900.232	19917
900.352	19875
900.472	19875
900.591	19811
900.711	19761
900.83	19738
900.95	19940
901.069	19864
901.189	19647
901.308	19426
901.427	19362
901.546	19354
901.665	19369
901.784	19312
901.904	19266
902.023	19137
902.141	18909
902.26	18867
902.379	19019
902.498	18905
902.617	18916
902.735	18989
902.854	18852
902.973	18772
903.091	18589
903.21	18555
903.328	18536
903.446	18475
903.565	18399
903.683	18365
903.801	18277
903.919	18327
904.038	18300
904.156	18155
904.274	18213
904.392	18072
904.51	18110
904.627	18129
904.745	18239
904.863	18087
904.981	17939
905.098	17798
905.216	17775
905.334	17809
905.451	17805
905.569	17657
905.686	17821
905.803	17718
905.921	17497
906.038	17585
906.155	17684
906.272	17551
906.389	17524
906.506	17318
906.623	17292
906.74	17258
906.857	17307
906.974	17284
907.091	17383
907.208	17493
907.324	17326
907.441	17216
907.557	17117
907.674	17033
907.79	16995
907.907	17083
908.023	17064
908.139	17056
908.256	16991
908.372	16896
908.488	16828
908.604	16774
908.72	16713
908.836	16691
908.952	16679
909.068	16790
909.184	16736
909.3	16793
909.415	16763
909.531	16790
909.647	16519
909.762	16504
909.878	16500
909.993	16466
910.108	16451
910.224	16440
910.339	16519
910.454	16295
910.57	16322
910.685	16306
910.8	16500
910.915	16493
911.03	16188
911.145	16135
911.259	16071
911.374	16105
911.489	15975
911.604	15930
911.718	15865
911.833	15888
911.947	15701
912.062	15610
912.176	15918
912.291	15747
912.405	15675
912.519	15953
912.633	16032
912.748	15797
912.862	15812
912.976	15564
913.09	15515
913.204	15542
913.318	15523
913.431	15671
913.545	15675
913.659	15667
913.772	15553
913.886	15412
914	15374
914.113	15523
914.226	15481
914.34	15523
914.453	15405
914.566	15428
914.68	15363
914.793	15237
914.906	15081
915.019	14975
915.132	15047
915.245	15093
915.358	15051
915.47	15047
915.583	15005
915.696	15055
915.809	15089
915.921	15154
916.034	14937
916.146	14887
916.259	14933
916.371	14944
916.483	15001
916.595	14842
916.708	14933
916.82	14902
916.932	14876
917.044	14743
917.156	14891
917.268	14708
917.38	14648
917.491	14727
917.603	14708
917.715	14720
917.826	14762
917.938	14613
918.049	14484
918.161	14594
918.272	14815
918.384	14765
918.495	14579
918.606	14518
918.717	14324
918.828	14408
918.939	14385
919.05	14332
919.161	14457
919.272	14286
919.383	14229
919.494	14484
919.604	14655
919.715	14442
919.826	14267
919.936	14339
920.047	14427
920.157	14412
920.267	14564
920.378	14454
920.488	14461
920.598	14613
920.708	14712
920.818	14549
920.928	14537
921.038	14640
921.148	14670
921.258	14389
921.368	14199
921.477	14199
921.587	14054
921.697	14043
921.806	14183
921.916	13940
922.025	13856
922.134	13856
922.244	13746
922.353	13791
922.462	13719
922.571	13620
922.68	13518
922.789	13434
922.898	13460
923.007	13365
923.116	13415
923.224	13407
923.333	13415
923.442	13244
923.55	13327
923.659	13365
923.767	13346
923.876	13251
923.984	13346
924.092	13194
924.201	13240
924.309	13221
924.417	13156
924.525	13149
924.633	13088
924.741	13837
924.849	12882
924.956	13027
925.064	12924
925.172	12722
925.279	12757
925.387	12894
925.494	12916
925.602	12977
925.709	12894
925.816	12776
925.924	12795
926.031	12878
926.138	12829
926.245	12894
926.352	12734
926.459	12863
926.566	12871
926.673	12802
926.779	12608
926.886	12532
926.993	12399
927.099	12437
927.206	12350
927.312	12342
927.419	12536
927.525	12403
927.631	12452
927.737	12330
927.843	12285
927.95	12239
928.056	12281
928.162	12243
928.267	12300
928.373	12867
928.479	12308
928.585	12110
928.69	12277
928.796	12228
928.901	12163
929.007	11939
929.112	12159
929.218	12079
929.323	11996
929.428	11942
929.533	12060
929.638	11965
929.743	11897
929.848	11977
929.953	11874
930.058	11840
930.163	11703
930.267	11703
930.372	11718
930.477	11665
930.581	11866
930.685	11726
930.79	11570
930.894	11505
930.998	11467
931.103	11634
931.207	11288
931.311	11284
931.415	11094
931.519	10987
931.623	10881
