Data from test_V78500241_864.txt Node
Date: Fri Mar 25 15:15:52 CST 2022
User: usil
Spectrometer: V785-0024
Trigger mode: 0
Integration Time (sec): 4.000000E-1
Scans to average: 1
Nonlinearity correction enabled: false
Boxcar width: 0
Storing dark spectrum: false
XAxis mode: Wavelengths
Number of Pixels in Spectrum: 1024
>>>>>Begin Spectral Data<<<<<
801.071	28276
801.214	28173
801.356	27876
801.499	27911
801.641	27831
801.783	27838
801.926	27850
802.068	27648
802.211	27755
802.353	27583
802.496	27363
802.638	27431
802.78	27538
802.923	27443
803.065	27336
803.208	27538
803.35	27492
803.492	27656
803.635	27614
803.777	27427
803.919	27572
804.061	27941
804.204	27629
804.346	27682
804.488	27606
804.63	27610
804.773	27606
804.915	27739
805.057	27663
805.199	27739
805.341	27682
805.483	27998
805.626	27720
805.768	27747
805.91	27827
806.052	27781
806.194	27899
806.336	27979
806.478	27994
806.62	27827
806.762	27861
806.904	28021
807.046	28310
807.188	28166
807.33	28265
807.472	28272
807.614	28128
807.756	28177
807.898	28078
808.04	28059
808.182	28169
808.324	28063
808.465	28207
808.607	28405
808.749	28489
808.891	28599
809.033	28683
809.174	28497
809.316	28394
809.458	28679
809.6	28508
809.741	28710
809.883	28599
810.025	28767
810.166	28683
810.308	28816
810.45	28736
810.591	28637
810.733	28474
810.875	28557
811.016	28405
811.158	28371
811.299	28508
811.441	28557
811.582	28599
811.724	28466
811.865	28474
812.007	28462
812.148	28577
812.29	28535
812.431	28763
812.573	28881
812.714	28965
812.855	28965
812.997	29033
813.138	29269
813.279	29220
813.421	29025
813.562	28984
813.703	28881
813.845	28767
813.986	28485
814.127	28185
814.268	28287
814.41	28257
814.551	28211
814.692	28276
814.833	28093
814.974	28135
815.115	28261
815.256	27949
815.397	28017
815.539	28025
815.68	28040
815.821	27797
815.962	28082
816.103	28032
816.244	27979
816.385	27785
816.526	27644
816.666	27557
816.807	27743
816.948	27652
817.089	27637
817.23	27591
817.371	27435
817.512	27504
817.653	27511
817.793	27553
817.934	27530
818.075	27462
818.216	27591
818.356	27542
818.497	27389
818.638	27203
818.778	27195
818.919	27233
819.06	27348
819.2	27420
819.341	27481
819.481	27386
819.622	27549
819.762	27819
819.903	27747
820.043	27804
820.184	27469
820.324	27625
820.465	27675
820.605	27625
820.746	27656
820.886	27427
821.026	27633
821.167	27564
821.307	27709
821.447	27610
821.588	27329
821.728	27233
821.868	27127
822.008	26963
822.149	26986
822.289	26940
822.429	26625
822.569	26625
822.709	26644
822.849	26404
822.99	26415
823.13	26427
823.27	26526
823.41	26214
823.55	26183
823.69	26328
823.83	26355
823.97	26244
824.11	26142
824.25	26054
824.389	26138
824.529	26218
824.669	26195
824.809	26202
824.949	26313
825.089	26168
825.228	26240
825.368	26077
825.508	26092
825.648	26191
825.787	26058
825.927	26081
826.067	26054
826.206	25963
826.346	25997
826.485	26027
826.625	26043
826.765	26065
826.904	26050
827.044	25826
827.183	25837
827.323	25677
827.462	25932
827.601	25677
827.741	25662
827.88	25742
828.02	25597
828.159	25601
828.298	25639
828.437	25788
828.577	25791
828.716	25826
828.855	25624
828.994	25529
829.134	25479
829.273	25495
829.412	25392
829.551	25400
829.69	25369
829.829	25441
829.968	25601
830.107	25514
830.246	25346
830.385	25316
830.524	25255
830.663	25266
830.802	25072
830.941	24954
831.08	24992
831.219	25194
831.357	25148
831.496	25301
831.635	24970
831.774	25031
831.913	24829
832.051	24871
832.19	24806
832.329	24981
832.467	24734
832.606	24661
832.744	24658
832.883	24669
833.022	24608
833.16	24837
833.299	24760
833.437	24764
833.576	24825
833.714	24749
833.852	24806
833.991	24947
834.129	24947
834.267	24837
834.406	24856
834.544	24863
834.682	24798
834.821	24795
834.959	24890
835.097	24833
835.235	24741
835.373	24779
835.511	24776
835.65	24578
835.788	24627
835.926	24517
836.064	24319
836.202	24532
836.34	24627
836.478	24764
836.615	24730
836.753	24578
836.891	24627
837.029	24639
837.167	24502
837.305	24540
837.443	24471
837.58	24342
837.718	24471
837.856	24486
837.993	24277
838.131	24448
838.269	24452
838.406	24361
838.544	24338
838.681	24121
838.819	24087
838.956	23958
839.094	23771
839.231	23961
839.369	24182
839.506	24277
839.643	24144
839.781	23958
839.918	23863
840.055	23859
840.193	23859
840.33	23821
840.467	23745
840.604	23840
840.742	24117
840.879	23592
841.016	23684
841.153	23672
841.29	23946
841.427	23790
841.564	23874
841.701	23771
841.838	23764
841.975	23695
842.112	23661
842.249	23676
842.385	23486
842.522	23847
842.659	23630
842.796	23573
842.933	23699
843.069	23566
843.206	23478
843.343	23665
843.479	23570
843.616	23745
843.752	23349
843.889	23318
844.025	23474
844.162	23288
844.298	23303
844.435	23349
844.571	23383
844.708	23444
844.844	23402
844.98	23368
845.117	23467
845.253	23356
845.389	23303
845.525	23178
845.661	23220
845.798	23124
845.934	23109
846.07	23056
846.206	23128
846.342	23102
846.478	23136
846.614	22862
846.75	22683
846.886	22782
847.022	22972
847.158	22915
847.294	22782
847.429	22923
847.565	22736
847.701	23048
847.837	22485
847.972	22466
848.108	22706
848.244	22531
848.379	22424
848.515	22371
848.65	22424
848.786	22405
848.921	22447
849.057	22561
849.192	22557
849.328	22455
849.463	22455
849.598	22291
849.734	22322
849.869	22215
850.004	22192
850.14	22200
850.275	22337
850.41	22021
850.545	22128
850.68	22055
850.815	22166
850.95	22158
851.085	22390
851.22	22306
851.355	22242
851.49	22230
851.625	22177
851.76	22287
851.895	22006
852.03	22067
852.165	22234
852.299	22154
852.434	22177
852.569	22188
852.703	22173
852.838	22143
852.973	22428
853.107	22166
853.242	22097
853.376	21972
853.511	21873
853.645	21968
853.78	22021
853.914	21991
854.048	21861
854.183	21964
854.317	21983
854.451	22276
854.585	22036
854.72	22055
854.854	22078
854.988	21819
855.122	21892
855.256	21953
855.39	21998
855.524	22112
855.658	22112
855.792	21949
855.926	21876
856.06	22013
856.194	22234
856.327	21987
856.461	22013
856.595	22032
856.729	21880
856.862	22021
856.996	22086
857.13	21949
857.263	22013
857.397	22147
857.53	22002
857.664	22025
857.797	22025
857.931	22051
858.064	21998
858.197	22059
858.331	21953
858.464	21949
858.597	21880
858.731	21869
858.864	22036
858.997	21979
859.13	21941
859.263	21926
859.396	22044
859.529	21994
859.662	22029
859.795	21812
859.928	21998
860.061	22109
860.194	22078
860.327	22063
860.46	21846
860.592	22086
860.725	22242
860.858	22173
860.99	21994
861.123	21899
861.256	21949
861.388	22044
861.521	22873
861.653	21854
861.786	21766
861.918	21709
862.05	21854
862.183	21873
862.315	21930
862.447	22025
862.58	21949
862.712	21759
862.844	21724
862.976	21831
863.108	21789
863.24	21960
863.372	21526
863.504	21682
863.636	21743
863.768	21671
863.9	21705
864.032	21614
864.164	21660
864.296	21728
864.428	21720
864.559	21766
864.691	21625
864.823	21713
864.954	21595
865.086	21629
865.217	21724
865.349	21469
865.48	21660
865.612	21500
865.743	21789
865.875	21568
866.006	21618
866.137	21549
866.269	21519
866.4	21595
866.531	21545
866.662	21416
866.793	21439
866.924	21500
867.055	21561
867.186	21625
867.317	21405
867.448	21367
867.579	21496
867.71	21321
867.841	21332
867.972	21542
868.103	21466
868.233	21564
868.364	21519
868.495	21473
868.625	21690
868.756	21842
868.886	21629
869.017	21641
869.147	21827
869.278	21842
869.408	21850
869.539	21641
869.669	21926
869.799	21827
869.929	21732
870.06	21888
870.19	22082
870.32	22074
870.45	22116
870.58	22169
870.71	22223
870.84	22223
870.97	22116
871.1	22196
871.23	22310
871.36	22291
871.489	22230
871.619	22226
871.749	22196
871.879	22504
872.008	22375
872.138	22386
872.267	22413
872.397	22188
872.526	22188
872.656	22192
872.785	22143
872.915	22314
873.044	22470
873.173	22314
873.303	22360
873.432	22246
873.561	22402
873.69	22402
873.819	22375
873.948	22455
874.077	22344
874.206	22310
874.335	22299
874.464	22489
874.593	22668
874.722	22424
874.851	22554
874.979	22584
875.108	22664
875.237	22493
875.365	22367
875.494	22455
875.623	22588
875.751	22493
875.88	22550
876.008	22641
876.136	22691
876.265	22900
876.393	23143
876.521	23033
876.65	23124
876.778	23037
876.906	22721
877.034	22755
877.162	22949
877.29	22843
877.418	22862
877.546	22896
877.674	22930
877.802	22847
877.93	22961
878.058	22854
878.185	22877
878.313	22930
878.441	22923
878.568	22733
878.696	22771
878.824	22889
878.951	22938
879.079	23014
879.206	23132
879.333	23178
879.461	22965
879.588	22972
879.715	23056
879.842	23117
879.97	23003
880.097	22733
880.224	22656
880.351	22752
880.478	22656
880.605	22546
880.732	22744
880.859	22923
880.986	22729
881.112	22698
881.239	22588
881.366	22447
881.493	22409
881.619	22280
881.746	22295
881.872	22443
881.999	22188
882.125	22131
882.252	22219
882.378	22276
882.505	22421
882.631	22128
882.757	21956
882.883	22150
883.01	21991
883.136	21831
883.262	21778
883.388	21838
883.514	22002
883.64	22074
883.766	21907
883.892	21846
884.018	21778
884.143	21915
884.269	21930
884.395	21732
884.52	21568
884.646	21652
884.772	21458
884.897	21458
885.023	21644
885.148	21705
885.274	21705
885.399	21652
885.524	21637
885.65	21553
885.775	21614
885.9	21534
886.025	21751
886.15	21747
886.275	21458
886.4	21587
886.525	21720
886.65	21466
886.775	21519
886.9	21720
887.025	21884
887.149	21606
887.274	21348
887.399	21408
887.523	21405
887.648	21306
887.773	21287
887.897	21576
888.021	21443
888.146	21291
888.27	21496
888.395	21420
888.519	21370
888.643	21477
888.767	21435
888.891	21264
889.015	21074
889.139	21241
889.263	21245
889.387	21188
889.511	21340
889.635	21260
889.759	21173
889.883	21192
890.006	21131
890.13	21367
890.254	21047
890.377	21138
890.501	20937
890.624	20861
890.748	20868
890.871	20777
890.995	20697
891.118	20598
891.241	20743
891.364	20727
891.488	20857
891.611	20804
891.734	20765
891.857	20830
891.98	20689
892.103	20716
892.226	20674
892.349	20708
892.471	20454
892.594	20632
892.717	20659
892.839	20674
892.962	20648
893.085	20701
893.207	20682
893.33	20689
893.452	20632
893.575	20708
893.697	20659
893.819	20674
893.941	20727
894.064	20606
894.186	20667
894.308	20606
894.43	20644
894.552	20663
894.674	20724
894.796	20518
894.918	20503
895.04	20537
895.161	20743
895.283	20587
895.405	20495
895.526	20629
895.648	20461
895.769	20651
895.891	20560
896.012	20590
896.134	20560
896.255	20625
896.376	20423
896.498	20625
896.619	20701
896.74	20552
896.861	20644
896.982	20967
897.103	21013
897.224	20853
897.345	20705
897.466	20701
897.587	20842
897.708	20921
897.828	20864
897.949	20682
898.07	20617
898.19	20697
898.311	20796
898.431	20769
898.552	20735
898.672	20929
898.792	20872
898.913	20781
899.033	20746
899.153	20613
899.273	20583
899.393	20636
899.513	20579
899.633	20511
899.753	20530
899.873	20499
899.993	20648
900.113	20568
900.232	20537
900.352	20541
900.472	20385
900.591	20290
900.711	20332
900.83	20286
900.95	20400
901.069	20347
901.189	20195
901.308	20020
901.427	19906
901.546	19875
901.665	19902
901.784	19871
901.904	19613
902.023	19696
902.141	19578
902.26	19346
902.379	19476
902.498	19445
902.617	19434
902.735	19407
902.854	19331
902.973	19293
903.091	19053
903.21	19076
903.328	19008
903.446	19038
903.565	18825
903.683	18882
903.801	18817
903.919	18802
904.038	18886
904.156	18627
904.274	18722
904.392	18563
904.51	18639
904.627	18585
904.745	18635
904.863	18738
904.981	18403
905.098	18273
905.216	18319
905.334	18338
905.451	18171
905.569	18254
905.686	18330
905.803	18308
905.921	18022
906.038	18186
906.155	18152
906.272	17878
906.389	18133
906.506	17779
906.623	17912
906.74	17756
906.857	17821
906.974	17741
907.091	17840
907.208	17996
907.324	17790
907.441	17657
907.557	17524
907.674	17493
907.79	17455
907.907	17501
908.023	17585
908.139	17554
908.256	17516
908.372	17505
908.488	17387
908.604	17174
908.72	17318
908.836	17280
908.952	17277
909.068	17193
909.184	17277
909.3	17246
909.415	17341
909.531	17379
909.647	17029
909.762	17075
909.878	16927
909.993	16942
910.108	16976
910.224	16999
910.339	16927
910.454	16831
910.57	16778
910.685	16736
910.8	17121
910.915	16858
911.03	16824
911.145	16565
911.259	16641
911.374	16573
911.489	16421
911.604	16405
911.718	16322
911.833	16287
911.947	16238
912.062	16135
912.176	16257
912.291	16314
912.405	16356
912.519	16409
912.633	16565
912.748	16428
912.862	16363
912.976	16177
913.09	16036
913.204	16154
913.318	16166
913.431	16207
913.545	16173
913.659	16147
913.772	16067
913.886	16021
914	15956
914.113	16059
914.226	15987
914.34	16032
914.453	15747
914.566	16078
914.68	15835
914.793	15778
914.906	15587
915.019	15614
915.132	15507
915.245	15458
915.358	15526
915.47	15496
915.583	15584
915.696	15580
915.809	15644
915.921	15698
916.034	15443
916.146	15408
916.259	15488
916.371	15545
916.483	15500
916.595	15306
916.708	15355
916.82	15382
916.932	15359
917.044	15256
917.156	15370
917.268	15180
917.38	15188
917.491	15089
917.603	15097
917.715	15241
917.826	15192
917.938	15150
918.049	15032
918.161	15097
918.272	15150
918.384	15237
918.495	15097
918.606	14937
918.717	14853
918.828	14880
918.939	14971
919.05	14804
919.161	14796
919.272	14686
919.383	14792
919.494	14944
919.604	15104
919.715	14891
919.826	14849
919.936	14952
920.047	14937
920.157	14891
920.267	15036
920.378	14925
920.488	14891
920.598	15055
920.708	15272
920.818	14956
920.928	14925
921.038	15218
921.148	15077
921.258	14743
921.368	14838
921.477	14564
921.587	14537
921.697	14526
921.806	14640
921.916	14480
922.025	14221
922.134	14267
922.244	14180
922.353	14267
922.462	14123
922.571	14043
922.68	13890
922.789	13909
922.898	13959
923.007	13799
923.116	13921
923.224	13909
923.333	13864
923.442	13769
923.55	13658
923.659	13700
923.767	13826
923.876	13719
923.984	13738
924.092	13636
924.201	13677
924.309	13674
924.417	13700
924.525	13483
924.633	13533
924.741	14294
924.849	13343
924.956	13495
925.064	13320
925.172	13263
925.279	13266
925.387	13358
925.494	13190
925.602	13392
925.709	13285
925.816	13179
925.924	13202
926.031	13304
926.138	13202
926.245	13206
926.352	13168
926.459	13228
926.566	13213
926.673	13190
926.779	13065
926.886	12951
926.993	12920
927.099	12878
927.206	12920
927.312	12829
927.419	12947
927.525	12829
927.631	12844
927.737	12833
927.843	12665
927.95	12570
928.056	12703
928.162	12719
928.267	12639
928.373	13228
928.479	12734
928.585	12536
928.69	12547
928.796	12692
928.901	12494
929.007	12330
929.112	12494
929.218	12410
929.323	12380
929.428	12350
929.533	12471
929.638	12289
929.743	12327
929.848	12369
929.953	12311
930.058	12251
930.163	11988
930.267	12049
930.372	12247
930.477	12072
930.581	12254
930.685	12049
930.79	11977
930.894	12019
930.998	11942
931.103	12011
931.207	11646
931.311	11505
931.415	11493
931.519	11330
931.623	11315
