Data from test_V78500241_1700.txt Node
Date: Fri Mar 25 15:21:41 CST 2022
User: usil
Spectrometer: V785-0024
Trigger mode: 0
Integration Time (sec): 4.000000E-1
Scans to average: 1
Nonlinearity correction enabled: false
Boxcar width: 0
Storing dark spectrum: false
XAxis mode: Wavelengths
Number of Pixels in Spectrum: 1024
>>>>>Begin Spectral Data<<<<<
801.071	27972
801.214	27762
801.356	27816
801.499	27549
801.641	27401
801.783	27450
801.926	27427
802.068	27561
802.211	27386
802.353	27268
802.496	27116
802.638	27154
802.78	27146
802.923	27169
803.065	26971
803.208	27089
803.35	27154
803.492	27188
803.635	27268
803.777	27047
803.919	27329
804.061	27644
804.204	27214
804.346	27233
804.488	27207
804.63	27294
804.773	27180
804.915	27287
805.057	27397
805.199	27302
805.341	27370
805.483	27466
805.626	27496
805.768	27382
805.91	27462
806.052	27325
806.194	27298
806.336	27606
806.478	27606
806.62	27382
806.762	27587
806.904	27667
807.046	27804
807.188	27865
807.33	27747
807.472	27918
807.614	27755
807.756	27816
807.898	27660
808.04	27557
808.182	27667
808.324	27747
808.465	27861
808.607	27937
808.749	28147
808.891	28097
809.033	28230
809.174	28029
809.316	28010
809.458	28002
809.6	28112
809.741	28196
809.883	28143
810.025	28333
810.166	28386
810.308	28390
810.45	28242
810.591	28257
810.733	28082
810.875	28048
811.016	27918
811.158	28059
811.299	28063
811.441	28128
811.582	28181
811.724	28112
811.865	28067
812.007	27975
812.148	27884
812.29	28055
812.431	28204
812.573	28344
812.714	28531
812.855	28554
812.997	28675
813.138	28713
813.279	28622
813.421	28546
813.562	28363
813.703	28344
813.845	28238
813.986	28010
814.127	28070
814.268	27797
814.41	27675
814.551	27797
814.692	27781
814.833	27644
814.974	27679
815.115	27793
815.256	27629
815.397	27728
815.539	27576
815.68	27542
815.821	27511
815.962	27595
816.103	27519
816.244	27405
816.385	27397
816.526	27291
816.666	27135
816.807	27036
816.948	27058
817.089	27085
817.23	27047
817.371	26998
817.512	27096
817.653	27036
817.793	26952
817.934	26933
818.075	26979
818.216	27127
818.356	26994
818.497	26925
818.638	26735
818.778	26826
818.919	26667
819.06	26796
819.2	26883
819.341	27070
819.481	26914
819.622	27195
819.762	27492
819.903	27393
820.043	27131
820.184	27165
820.324	27127
820.465	27081
820.605	27123
820.746	27317
820.886	26906
821.026	27116
821.167	27184
821.307	27233
821.447	27135
821.588	27051
821.728	26880
821.868	26754
822.008	26560
822.149	26518
822.289	26590
822.429	26393
822.569	26218
822.709	26240
822.849	25913
822.99	26050
823.13	25909
823.27	26005
823.41	25947
823.55	25833
823.69	25841
823.83	25890
823.97	25761
824.11	25575
824.25	25559
824.389	25616
824.529	25814
824.669	25525
824.809	25814
824.949	25670
825.089	25700
825.228	25689
825.368	25346
825.508	25544
825.648	25396
825.787	25529
825.927	25575
826.067	25495
826.206	25499
826.346	25575
826.485	25506
826.625	25537
826.765	25674
826.904	25537
827.044	25324
827.183	25228
827.323	25244
827.462	25419
827.601	25339
827.741	25320
827.88	25152
828.02	25198
828.159	25179
828.298	25274
828.437	25232
828.577	25213
828.716	25278
828.855	25118
828.994	24837
829.134	24935
829.273	24954
829.412	24882
829.551	24852
829.69	25015
829.829	25012
829.968	25004
830.107	24935
830.246	24825
830.385	24901
830.524	24890
830.663	24700
830.802	24646
830.941	24574
831.08	24639
831.219	24589
831.357	24627
831.496	24734
831.635	24490
831.774	24498
831.913	24521
832.051	24456
832.19	24311
832.329	24437
832.467	24228
832.606	24186
832.744	24205
832.883	24235
833.022	24254
833.16	24384
833.299	24239
833.437	24194
833.576	24311
833.714	24262
833.852	24433
833.991	24289
834.129	24315
834.267	24433
834.406	24342
834.544	24445
834.682	24311
834.821	24319
834.959	24536
835.097	24213
835.235	24266
835.373	24308
835.511	24323
835.65	24171
835.788	24220
835.926	23916
836.064	23920
836.202	23996
836.34	24190
836.478	24277
836.615	24121
836.753	24083
836.891	24228
837.029	24155
837.167	24098
837.305	24068
837.443	23999
837.58	23939
837.718	24213
837.856	24038
837.993	24064
838.131	23965
838.269	23851
838.406	23882
838.544	23813
838.681	23619
838.819	23619
838.956	23539
839.094	23406
839.231	23452
839.369	23611
839.506	23840
839.643	23805
839.781	23368
839.918	23242
840.055	23474
840.193	23478
840.33	23387
840.467	23265
840.604	23417
840.742	23600
840.879	23147
841.016	23436
841.153	23174
841.29	23353
841.427	23360
841.564	23288
841.701	23292
841.838	23318
841.975	23265
842.112	23239
842.249	23189
842.385	23113
842.522	23334
842.659	23296
842.796	23109
842.933	23212
843.069	23029
843.206	22991
843.343	23322
843.479	23212
843.616	23170
843.752	22968
843.889	22938
844.025	23003
844.162	22927
844.298	23025
844.435	22885
844.571	22835
844.708	22965
844.844	23254
844.98	22942
845.117	23048
845.253	22877
845.389	22839
845.525	22839
845.661	22858
845.798	22561
845.934	22637
846.07	22626
846.206	22626
846.342	22672
846.478	22630
846.614	22413
846.75	22291
846.886	22276
847.022	22390
847.158	22398
847.294	22379
847.429	22322
847.565	22325
847.701	22561
847.837	22021
847.972	22162
848.108	22158
848.244	22234
848.379	21930
848.515	21804
848.65	21979
848.786	22112
848.921	22059
849.057	22051
849.192	22139
849.328	22063
849.463	21850
849.598	21975
849.734	21823
849.869	21884
850.004	21781
850.14	21762
850.275	21724
850.41	21717
850.545	21789
850.68	21709
850.815	21774
850.95	21667
851.085	21880
851.22	21838
851.355	21759
851.49	21614
851.625	21610
851.76	21705
851.895	21724
852.03	21679
852.165	21770
852.299	21709
852.434	21861
852.569	21835
852.703	21637
852.838	21812
852.973	21892
853.107	21785
853.242	21557
853.376	21694
853.511	21557
853.645	21534
853.78	21641
853.914	21614
854.048	21454
854.183	21504
854.317	21629
854.451	21755
854.585	21450
854.72	21534
854.854	21583
854.988	21557
855.122	21504
855.256	21374
855.39	21420
855.524	21671
855.658	21485
855.792	21553
855.926	21595
856.06	21663
856.194	21690
856.327	21709
856.461	21504
856.595	21428
856.729	21538
856.862	21637
856.996	21443
857.13	21580
857.263	21583
857.397	21530
857.53	21538
857.664	21599
857.797	21561
857.931	21622
858.064	21500
858.197	21644
858.331	21492
858.464	21416
858.597	21462
858.731	21599
858.864	21447
858.997	21488
859.13	21591
859.263	21526
859.396	21671
859.529	21549
859.662	21447
859.795	21439
859.928	21580
860.061	21599
860.194	21728
860.327	21564
860.46	21485
860.592	21618
860.725	21709
860.858	21603
860.99	21462
861.123	21435
861.256	21469
861.388	21549
861.521	22322
861.653	21431
861.786	21256
861.918	21412
862.05	21462
862.183	21405
862.315	21481
862.447	21534
862.58	21477
862.712	21142
862.844	21203
862.976	21230
863.108	21195
863.24	21637
863.372	21192
863.504	21344
863.636	21226
863.768	21344
863.9	21302
864.032	21226
864.164	21256
864.296	21199
864.428	21370
864.559	21412
864.691	21450
864.823	21230
864.954	21161
865.086	21260
865.217	21005
865.349	21047
865.48	21135
865.612	21154
865.743	21066
865.875	21161
866.006	21108
866.137	21157
866.269	21203
866.4	21165
866.531	21100
866.662	21001
866.793	20990
866.924	21047
867.055	21055
867.186	21089
867.317	21074
867.448	20956
867.579	20998
867.71	20998
867.841	21009
867.972	21165
868.103	20948
868.233	21047
868.364	21062
868.495	21173
868.625	21287
868.756	21370
868.886	21218
869.017	21272
869.147	21507
869.278	21367
869.408	21378
869.539	21287
869.669	21477
869.799	21332
869.929	21431
870.06	21538
870.19	21534
870.32	21587
870.45	21679
870.58	21736
870.71	21873
870.84	21766
870.97	21671
871.1	21629
871.23	21964
871.36	21907
871.489	21751
871.619	21975
871.749	21854
871.879	21987
872.008	21880
872.138	21998
872.267	21865
872.397	21770
872.526	21618
872.656	21751
872.785	21759
872.915	21880
873.044	22010
873.173	21953
873.303	21960
873.432	22044
873.561	21968
873.69	21979
873.819	21865
873.948	21979
874.077	21819
874.206	21865
874.335	21964
874.464	21998
874.593	22223
874.722	22044
874.851	22166
874.979	22166
875.108	22284
875.237	22097
875.365	22082
875.494	22074
875.623	22276
875.751	22226
875.88	22226
876.008	22356
876.136	22261
876.265	22462
876.393	22664
876.521	22675
876.65	22561
876.778	22466
876.906	22577
877.034	22580
877.162	22554
877.29	22493
877.418	22512
877.546	22580
877.674	22466
877.802	22557
877.93	22519
878.058	22516
878.185	22424
878.313	22497
878.441	22485
878.568	22295
878.696	22432
878.824	22436
878.951	22542
879.079	22546
879.206	22752
879.333	22481
879.461	22474
879.588	22554
879.715	22660
879.842	22755
879.97	22527
880.097	22253
880.224	22287
880.351	22348
880.478	22329
880.605	22287
880.732	22314
880.859	22630
880.986	22371
881.112	22329
881.239	22276
881.366	22101
881.493	22013
881.619	21857
881.746	22006
881.872	21861
881.999	21884
882.125	21854
882.252	21846
882.378	21865
882.505	22105
882.631	21736
882.757	21580
882.883	21736
883.01	21625
883.136	21625
883.262	21450
883.388	21568
883.514	21545
883.64	21660
883.766	21511
883.892	21477
884.018	21401
884.143	21530
884.269	21625
884.395	21291
884.52	21211
884.646	21230
884.772	21180
884.897	21089
885.023	21218
885.148	21325
885.274	21405
885.399	21195
885.524	21233
885.65	21241
885.775	21249
885.9	21165
886.025	21447
886.15	21386
886.275	21233
886.4	21283
886.525	21237
886.65	21112
886.775	21233
886.9	21431
887.025	21348
887.149	21176
887.274	20998
887.399	21024
887.523	21020
887.648	21043
887.773	21036
887.897	21093
888.021	21070
888.146	20933
888.27	21184
888.395	21062
888.519	21013
888.643	20937
888.767	21089
888.891	20815
889.015	20807
889.139	20845
889.263	20731
889.387	20880
889.511	20975
889.635	20967
889.759	20804
889.883	20792
890.006	20819
890.13	20830
890.254	20663
890.377	20750
890.501	20594
890.624	20492
890.748	20442
890.871	20415
890.995	20294
891.118	20248
891.241	20358
891.364	20317
891.488	20461
891.611	20355
891.734	20309
891.857	20423
891.98	20400
892.103	20431
892.226	20267
892.349	20275
892.471	20119
892.594	20233
892.717	20290
892.839	20195
892.962	20278
893.085	20320
893.207	20290
893.33	20225
893.452	20252
893.575	20275
893.697	20286
893.819	20404
893.941	20476
894.064	20427
894.186	20202
894.308	20134
894.43	20233
894.552	20362
894.674	20278
894.796	20157
894.918	20218
895.04	20286
895.161	20355
895.283	20252
895.405	20218
895.526	20210
895.648	20202
895.769	20221
895.891	20355
896.012	20286
896.134	20244
896.255	20271
896.376	20187
896.498	20278
896.619	20229
896.74	20168
896.861	20282
896.982	20556
897.103	20621
897.224	20533
897.345	20438
897.466	20336
897.587	20499
897.708	20556
897.828	20347
897.949	20370
898.07	20282
898.19	20400
898.311	20514
898.431	20507
898.552	20507
898.672	20495
898.792	20583
898.913	20473
899.033	20404
899.153	20221
899.273	20168
899.393	20210
899.513	20252
899.633	20221
899.753	20225
899.873	20176
899.993	20138
900.113	20130
900.232	20225
900.352	20138
900.472	20050
900.591	19967
900.711	20016
900.83	19906
900.95	20100
901.069	20054
901.189	19875
901.308	19590
901.427	19552
901.546	19586
901.665	19594
901.784	19575
901.904	19419
902.023	19388
902.141	19126
902.26	19148
902.379	19202
902.498	19042
902.617	19012
902.735	19069
902.854	19034
902.973	19061
903.091	18791
903.21	18696
903.328	18772
903.446	18719
903.565	18604
903.683	18608
903.801	18464
903.919	18376
904.038	18486
904.156	18395
904.274	18365
904.392	18399
904.51	18159
904.627	18251
904.745	18391
904.863	18308
904.981	18072
905.098	18011
905.216	17939
905.334	18053
905.451	18076
905.569	17969
905.686	18003
905.803	17923
905.921	17764
906.038	17870
906.155	17722
906.272	17691
906.389	17661
906.506	17505
906.623	17516
906.74	17581
906.857	17398
906.974	17478
907.091	17585
907.208	17577
907.324	17570
907.441	17429
907.557	17414
907.674	17250
907.79	17239
907.907	17299
908.023	17303
908.139	17299
908.256	17235
908.372	17075
908.488	17113
908.604	17094
908.72	16961
908.836	16968
908.952	16900
909.068	17037
909.184	17178
909.3	16946
909.415	16968
909.531	16881
909.647	16733
909.762	16634
909.878	16592
909.993	16653
910.108	16641
910.224	16569
910.339	16615
910.454	16478
910.57	16428
910.685	16356
910.8	16599
910.915	16634
911.03	16478
911.145	16276
911.259	16234
911.374	16238
911.489	16287
911.604	16097
911.718	15968
911.833	16055
911.947	15922
912.062	15823
912.176	15998
912.291	15972
912.405	15979
912.519	16105
912.633	16219
912.748	16128
912.862	16036
912.976	15789
913.09	15686
913.204	15781
913.318	15869
913.431	15937
913.545	15835
913.659	15861
913.772	15781
913.886	15614
914	15549
914.113	15728
914.226	15778
914.34	15701
914.453	15469
914.566	15572
914.68	15454
914.793	15534
914.906	15348
915.019	15161
915.132	15173
915.245	15142
915.358	15291
915.47	15226
915.583	15180
915.696	15226
915.809	15283
915.921	15321
916.034	15119
916.146	15127
916.259	15028
916.371	15291
916.483	15036
916.595	14933
916.708	15077
916.82	15036
916.932	15157
917.044	15020
917.156	14994
917.268	14895
917.38	14990
917.491	14750
917.603	14800
917.715	14895
917.826	14952
917.938	14857
918.049	14750
918.161	14853
918.272	14883
918.384	14975
918.495	14899
918.606	14678
918.717	14514
918.828	14659
918.939	14602
919.05	14564
919.161	14602
919.272	14415
919.383	14469
919.494	14674
919.604	14731
919.715	14598
919.826	14579
919.936	14594
920.047	14651
920.157	14480
920.267	14697
920.378	14636
920.488	14640
920.598	14716
920.708	14891
920.818	14716
920.928	14697
921.038	14876
921.148	14883
921.258	14583
921.368	14526
921.477	14336
921.587	14278
921.697	14168
921.806	14286
921.916	14214
922.025	14024
922.134	13959
922.244	13871
922.353	14012
922.462	13849
922.571	13811
922.68	13681
922.789	13578
922.898	13655
923.007	13544
923.116	13605
923.224	13590
923.333	13620
923.442	13472
923.55	13369
923.659	13453
923.767	13502
923.876	13308
923.984	13426
924.092	13270
924.201	13369
924.309	13343
924.417	13407
924.525	13244
924.633	13225
924.741	14020
924.849	13004
924.956	13259
925.064	13088
925.172	12932
925.279	13091
925.387	13069
925.494	12981
925.602	13171
925.709	13042
925.816	12856
925.924	12924
926.031	13004
926.138	12894
926.245	12989
926.352	12852
926.459	13004
926.566	12993
926.673	12863
926.779	12764
926.886	12719
926.993	12555
927.099	12627
927.206	12475
927.312	12528
927.419	12612
927.525	12559
927.631	12563
927.737	12452
927.843	12323
927.95	12308
928.056	12350
928.162	12395
928.267	12311
928.373	12924
928.479	12437
928.585	12235
928.69	12273
928.796	12395
928.901	12327
929.007	12175
929.112	12254
929.218	12220
929.323	12190
929.428	12129
929.533	12232
929.638	12064
929.743	12007
929.848	12114
929.953	12060
930.058	11980
930.163	11802
930.267	11821
930.372	11969
930.477	11828
930.581	12053
930.685	11851
930.79	11676
930.894	11707
930.998	11627
931.103	11798
931.207	11448
931.311	11360
931.415	11235
931.519	11045
931.623	11048
