Data from test_V78500241_3464.txt Node
Date: Fri Mar 25 15:33:58 CST 2022
User: usil
Spectrometer: V785-0024
Trigger mode: 0
Integration Time (sec): 4.000000E-1
Scans to average: 1
Nonlinearity correction enabled: false
Boxcar width: 0
Storing dark spectrum: false
XAxis mode: Wavelengths
Number of Pixels in Spectrum: 1024
>>>>>Begin Spectral Data<<<<<
801.071	27275
801.214	27252
801.356	26956
801.499	26861
801.641	26773
801.783	26823
801.926	26891
802.068	26792
802.211	26861
802.353	26663
802.496	26568
802.638	26583
802.78	26400
802.923	26259
803.065	26298
803.208	26233
803.35	26590
803.492	26609
803.635	26560
803.777	26590
803.919	26689
804.061	26925
804.204	26670
804.346	26393
804.488	26484
804.63	26659
804.773	26495
804.915	26659
805.057	26705
805.199	26705
805.341	26594
805.483	26769
805.626	26609
805.768	26564
805.91	26667
806.052	26762
806.194	26594
806.336	26868
806.478	26705
806.62	26705
806.762	26686
806.904	26891
807.046	27024
807.188	27127
807.33	27039
807.472	27203
807.614	27032
807.756	26994
807.898	26994
808.04	26902
808.182	26788
808.324	26982
808.465	26967
808.607	27214
808.749	27279
808.891	27378
809.033	27393
809.174	27329
809.316	27188
809.458	27218
809.6	27389
809.741	27351
809.883	27329
810.025	27625
810.166	27477
810.308	27641
810.45	27587
810.591	27519
810.733	27279
810.875	27165
811.016	27165
811.158	27218
811.299	27450
811.441	27401
811.582	27481
811.724	27283
811.865	27237
812.007	27211
812.148	27310
812.29	27260
812.431	27378
812.573	27515
812.714	27743
812.855	27705
812.997	27983
813.138	27884
813.279	28010
813.421	27880
813.562	27831
813.703	27652
813.845	27557
813.986	27180
814.127	27066
814.268	26876
814.41	26921
814.551	26807
814.692	27017
814.833	27036
814.974	26967
815.115	26910
815.256	26994
815.397	26876
815.539	26724
815.68	26845
815.821	26693
815.962	26667
816.103	26659
816.244	26697
816.385	26473
816.526	26530
816.666	26267
816.807	26176
816.948	26301
817.089	26381
817.23	26164
817.371	26218
817.512	26248
817.653	26168
817.793	26145
817.934	26275
818.075	26267
818.216	26199
818.356	26172
818.497	26024
818.638	25932
818.778	25963
818.919	25951
819.06	26107
819.2	26039
819.341	26168
819.481	26126
819.622	26138
819.762	26541
819.903	26400
820.043	26355
820.184	26267
820.324	26248
820.465	26404
820.605	26362
820.746	26298
820.886	26176
821.026	26259
821.167	26199
821.307	26362
821.447	26187
821.588	25989
821.728	25902
821.868	25784
822.008	25609
822.149	25597
822.289	25658
822.429	25525
822.569	25426
822.709	25388
822.849	25057
822.99	25228
823.13	25183
823.27	25008
823.41	24871
823.55	24730
823.69	24962
823.83	24977
823.97	25019
824.11	24776
824.25	24692
824.389	24688
824.529	24760
824.669	24916
824.809	24920
824.949	24890
825.089	24878
825.228	24719
825.368	24696
825.508	24505
825.648	24711
825.787	24566
825.927	24772
826.067	24585
826.206	24612
826.346	24677
826.485	24669
826.625	24585
826.765	24760
826.904	24821
827.044	24475
827.183	24422
827.323	24410
827.462	24429
827.601	24521
827.741	24380
827.88	24323
828.02	24273
828.159	24235
828.298	24395
828.437	24388
828.577	24266
828.716	24437
828.855	24319
828.994	24041
829.134	24144
829.273	24140
829.412	24026
829.551	23973
829.69	24041
829.829	24106
829.968	24041
830.107	24216
830.246	24110
830.385	24159
830.524	24102
830.663	23958
830.802	23920
830.941	23642
831.08	23684
831.219	23805
831.357	23756
831.496	23897
831.635	23623
831.774	23627
831.913	23619
832.051	23471
832.19	23630
832.329	23581
832.467	23398
832.606	23364
832.744	23368
832.883	23417
833.022	23391
833.16	23520
833.299	23334
833.437	23474
833.576	23535
833.714	23448
833.852	23463
833.991	23501
834.129	23665
834.267	23512
834.406	23543
834.544	23547
834.682	23448
834.821	23570
834.959	23695
835.097	23512
835.235	23436
835.373	23478
835.511	23421
835.65	23250
835.788	23398
835.926	23117
836.064	23170
836.202	23178
836.34	23280
836.478	23452
836.615	23356
836.753	23391
836.891	23421
837.029	23315
837.167	23296
837.305	23143
837.443	23162
837.58	23174
837.718	23151
837.856	23166
837.993	23254
838.131	23151
838.269	23064
838.406	23060
838.544	23086
838.681	22835
838.819	22755
838.956	22702
839.094	22653
839.231	22672
839.369	22710
839.506	23094
839.643	22824
839.781	22573
839.918	22611
840.055	22550
840.193	22622
840.33	22641
840.467	22523
840.604	22645
840.742	22793
840.879	22451
841.016	22527
841.153	22516
841.29	22687
841.427	22660
841.564	22550
841.701	22607
841.838	22618
841.975	22462
842.112	22592
842.249	22341
842.385	22409
842.522	22672
842.659	22421
842.796	22207
842.933	22280
843.069	22261
843.206	22371
843.343	22398
843.479	22386
843.616	22223
843.752	22150
843.889	22173
844.025	22287
844.162	22036
844.298	22032
844.435	22150
844.571	22177
844.708	22063
844.844	22257
844.98	22150
845.117	22276
845.253	22082
845.389	21884
845.525	21991
845.661	21911
845.798	21846
845.934	21941
846.07	21762
846.206	21953
846.342	21945
846.478	21854
846.614	21667
846.75	21686
846.886	21557
847.022	21667
847.158	21599
847.294	21553
847.429	21652
847.565	21614
847.701	21728
847.837	21367
847.972	21325
848.108	21466
848.244	21386
848.379	21294
848.515	21272
848.65	21070
848.786	21279
848.921	21207
849.057	21245
849.192	21313
849.328	21180
849.463	21176
849.598	21070
849.734	21173
849.869	21150
850.004	20902
850.14	21036
850.275	20929
850.41	20800
850.545	20925
850.68	20998
850.815	21024
850.95	20910
851.085	21066
851.22	21142
851.355	21116
851.49	20819
851.625	20929
851.76	20982
851.895	20918
852.03	20811
852.165	20929
852.299	20998
852.434	20975
852.569	20845
852.703	20887
852.838	21066
852.973	21028
853.107	21043
853.242	20842
853.376	20720
853.511	20663
853.645	20697
853.78	20906
853.914	20823
854.048	20708
854.183	20842
854.317	20769
854.451	20948
854.585	20750
854.72	20853
854.854	20899
854.988	20743
855.122	20883
855.256	20663
855.39	20701
855.524	20834
855.658	20845
855.792	20773
855.926	20800
856.06	20838
856.194	20845
856.327	20743
856.461	20640
856.595	20678
856.729	20701
856.862	20902
856.996	20796
857.13	20773
857.263	20872
857.397	20777
857.53	20826
857.664	20826
857.797	20864
857.931	20986
858.064	20819
858.197	20868
858.331	20800
858.464	20743
858.597	20773
858.731	20796
858.864	20682
858.997	20746
859.13	20724
859.263	20781
859.396	20910
859.529	20918
859.662	20701
859.795	20712
859.928	20712
860.061	20902
860.194	21055
860.327	20746
860.46	20788
860.592	20986
860.725	20883
860.858	20929
860.99	20693
861.123	20708
861.256	20689
861.388	20785
861.521	21439
861.653	20705
861.786	20511
861.918	20731
862.05	20674
862.183	20785
862.315	20792
862.447	20750
862.58	20655
862.712	20484
862.844	20423
862.976	20674
863.108	20476
863.24	20986
863.372	20412
863.504	20454
863.636	20549
863.768	20549
863.9	20537
864.032	20473
864.164	20408
864.296	20450
864.428	20568
864.559	20339
864.691	20575
864.823	20575
864.954	20499
865.086	20495
865.217	20518
865.349	20370
865.48	20419
865.612	20438
865.743	20503
865.875	20461
866.006	20442
866.137	20336
866.269	20457
866.4	20377
866.531	20339
866.662	20294
866.793	20389
866.924	20343
867.055	20393
867.186	20400
867.317	20332
867.448	20248
867.579	20267
867.71	20138
867.841	20317
867.972	20419
868.103	20412
868.233	20442
868.364	20404
868.495	20355
868.625	20511
868.756	20609
868.886	20526
869.017	20682
869.147	20670
869.278	20632
869.408	20606
869.539	20522
869.669	20678
869.799	20651
869.929	20705
870.06	20632
870.19	20842
870.32	20781
870.45	20967
870.58	20883
870.71	21062
870.84	21135
870.97	21017
871.1	21009
871.23	21184
871.36	21207
871.489	21123
871.619	21169
871.749	21176
871.879	21287
872.008	21256
872.138	21211
872.267	21173
872.397	21077
872.526	20857
872.656	20979
872.785	21116
872.915	21275
873.044	21249
873.173	21237
873.303	21272
873.432	21245
873.561	21306
873.69	21169
873.819	21245
873.948	21401
874.077	21199
874.206	21123
874.335	21245
874.464	21275
874.593	21420
874.722	21298
874.851	21408
874.979	21523
875.108	21568
875.237	21313
875.365	21355
875.494	21473
875.623	21545
875.751	21340
875.88	21542
876.008	21652
876.136	21542
876.265	21895
876.393	21975
876.521	21854
876.65	21937
876.778	21827
876.906	21770
877.034	21705
877.162	21838
877.29	21728
877.418	21827
877.546	21842
877.674	21861
877.802	21850
877.93	21762
878.058	21793
878.185	21660
878.313	21724
878.441	21770
878.568	21568
878.696	21656
878.824	21857
878.951	21903
879.079	21949
879.206	22242
879.333	21907
879.461	21842
879.588	21953
879.715	22040
879.842	22074
879.97	21876
880.097	21553
880.224	21637
880.351	21614
880.478	21610
880.605	21652
880.732	21583
880.859	21842
880.986	21534
881.112	21618
881.239	21378
881.366	21363
881.493	21279
881.619	21222
881.746	21233
881.872	21294
881.999	21249
882.125	21173
882.252	21150
882.378	21150
882.505	21233
882.631	20982
882.757	20902
882.883	21039
883.01	20998
883.136	20910
883.262	20746
883.388	20750
883.514	20963
883.64	21001
883.766	20899
883.892	20746
884.018	20758
884.143	20899
884.269	20906
884.395	20735
884.52	20571
884.646	20423
884.772	20552
884.897	20533
885.023	20579
885.148	20598
885.274	20769
885.399	20613
885.524	20400
885.65	20564
885.775	20575
885.9	20552
886.025	20575
886.15	20575
886.275	20355
886.4	20511
886.525	20541
886.65	20533
886.775	20408
886.9	20571
887.025	20686
887.149	20499
887.274	20298
887.399	20244
887.523	20256
887.648	20343
887.773	20305
887.897	20374
888.021	20461
888.146	20286
888.27	20450
888.395	20438
888.519	20393
888.643	20412
888.767	20343
888.891	20248
889.015	20153
889.139	20126
889.263	20142
889.387	20206
889.511	20377
889.635	20298
889.759	20180
889.883	20191
890.006	20240
890.13	20218
890.254	20126
890.377	20161
890.501	19879
890.624	19860
890.748	19871
890.871	19807
890.995	19807
891.118	19666
891.241	19753
891.364	19776
891.488	19902
891.611	19700
891.734	19647
891.857	19651
891.98	19734
892.103	19852
892.226	19674
892.349	19689
892.471	19529
892.594	19670
892.717	19715
892.839	19674
892.962	19719
893.085	19799
893.207	19662
893.33	19468
893.452	19487
893.575	19601
893.697	19624
893.819	19830
893.941	19944
894.064	19704
894.186	19647
894.308	19487
894.43	19689
894.552	19700
894.674	19788
894.796	19632
894.918	19704
895.04	19563
895.161	19651
895.283	19632
895.405	19647
895.526	19544
895.648	19578
895.769	19506
895.891	19628
896.012	19765
896.134	19765
896.255	19655
896.376	19632
896.498	19712
896.619	19643
896.74	19578
896.861	19708
896.982	19944
897.103	20027
897.224	19898
897.345	19826
897.466	19803
897.587	19814
897.708	20020
897.828	19913
897.949	19765
898.07	19658
898.19	19830
898.311	19902
898.431	19826
898.552	19940
898.672	19932
898.792	20058
898.913	19807
899.033	19738
899.153	19738
899.273	19594
899.393	19601
899.513	19609
899.633	19670
899.753	19658
899.873	19487
899.993	19670
900.113	19563
900.232	19601
900.352	19571
900.472	19415
900.591	19320
900.711	19396
900.83	19308
900.95	19559
901.069	19495
901.189	19293
901.308	19065
901.427	18973
901.546	18954
901.665	18947
901.784	18996
901.904	18745
902.023	18806
902.141	18551
902.26	18563
902.379	18635
902.498	18445
902.617	18597
902.735	18517
902.854	18517
902.973	18410
903.091	18209
903.21	18167
903.328	18243
903.446	18152
903.565	18068
903.683	17935
903.801	17973
903.919	17999
904.038	17885
904.156	17786
904.274	17790
904.392	17805
904.51	17783
904.627	17756
904.745	17840
904.863	17733
904.981	17653
905.098	17433
905.216	17452
905.334	17482
905.451	17436
905.569	17501
905.686	17535
905.803	17478
905.921	17349
906.038	17337
906.155	17189
906.272	17227
906.389	17117
906.506	16957
906.623	16892
906.74	16938
906.857	16919
906.974	16831
907.091	16999
907.208	17136
907.324	16980
907.441	16797
907.557	16797
907.674	16664
907.79	16558
907.907	16706
908.023	16653
908.139	16721
908.256	16558
908.372	16713
908.488	16546
908.604	16592
908.72	16440
908.836	16398
908.952	16356
909.068	16440
909.184	16500
909.3	16440
909.415	16466
909.531	16470
909.647	16261
909.762	16181
909.878	16093
909.993	16131
910.108	16101
910.224	16063
910.339	16074
910.454	15979
910.57	15915
910.685	15774
910.8	16074
910.915	16166
911.03	15987
911.145	15743
911.259	15713
911.374	15720
911.489	15557
911.604	15629
911.718	15382
911.833	15408
911.947	15397
912.062	15351
912.176	15412
912.291	15469
912.405	15496
912.519	15675
912.633	15648
912.748	15523
912.862	15458
912.976	15294
913.09	15237
913.204	15321
913.318	15367
913.431	15401
913.545	15386
913.659	15416
913.772	15294
913.886	15142
914	15157
914.113	15226
914.226	15226
914.34	15218
914.453	14986
914.566	15135
914.68	15032
914.793	14956
914.906	14815
915.019	14659
915.132	14659
915.245	14663
915.358	14834
915.47	14746
915.583	14655
915.696	14720
915.809	14804
915.921	14838
916.034	14686
916.146	14663
916.259	14613
916.371	14659
916.483	14689
916.595	14587
916.708	14492
916.82	14598
916.932	14575
917.044	14431
917.156	14514
917.268	14492
917.38	14351
917.491	14313
917.603	14396
917.715	14362
917.826	14476
917.938	14347
918.049	14164
918.161	14328
918.272	14480
918.384	14427
918.495	14400
918.606	14187
918.717	14111
918.828	14218
918.939	14180
919.05	14100
919.161	14134
919.272	13932
919.383	14024
919.494	14191
919.604	14381
919.715	14100
919.826	13986
919.936	14092
920.047	14092
920.157	14252
920.267	14278
920.378	14225
920.488	14084
920.598	14180
920.708	14377
920.818	14328
920.928	14271
921.038	14446
921.148	14332
921.258	14065
921.368	14065
921.477	13944
921.587	13852
921.697	13864
921.806	13856
921.916	13799
922.025	13613
922.134	13544
922.244	13449
922.353	13552
922.462	13525
922.571	13320
922.68	13278
922.789	13225
922.898	13160
923.007	13095
923.116	13312
923.224	13141
923.333	13118
923.442	12954
923.55	13038
923.659	12973
923.767	13053
923.876	12916
923.984	13160
924.092	12905
924.201	12909
924.309	12981
924.417	12935
924.525	12859
924.633	12795
924.741	13537
924.849	12669
924.956	12856
925.064	12665
925.172	12601
925.279	12589
925.387	12521
925.494	12544
925.602	12734
925.709	12642
925.816	12486
925.924	12532
926.031	12681
926.138	12597
926.245	12639
926.352	12433
926.459	12578
926.566	12623
926.673	12460
926.779	12452
926.886	12289
926.993	12292
927.099	12186
927.206	12171
927.312	12114
927.419	12251
927.525	12152
927.631	12216
927.737	12106
927.843	12030
927.95	12022
928.056	12072
928.162	12053
928.267	12106
928.373	12601
928.479	12072
928.585	11897
928.69	11958
928.796	11935
928.901	11977
929.007	11745
929.112	11965
929.218	11851
929.323	11737
929.428	11737
929.533	11897
929.638	11646
929.743	11680
929.848	11802
929.953	11703
930.058	11661
930.163	11410
930.267	11573
930.372	11566
930.477	11326
930.581	11672
930.685	11497
930.79	11376
930.894	11345
930.998	11284
931.103	11440
931.207	11098
931.311	10991
931.415	11025
931.519	10729
931.623	10744
