Data from test_V78500241_800.txt Node
Date: Fri Mar 25 15:15:25 CST 2022
User: usil
Spectrometer: V785-0024
Trigger mode: 0
Integration Time (sec): 4.000000E-1
Scans to average: 1
Nonlinearity correction enabled: false
Boxcar width: 0
Storing dark spectrum: false
XAxis mode: Wavelengths
Number of Pixels in Spectrum: 1024
>>>>>Begin Spectral Data<<<<<
801.071	28230
801.214	28173
801.356	28101
801.499	27922
801.641	27850
801.783	27857
801.926	28036
802.068	27736
802.211	27698
802.353	27587
802.496	27515
802.638	27473
802.78	27549
802.923	27348
803.065	27431
803.208	27443
803.35	27610
803.492	27443
803.635	27694
803.777	27526
803.919	27603
804.061	28017
804.204	27663
804.346	27572
804.488	27515
804.63	27663
804.773	27591
804.915	27705
805.057	27648
805.199	27656
805.341	27759
805.483	27880
805.626	27899
805.768	27720
805.91	27667
806.052	27835
806.194	27709
806.336	28010
806.478	27968
806.62	27926
806.762	27774
806.904	28139
807.046	28325
807.188	28158
807.33	28116
807.472	28173
807.614	28299
807.756	28211
807.898	28139
808.04	28074
808.182	28070
808.324	28067
808.465	27983
808.607	28257
808.749	28497
808.891	28538
809.033	28641
809.174	28588
809.316	28485
809.458	28485
809.6	28599
809.741	28577
809.883	28683
810.025	28820
810.166	28744
810.308	28679
810.45	28748
810.591	28847
810.733	28504
810.875	28436
811.016	28455
811.158	28291
811.299	28641
811.441	28668
811.582	28607
811.724	28478
811.865	28535
812.007	28379
812.148	28550
812.29	28436
812.431	28782
812.573	28843
812.714	28908
812.855	28896
812.997	29113
813.138	29273
813.279	29170
813.421	29121
813.562	29044
813.703	28915
813.845	28797
813.986	28409
814.127	28265
814.268	28272
814.41	28196
814.551	28249
814.692	28261
814.833	28226
814.974	28166
815.115	28257
815.256	28074
815.397	28131
815.539	28219
815.68	28017
815.821	27930
815.962	28036
816.103	27907
816.244	27926
816.385	27846
816.526	27838
816.666	27682
816.807	27629
816.948	27526
817.089	27686
817.23	27629
817.371	27644
817.512	27507
817.653	27530
817.793	27496
817.934	27633
818.075	27496
818.216	27534
818.356	27530
818.497	27462
818.638	27310
818.778	27226
818.919	27302
819.06	27412
819.2	27420
819.341	27557
819.481	27633
819.622	27667
819.762	27934
819.903	27838
820.043	27660
820.184	27751
820.324	27595
820.465	27698
820.605	27728
820.746	27641
820.886	27538
821.026	27519
821.167	27614
821.307	27618
821.447	27469
821.588	27454
821.728	27481
821.868	27135
822.008	27131
822.149	27074
822.289	27039
822.429	26625
822.569	26819
822.709	26796
822.849	26533
822.99	26606
823.13	26526
823.27	26503
823.41	26343
823.55	26248
823.69	26381
823.83	26362
823.97	26301
824.11	26237
824.25	26145
824.389	26130
824.529	26221
824.669	26107
824.809	26351
824.949	26263
825.089	26358
825.228	26100
825.368	26020
825.508	26046
825.648	26142
825.787	26077
825.927	26054
826.067	26027
826.206	26035
826.346	25936
826.485	25978
826.625	26046
826.765	26103
826.904	26039
827.044	25753
827.183	25803
827.323	25715
827.462	25826
827.601	25723
827.741	25738
827.88	25852
828.02	25556
828.159	25769
828.298	25784
828.437	25856
828.577	25651
828.716	25951
828.855	25632
828.994	25597
829.134	25495
829.273	25548
829.412	25563
829.551	25377
829.69	25377
829.829	25510
829.968	25491
830.107	25441
830.246	25502
830.385	25438
830.524	25263
830.663	25289
830.802	25160
830.941	25076
831.08	25103
831.219	25084
831.357	25133
831.496	25274
831.635	25099
831.774	24920
831.913	25076
832.051	24863
832.19	24783
832.329	24890
832.467	24757
832.606	24650
832.744	24696
832.883	24825
833.022	24844
833.16	24783
833.299	24760
833.437	24722
833.576	24787
833.714	24859
833.852	24840
833.991	24795
834.129	24738
834.267	24840
834.406	24882
834.544	24726
834.682	24802
834.821	24726
834.959	24909
835.097	24532
835.235	24791
835.373	24764
835.511	24802
835.65	24688
835.788	24639
835.926	24494
836.064	24471
836.202	24505
836.34	24620
836.478	24635
836.615	24582
836.753	24601
836.891	24707
837.029	24650
837.167	24642
837.305	24612
837.443	24502
837.58	24525
837.718	24627
837.856	24464
837.993	24319
838.131	24498
838.269	24311
838.406	24403
838.544	24186
838.681	24102
838.819	24091
838.956	23805
839.094	23889
839.231	23923
839.369	24098
839.506	24403
839.643	24129
839.781	23935
839.918	23904
840.055	23786
840.193	23901
840.33	23809
840.467	23748
840.604	23790
840.742	24220
840.879	23615
841.016	23756
841.153	23802
841.29	24034
841.427	23741
841.564	23764
841.701	23828
841.838	23783
841.975	23718
842.112	23752
842.249	23589
842.385	23562
842.522	23672
842.659	23585
842.796	23520
842.933	23570
843.069	23543
843.206	23531
843.343	23691
843.479	23611
843.616	23596
843.752	23303
843.889	23433
844.025	23478
844.162	23284
844.298	23467
844.435	23318
844.571	23330
844.708	23372
844.844	23516
844.98	23387
845.117	23501
845.253	23334
845.389	23239
845.525	23239
845.661	23223
845.798	23197
845.934	23124
846.07	23064
846.206	23151
846.342	23235
846.478	23079
846.614	22869
846.75	22839
846.886	22858
847.022	22904
847.158	22824
847.294	22854
847.429	22809
847.565	22729
847.701	23052
847.837	22577
847.972	22451
848.108	22668
848.244	22531
848.379	22523
848.515	22424
848.65	22538
848.786	22386
848.921	22436
849.057	22531
849.192	22580
849.328	22409
849.463	22538
849.598	22459
849.734	22371
849.869	22280
850.004	22200
850.14	22242
850.275	22173
850.41	22166
850.545	22150
850.68	22249
850.815	22322
850.95	22162
851.085	22295
851.22	22287
851.355	22230
851.49	22166
851.625	22112
851.76	22211
851.895	22067
852.03	21983
852.165	22116
852.299	22242
852.434	22356
852.569	22211
852.703	22112
852.838	22287
852.973	22303
853.107	22356
853.242	22093
853.376	21857
853.511	21915
853.645	21937
853.78	22048
853.914	21991
854.048	21956
854.183	21861
854.317	22070
854.451	22204
854.585	22044
854.72	22025
854.854	22162
854.988	21915
855.122	22086
855.256	21888
855.39	21956
855.524	22067
855.658	22036
855.792	22017
855.926	21968
856.06	22036
856.194	22040
856.327	21873
856.461	21960
856.595	21865
856.729	22032
856.862	22097
856.996	22093
857.13	22074
857.263	22147
857.397	22112
857.53	22002
857.664	22059
857.797	22154
857.931	22154
858.064	22097
858.197	22166
858.331	22006
858.464	21983
858.597	21991
858.731	21998
858.864	22002
858.997	21926
859.13	21838
859.263	22109
859.396	22101
859.529	21983
859.662	21899
859.795	21949
859.928	22040
860.061	22211
860.194	22204
860.327	22025
860.46	22078
860.592	22162
860.725	22185
860.858	22070
860.99	21998
861.123	21888
861.256	22048
861.388	21880
861.521	22713
861.653	21892
861.786	21785
861.918	21846
862.05	21846
862.183	21895
862.315	21899
862.447	21983
862.58	21987
862.712	21690
862.844	21663
862.976	21804
863.108	21694
863.24	22272
863.372	21622
863.504	21671
863.636	21633
863.768	21629
863.9	21789
864.032	21622
864.164	21656
864.296	21660
864.428	21793
864.559	21728
864.691	21804
864.823	21736
864.954	21698
865.086	21766
865.217	21785
865.349	21496
865.48	21557
865.612	21549
865.743	21770
865.875	21625
866.006	21633
866.137	21538
866.269	21622
866.4	21618
866.531	21545
866.662	21591
866.793	21530
866.924	21500
867.055	21583
867.186	21408
867.317	21462
867.448	21500
867.579	21443
867.71	21359
867.841	21431
867.972	21477
868.103	21454
868.233	21367
868.364	21534
868.495	21736
868.625	21781
868.756	21975
868.886	21682
869.017	21717
869.147	21899
869.278	21979
869.408	21759
869.539	21816
869.669	21838
869.799	21759
869.929	21884
870.06	21918
870.19	21968
870.32	22051
870.45	22204
870.58	22215
870.71	22268
870.84	22196
870.97	22162
871.1	22128
871.23	22196
871.36	22329
871.489	22295
871.619	22390
871.749	22405
871.879	22360
872.008	22421
872.138	22299
872.267	22455
872.397	22173
872.526	22177
872.656	22192
872.785	22246
872.915	22478
873.044	22440
873.173	22363
873.303	22386
873.432	22489
873.561	22489
873.69	22287
873.819	22459
873.948	22352
874.077	22192
874.206	22371
874.335	22310
874.464	22508
874.593	22660
874.722	22584
874.851	22645
874.979	22584
875.108	22618
875.237	22519
875.365	22417
875.494	22519
875.623	22660
875.751	22459
875.88	22603
876.008	22660
876.136	22774
876.265	22965
876.393	23056
876.521	22991
876.65	23064
876.778	22828
876.906	22930
877.034	22828
877.162	22900
877.29	22949
877.418	22896
877.546	22930
877.674	22873
877.802	23102
877.93	22805
878.058	22839
878.185	22949
878.313	22790
878.441	22957
878.568	22786
878.696	22900
878.824	22957
878.951	23060
879.079	23143
879.206	23273
879.333	23067
879.461	23029
879.588	22999
879.715	23117
879.842	23181
879.97	23083
880.097	22660
880.224	22812
880.351	22828
880.478	22831
880.605	22607
880.732	22782
880.859	22930
880.986	22725
881.112	22733
881.239	22546
881.366	22584
881.493	22398
881.619	22287
881.746	22284
881.872	22287
881.999	22306
882.125	22154
882.252	22306
882.378	22398
882.505	22402
882.631	22093
882.757	21907
882.883	22109
883.01	21930
883.136	21899
883.262	21812
883.388	21743
883.514	22074
883.64	21926
883.766	21869
883.892	21568
884.018	21778
884.143	21778
884.269	21983
884.395	21606
884.52	21705
884.646	21629
884.772	21583
884.897	21542
885.023	21698
885.148	21652
885.274	21701
885.399	21644
885.524	21500
885.65	21705
885.775	21641
885.9	21656
886.025	21660
886.15	21663
886.275	21591
886.4	21519
886.525	21568
886.65	21473
886.775	21606
886.9	21755
887.025	21686
887.149	21462
887.274	21374
887.399	21367
887.523	21401
887.648	21283
887.773	21325
887.897	21492
888.021	21462
888.146	21306
888.27	21389
888.395	21367
888.519	21386
888.643	21496
888.767	21408
888.891	21275
889.015	21165
889.139	21237
889.263	21157
889.387	21317
889.511	21412
889.635	21370
889.759	21039
889.883	21245
890.006	21256
890.13	21245
890.254	21131
890.377	21066
890.501	21085
890.624	20868
890.748	20937
890.871	20765
890.995	20765
891.118	20785
891.241	20777
891.364	20750
891.488	20823
891.611	20693
891.734	20731
891.857	20792
891.98	20785
892.103	20899
892.226	20686
892.349	20651
892.471	20636
892.594	20613
892.717	20686
892.839	20473
892.962	20640
893.085	20724
893.207	20564
893.33	20579
893.452	20606
893.575	20670
893.697	20541
893.819	20781
893.941	20682
894.064	20670
894.186	20564
894.308	20533
894.43	20663
894.552	20689
894.674	20765
894.796	20549
894.918	20579
895.04	20583
895.161	20541
895.283	20579
895.405	20564
895.526	20545
895.648	20549
895.769	20609
895.891	20655
896.012	20651
896.134	20629
896.255	20571
896.376	20632
896.498	20526
896.619	20629
896.74	20602
896.861	20590
896.982	20994
897.103	21161
897.224	20933
897.345	20750
897.466	20686
897.587	20769
897.708	21028
897.828	20872
897.949	20720
898.07	20621
898.19	20861
898.311	20914
898.431	20754
898.552	20868
898.672	20727
898.792	20864
898.913	20769
899.033	20667
899.153	20617
899.273	20537
899.393	20434
899.513	20560
899.633	20720
899.753	20670
899.873	20556
899.993	20651
900.113	20518
900.232	20419
900.352	20484
900.472	20393
900.591	20320
900.711	20404
900.83	20225
900.95	20389
901.069	20271
901.189	20214
901.308	20058
901.427	19982
901.546	20065
901.665	20008
901.784	19936
901.904	19841
902.023	19681
902.141	19396
902.26	19537
902.379	19605
902.498	19434
902.617	19358
902.735	19445
902.854	19415
902.973	19320
903.091	19213
903.21	19206
903.328	19168
903.446	18966
903.565	18951
903.683	18894
903.801	18745
903.919	18947
904.038	18776
904.156	18639
904.274	18658
904.392	18589
904.51	18665
904.627	18673
904.745	18783
904.863	18745
904.981	18528
905.098	18365
905.216	18395
905.334	18277
905.451	18437
905.569	18304
905.686	18403
905.803	18357
905.921	18182
906.038	18171
906.155	18167
906.272	18076
906.389	18106
906.506	17946
906.623	17977
906.74	17882
906.857	17859
906.974	17752
907.091	17912
907.208	17999
907.324	17923
907.441	17843
907.557	17684
907.674	17611
907.79	17505
907.907	17501
908.023	17630
908.139	17608
908.256	17585
908.372	17478
908.488	17516
908.604	17284
908.72	17235
908.836	17284
908.952	17322
909.068	17334
909.184	17429
909.3	17273
909.415	17410
909.531	17261
909.647	17018
909.762	17041
909.878	17102
909.993	17010
910.108	16987
910.224	16892
910.339	16957
910.454	16828
910.57	16782
910.685	16740
910.8	16946
910.915	17010
911.03	16778
911.145	16729
911.259	16550
911.374	16542
911.489	16599
911.604	16577
911.718	16303
911.833	16341
911.947	16200
912.062	16040
912.176	16329
912.291	16443
912.405	16303
912.519	16421
912.633	16504
912.748	16363
912.862	16246
912.976	16154
913.09	16078
913.204	16105
913.318	16048
913.431	16147
913.545	16246
913.659	16261
913.772	16086
913.886	16071
914	15915
914.113	16101
914.226	16082
914.34	16082
914.453	15888
914.566	16029
914.68	15804
914.793	15751
914.906	15679
915.019	15580
915.132	15477
915.245	15530
915.358	15549
915.47	15485
915.583	15538
915.696	15618
915.809	15656
915.921	15701
916.034	15374
916.146	15374
916.259	15431
916.371	15469
916.483	15477
916.595	15458
916.708	15420
916.82	15393
916.932	15344
917.044	15302
917.156	15306
917.268	15233
917.38	15226
917.491	15104
917.603	15211
917.715	15291
917.826	15272
917.938	15135
918.049	14963
918.161	15051
918.272	15226
918.384	15222
918.495	15077
918.606	14880
918.717	14868
918.828	14944
918.939	14883
919.05	14819
919.161	14979
919.272	14777
919.383	14670
919.494	14910
919.604	15131
919.715	14933
919.826	14769
919.936	14815
920.047	15047
920.157	14967
920.267	15108
920.378	14910
920.488	14921
920.598	14982
920.708	15146
920.818	15039
920.928	15081
921.038	15119
921.148	15036
921.258	14720
921.368	14838
921.477	14670
921.587	14530
921.697	14526
921.806	14613
921.916	14446
922.025	14202
922.134	14225
922.244	14149
922.353	14225
922.462	14218
922.571	14119
922.68	13936
922.789	13917
922.898	13883
923.007	13909
923.116	13974
923.224	13902
923.333	13875
923.442	13784
923.55	13666
923.659	13719
923.767	13761
923.876	13708
923.984	13704
924.092	13559
924.201	13693
924.309	13601
924.417	13590
924.525	13525
924.633	13590
924.741	14298
924.849	13411
924.956	13438
925.064	13369
925.172	13289
925.279	13274
925.387	13324
925.494	13255
925.602	13388
925.709	13255
925.816	13183
925.924	13251
926.031	13316
926.138	13122
926.245	13266
926.352	13084
926.459	13240
926.566	13377
926.673	13168
926.779	13050
926.886	12935
926.993	12817
927.099	12890
927.206	12776
927.312	12802
927.419	12882
927.525	12833
927.631	12882
927.737	12692
927.843	12658
927.95	12566
928.056	12719
928.162	12692
928.267	12700
928.373	13312
928.479	12604
928.585	12490
928.69	12551
928.796	12677
928.901	12483
929.007	12399
929.112	12513
929.218	12525
929.323	12445
929.428	12357
929.533	12528
929.638	12399
929.743	12391
929.848	12342
929.953	12304
930.058	12205
930.163	12064
930.267	12098
930.372	12110
930.477	12057
930.581	12327
930.685	12114
930.79	11969
930.894	11996
930.998	11969
931.103	12003
931.207	11710
931.311	11486
931.415	11452
931.519	11284
931.623	11277
