Data from test_V78500241_1948.txt Node
Date: Fri Mar 25 15:23:25 CST 2022
User: usil
Spectrometer: V785-0024
Trigger mode: 0
Integration Time (sec): 4.000000E-1
Scans to average: 1
Nonlinearity correction enabled: false
Boxcar width: 0
Storing dark spectrum: false
XAxis mode: Wavelengths
Number of Pixels in Spectrum: 1024
>>>>>Begin Spectral Data<<<<<
801.071	27504
801.214	27789
801.356	27454
801.499	27469
801.641	27252
801.783	27298
801.926	27382
802.068	27233
802.211	27199
802.353	27203
802.496	26918
802.638	26925
802.78	26933
802.923	26948
803.065	26857
803.208	26800
803.35	26971
803.492	26967
803.635	27119
803.777	26967
803.919	26998
804.061	27302
804.204	27108
804.346	26990
804.488	27020
804.63	27108
804.773	26918
804.915	27252
805.057	27252
805.199	27096
805.341	27123
805.483	27211
805.626	27184
805.768	27032
805.91	27169
806.052	27389
806.194	27161
806.336	27447
806.478	27233
806.62	27161
806.762	27325
806.904	27568
807.046	27709
807.188	27717
807.33	27656
807.472	27720
807.614	27599
807.756	27587
807.898	27454
808.04	27580
808.182	27519
808.324	27477
808.465	27488
808.607	27816
808.749	27850
808.891	27972
809.033	27926
809.174	27876
809.316	27770
809.458	27800
809.6	27850
809.741	28029
809.883	27949
810.025	28120
810.166	28055
810.308	28082
810.45	27964
810.591	27949
810.733	27747
810.875	27861
811.016	27728
811.158	27576
811.299	27899
811.441	28048
811.582	28017
811.724	27911
811.865	27785
812.007	27835
812.148	27865
812.29	27903
812.431	27987
812.573	28295
812.714	28348
812.855	28390
812.997	28447
813.138	28542
813.279	28546
813.421	28394
813.562	28306
813.703	28086
813.845	28078
813.986	27838
814.127	27747
814.268	27534
814.41	27629
814.551	27538
814.692	27549
814.833	27599
814.974	27500
815.115	27519
815.256	27443
815.397	27408
815.539	27511
815.68	27237
815.821	27226
815.962	27469
816.103	27382
816.244	27264
816.385	27055
816.526	27028
816.666	26914
816.807	26887
816.948	26788
817.089	26971
817.23	26849
817.371	26750
817.512	26830
817.653	26792
817.793	26758
817.934	26788
818.075	26880
818.216	26830
818.356	26842
818.497	26625
818.638	26560
818.778	26492
818.919	26651
819.06	26575
819.2	26720
819.341	26785
819.481	26724
819.622	26921
819.762	27135
819.903	27150
820.043	27036
820.184	26906
820.324	26880
820.465	26979
820.605	26986
820.746	26868
820.886	26796
821.026	26830
821.167	26811
821.307	26925
821.447	26960
821.588	26613
821.728	26583
821.868	26507
822.008	26275
822.149	26355
822.289	26240
822.429	25928
822.569	26031
822.709	26039
822.849	25826
822.99	25868
823.13	25795
823.27	25704
823.41	25681
823.55	25510
823.69	25468
823.83	25639
823.97	25529
824.11	25422
824.25	25544
824.389	25411
824.529	25533
824.669	25479
824.809	25540
824.949	25533
825.089	25518
825.228	25495
825.368	25228
825.508	25168
825.648	25236
825.787	25339
825.927	25247
826.067	25453
826.206	25266
826.346	25460
826.485	25438
826.625	25350
826.765	25358
826.904	25209
827.044	25031
827.183	25076
827.323	25023
827.462	25114
827.601	25046
827.741	25042
827.88	24981
828.02	24909
828.159	25019
828.298	24802
828.437	25015
828.577	24932
828.716	25000
828.855	24977
828.994	24821
829.134	24829
829.273	24856
829.412	24646
829.551	24616
829.69	24688
829.829	24669
829.968	24738
830.107	24779
830.246	24810
830.385	24734
830.524	24646
830.663	24563
830.802	24467
830.941	24410
831.08	24304
831.219	24437
831.357	24456
831.496	24612
831.635	24437
831.774	24273
831.913	24144
832.051	24182
832.19	24007
832.329	24178
832.467	23996
832.606	23927
832.744	24087
832.883	24121
833.022	24053
833.16	23954
833.299	24068
833.437	24262
833.576	24110
833.714	24095
833.852	24087
833.991	24220
834.129	24213
834.267	24110
834.406	24186
834.544	24064
834.682	24057
834.821	24087
834.959	24239
835.097	23931
835.235	24064
835.373	24026
835.511	24011
835.65	23965
835.788	24114
835.926	23840
836.064	23767
836.202	23726
836.34	24007
836.478	23889
836.615	23897
836.753	23939
836.891	24026
837.029	23840
837.167	23904
837.305	23718
837.443	23726
837.58	23745
837.718	23988
837.856	23786
837.993	23714
838.131	23752
838.269	23604
838.406	23714
838.544	23543
838.681	23379
838.819	23376
838.956	23216
839.094	23254
839.231	23254
839.369	23444
839.506	23657
839.643	23478
839.781	23265
839.918	23216
840.055	23143
840.193	23334
840.33	23231
840.467	23079
840.604	23280
840.742	23417
840.879	22930
841.016	23128
841.153	23105
841.29	23337
841.427	23044
841.564	23220
841.701	23121
841.838	23067
841.975	23086
842.112	23128
842.249	22942
842.385	22934
842.522	23113
842.659	22949
842.796	22911
842.933	22873
843.069	22755
843.206	22999
843.343	22911
843.479	22843
843.616	22980
843.752	22759
843.889	22660
844.025	22831
844.162	22694
844.298	22839
844.435	22675
844.571	22573
844.708	22679
844.844	22835
844.98	22786
845.117	22854
845.253	22622
845.389	22531
845.525	22455
845.661	22459
845.798	22424
845.934	22402
846.07	22322
846.206	22615
846.342	22653
846.478	22402
846.614	22162
846.75	22116
846.886	22116
847.022	22253
847.158	22166
847.294	22249
847.429	22261
847.565	22185
847.701	22352
847.837	21850
847.972	21873
848.108	21953
848.244	22040
848.379	21713
848.515	21720
848.65	21789
848.786	21781
848.921	21732
849.057	21907
849.192	21812
849.328	21778
849.463	21774
849.598	21720
849.734	21580
849.869	21603
850.004	21557
850.14	21614
850.275	21477
850.41	21317
850.545	21439
850.68	21492
850.815	21469
850.95	21507
851.085	21648
851.22	21603
851.355	21523
851.49	21629
851.625	21561
851.76	21488
851.895	21386
852.03	21351
852.165	21576
852.299	21523
852.434	21622
852.569	21450
852.703	21397
852.838	21606
852.973	21561
853.107	21591
853.242	21370
853.376	21386
853.511	21146
853.645	21378
853.78	21416
853.914	21249
854.048	21325
854.183	21325
854.317	21405
854.451	21595
854.585	21321
854.72	21329
854.854	21443
854.988	21302
855.122	21230
855.256	21138
855.39	21294
855.524	21310
855.658	21458
855.792	21249
855.926	21283
856.06	21340
856.194	21291
856.327	21237
856.461	21218
856.595	21272
856.729	21313
856.862	21428
856.996	21332
857.13	21348
857.263	21336
857.397	21450
857.53	21355
857.664	21359
857.797	21424
857.931	21450
858.064	21370
858.197	21500
858.331	21500
858.464	21211
858.597	21291
858.731	21249
858.864	21325
858.997	21272
859.13	21454
859.263	21367
859.396	21450
859.529	21184
859.662	21344
859.795	21237
859.928	21310
860.061	21401
860.194	21534
860.327	21462
860.46	21389
860.592	21458
860.725	21466
860.858	21576
860.99	21370
861.123	21291
861.256	21256
861.388	21252
861.521	22006
861.653	21161
861.786	21245
861.918	21127
862.05	21138
862.183	21237
862.315	21313
862.447	21264
862.58	21340
862.712	21096
862.844	20967
862.976	21055
863.108	21138
863.24	21462
863.372	21039
863.504	21047
863.636	21005
863.768	20975
863.9	21058
864.032	20891
864.164	20887
864.296	21127
864.428	21096
864.559	21047
864.691	21047
864.823	21077
864.954	20925
865.086	21123
865.217	21036
865.349	20891
865.48	20906
865.612	20975
865.743	21036
865.875	20921
866.006	20849
866.137	20933
866.269	20861
866.4	20868
866.531	20864
866.662	20765
866.793	20804
866.924	20727
867.055	20967
867.186	20880
867.317	20781
867.448	20674
867.579	20800
867.71	20712
867.841	20727
867.972	20830
868.103	20921
868.233	20868
868.364	20895
868.495	21028
868.625	21116
868.756	21218
868.886	20952
869.017	21036
869.147	21135
869.278	21135
869.408	21051
869.539	21150
869.669	21275
869.799	21203
869.929	21161
870.06	21218
870.19	21393
870.32	21488
870.45	21545
870.58	21553
870.71	21595
870.84	21583
870.97	21485
871.1	21564
871.23	21595
871.36	21606
871.489	21694
871.619	21622
871.749	21785
871.879	21743
872.008	21766
872.138	21781
872.267	21732
872.397	21641
872.526	21401
872.656	21450
872.785	21603
872.915	21724
873.044	21694
873.173	21789
873.303	21755
873.432	21774
873.561	21793
873.69	21770
873.819	21652
873.948	21823
874.077	21819
874.206	21762
874.335	21667
874.464	21781
874.593	21922
874.722	21922
874.851	21987
874.979	22029
875.108	21960
875.237	21960
875.365	21930
875.494	21823
875.623	22006
875.751	21994
875.88	21987
876.008	22021
876.136	22097
876.265	22371
876.393	22531
876.521	22417
876.65	22440
876.778	22333
876.906	22329
877.034	22249
877.162	22158
877.29	22249
877.418	22318
877.546	22284
877.674	22325
877.802	22287
877.93	22348
878.058	22249
878.185	22169
878.313	22131
878.441	22226
878.568	22105
878.696	22169
878.824	22253
878.951	22436
879.079	22474
879.206	22565
879.333	22432
879.461	22284
879.588	22424
879.715	22565
879.842	22557
879.97	22382
880.097	22112
880.224	22143
880.351	22135
880.478	22116
880.605	22044
880.732	22006
880.859	22310
880.986	22207
881.112	22139
881.239	21983
881.366	21857
881.493	21701
881.619	21690
881.746	21766
881.872	21846
881.999	21663
882.125	21641
882.252	21583
882.378	21614
882.505	21789
882.631	21462
882.757	21420
882.883	21515
883.01	21420
883.136	21306
883.262	21199
883.388	21329
883.514	21397
883.64	21462
883.766	21397
883.892	21123
884.018	21161
884.143	21344
884.269	21386
884.395	21180
884.52	20948
884.646	20994
884.772	20861
884.897	20952
885.023	21028
885.148	21188
885.274	21203
885.399	21252
885.524	21066
885.65	21093
885.775	20998
885.9	20902
886.025	21085
886.15	21104
886.275	20986
886.4	20937
886.525	21062
886.65	21070
886.775	20925
886.9	21032
887.025	21154
887.149	20952
887.274	20819
887.399	20842
887.523	20727
887.648	20811
887.773	20811
887.897	20891
888.021	20830
888.146	20769
888.27	20906
888.395	20960
888.519	20644
888.643	20830
888.767	20876
888.891	20792
889.015	20533
889.139	20629
889.263	20568
889.387	20693
889.511	20765
889.635	20758
889.759	20651
889.883	20556
890.006	20636
890.13	20655
890.254	20530
890.377	20541
890.501	20492
890.624	20332
890.748	20389
890.871	20180
890.995	20138
891.118	20073
891.241	20168
891.364	20142
891.488	20244
891.611	20100
891.734	20172
891.857	20271
891.98	20218
892.103	20237
892.226	20157
892.349	20149
892.471	20035
892.594	20092
892.717	20134
892.839	20084
892.962	20084
893.085	20103
893.207	20111
893.33	20054
893.452	20062
893.575	20081
893.697	20107
893.819	20278
893.941	20259
894.064	20229
894.186	20065
894.308	19970
894.43	20115
894.552	20119
894.674	20210
894.796	19940
894.918	20031
895.04	20073
895.161	20240
895.283	20138
895.405	20050
895.526	20027
895.648	19970
895.769	20012
895.891	20096
896.012	20244
896.134	20084
896.255	20138
896.376	20073
896.498	19989
896.619	20187
896.74	20046
896.861	20092
896.982	20385
897.103	20526
897.224	20298
897.345	20183
897.466	20157
897.587	20252
897.708	20396
897.828	20377
897.949	20355
898.07	20092
898.19	20278
898.311	20366
898.431	20332
898.552	20305
898.672	20484
898.792	20347
898.913	20256
899.033	20134
899.153	20145
899.273	20092
899.393	20016
899.513	20111
899.633	19997
899.753	20005
899.873	19997
899.993	20012
900.113	20027
900.232	20027
900.352	19951
900.472	19837
900.591	19841
900.711	19871
900.83	19753
900.95	19883
901.069	19940
901.189	19807
901.308	19426
901.427	19453
901.546	19384
901.665	19263
901.784	19468
901.904	19183
902.023	19114
902.141	18958
902.26	18954
902.379	18958
902.498	18894
902.617	18859
902.735	18890
902.854	19027
902.973	18913
903.091	18631
903.21	18544
903.328	18559
903.446	18547
903.565	18490
903.683	18528
903.801	18319
903.919	18418
904.038	18384
904.156	18213
904.274	18251
904.392	18201
904.51	18106
904.627	18110
904.745	18121
904.863	18205
904.981	18007
905.098	17901
905.216	17897
905.334	17783
905.451	17870
905.569	17729
905.686	17775
905.803	17912
905.921	17634
906.038	17718
906.155	17684
906.272	17573
906.389	17505
906.506	17345
906.623	17379
906.74	17387
906.857	17254
906.974	17254
907.091	17368
907.208	17497
907.324	17398
907.441	17250
907.557	17071
907.674	17037
907.79	17052
907.907	17060
908.023	17109
908.139	17045
908.256	16999
908.372	17010
908.488	16984
908.604	16763
908.72	16839
908.836	16793
908.952	16729
909.068	16850
909.184	16869
909.3	16873
909.415	16847
909.531	16835
909.647	16554
909.762	16519
909.878	16402
909.993	16634
910.108	16489
910.224	16481
910.339	16542
910.454	16375
910.57	16379
910.685	16329
910.8	16554
910.915	16493
911.03	16234
911.145	16177
911.259	16067
911.374	16074
911.489	15972
911.604	16032
911.718	15819
911.833	15698
911.947	15774
912.062	15591
912.176	15861
912.291	15945
912.405	15838
912.519	16078
912.633	15949
912.748	15804
912.862	15816
912.976	15656
913.09	15576
913.204	15694
913.318	15679
913.431	15785
913.545	15739
913.659	15739
913.772	15561
913.886	15492
914	15401
914.113	15618
914.226	15564
914.34	15447
914.453	15435
914.566	15428
914.68	15416
914.793	15332
914.906	15089
915.019	15085
915.132	15047
915.245	14971
915.358	15055
915.47	15036
915.583	15150
915.696	15074
915.809	15146
915.921	15275
916.034	14937
916.146	14982
916.259	14960
916.371	15009
916.483	15017
916.595	14963
916.708	14800
916.82	14929
916.932	14883
917.044	14826
917.156	14918
917.268	14739
917.38	14731
917.491	14674
917.603	14705
917.715	14792
917.826	14762
917.938	14651
918.049	14545
918.161	14655
918.272	14785
918.384	14758
918.495	14670
918.606	14560
918.717	14461
918.828	14465
918.939	14473
919.05	14370
919.161	14537
919.272	14275
919.383	14309
919.494	14473
919.604	14590
919.715	14545
919.826	14332
919.936	14351
920.047	14465
920.157	14450
920.267	14613
920.378	14457
920.488	14358
920.598	14617
920.708	14655
920.818	14526
920.928	14503
921.038	14758
921.148	14682
921.258	14393
921.368	14233
921.477	14157
921.587	14183
921.697	14012
921.806	14183
921.916	14065
922.025	13807
922.134	13860
922.244	13807
922.353	13890
922.462	13757
922.571	13597
922.68	13537
922.789	13369
922.898	13548
923.007	13518
923.116	13548
923.224	13460
923.333	13388
923.442	13320
923.55	13320
923.659	13263
923.767	13369
923.876	13266
923.984	13384
924.092	13232
924.201	13217
924.309	13251
924.417	13228
924.525	13149
924.633	13164
924.741	14069
924.849	12989
924.956	13114
925.064	12989
925.172	12932
925.279	12897
925.387	12920
925.494	12875
925.602	13000
925.709	12897
925.816	12734
925.924	12848
926.031	12913
926.138	12852
926.245	12890
926.352	12700
926.459	12882
926.566	12844
926.673	12719
926.779	12597
926.886	12722
926.993	12540
927.099	12490
927.206	12437
927.312	12369
927.419	12456
927.525	12395
927.631	12509
927.737	12361
927.843	12403
927.95	12163
928.056	12266
928.162	12220
928.267	12251
928.373	12791
928.479	12399
928.585	12121
928.69	12235
928.796	12220
928.901	12041
929.007	12117
929.112	12148
929.218	12125
929.323	12030
929.428	11965
929.533	12117
929.638	11912
929.743	11973
929.848	11950
929.953	11889
930.058	11923
930.163	11718
930.267	11661
930.372	11866
930.477	11649
930.581	11866
930.685	11752
930.79	11589
930.894	11573
930.998	11474
931.103	11714
931.207	11334
931.311	11288
931.415	11064
931.519	10961
931.623	11037
