Data from test_V78500241_695.txt Node
Date: Fri Mar 25 15:14:41 CST 2022
User: usil
Spectrometer: V785-0024
Trigger mode: 0
Integration Time (sec): 4.000000E-1
Scans to average: 1
Nonlinearity correction enabled: false
Boxcar width: 0
Storing dark spectrum: false
XAxis mode: Wavelengths
Number of Pixels in Spectrum: 1024
>>>>>Begin Spectral Data<<<<<
801.071	28139
801.214	28029
801.356	27892
801.499	27766
801.641	27637
801.783	27762
801.926	27675
802.068	27526
802.211	27454
802.353	27656
802.496	27389
802.638	27370
802.78	27321
802.923	27291
803.065	27401
803.208	27294
803.35	27340
803.492	27488
803.635	27526
803.777	27427
803.919	27416
804.061	27743
804.204	27492
804.346	27504
804.488	27500
804.63	27519
804.773	27477
804.915	27511
805.057	27751
805.199	27564
805.341	27542
805.483	27591
805.626	27686
805.768	27545
805.91	27583
806.052	27660
806.194	27580
806.336	27930
806.478	27770
806.62	27682
806.762	27717
806.904	27914
807.046	28192
807.188	28040
807.33	27998
807.472	28192
807.614	28021
807.756	27983
807.898	27850
808.04	27895
808.182	27991
808.324	27991
808.465	27953
808.607	28215
808.749	28337
808.891	28360
809.033	28375
809.174	28329
809.316	28310
809.458	28390
809.6	28421
809.741	28360
809.883	28634
810.025	28668
810.166	28778
810.308	28710
810.45	28645
810.591	28656
810.733	28386
810.875	28242
811.016	28200
811.158	28219
811.299	28394
811.441	28390
811.582	28440
811.724	28344
811.865	28360
812.007	28493
812.148	28295
812.29	28401
812.431	28466
812.573	28607
812.714	28824
812.855	28809
812.997	29037
813.138	29117
813.279	28991
813.421	28999
813.562	28835
813.703	28687
813.845	28713
813.986	28272
814.127	28344
814.268	28150
814.41	27930
814.551	28112
814.692	28265
814.833	28036
814.974	27991
815.115	28139
815.256	27972
815.397	27987
815.539	27930
815.68	27903
815.821	27739
815.962	27899
816.103	27922
816.244	27675
816.385	27720
816.526	27633
816.666	27473
816.807	27302
816.948	27344
817.089	27599
817.23	27405
817.371	27313
817.512	27291
817.653	27405
817.793	27325
817.934	27378
818.075	27348
818.216	27332
818.356	27233
818.497	27222
818.638	27085
818.778	27150
818.919	27104
819.06	27070
819.2	27222
819.341	27313
819.481	27393
819.622	27606
819.762	27606
819.903	27698
820.043	27633
820.184	27523
820.324	27370
820.465	27610
820.605	27542
820.746	27397
820.886	27374
821.026	27458
821.167	27332
821.307	27511
821.447	27332
821.588	27302
821.728	27203
821.868	26940
822.008	26800
822.149	26853
822.289	26769
822.429	26480
822.569	26644
822.709	26408
822.849	26374
822.99	26389
823.13	26187
823.27	26313
823.41	26305
823.55	26088
823.69	26164
823.83	26161
823.97	26210
824.11	26020
824.25	25947
824.389	25955
824.529	26065
824.669	25894
824.809	26012
824.949	26054
825.089	26001
825.228	25947
825.368	25944
825.508	25864
825.648	25940
825.787	25894
825.927	25932
826.067	25959
826.206	25765
826.346	25871
826.485	25917
826.625	25868
826.765	25894
826.904	25849
827.044	25655
827.183	25613
827.323	25575
827.462	25605
827.601	25674
827.741	25575
827.88	25582
828.02	25529
828.159	25449
828.298	25658
828.437	25594
828.577	25639
828.716	25613
828.855	25384
828.994	25236
829.134	25320
829.273	25251
829.412	25304
829.551	25278
829.69	25240
829.829	25308
829.968	25358
830.107	25255
830.246	25293
830.385	25187
830.524	25156
830.663	24962
830.802	24935
830.941	24935
831.08	24928
831.219	24939
831.357	24973
831.496	25053
831.635	24905
831.774	24787
831.913	24806
832.051	24654
832.19	24612
832.329	24681
832.467	24547
832.606	24517
832.744	24369
832.883	24578
833.022	24570
833.16	24551
833.299	24639
833.437	24578
833.576	24700
833.714	24677
833.852	24589
833.991	24760
834.129	24745
834.267	24726
834.406	24616
834.544	24544
834.682	24719
834.821	24616
834.959	24719
835.097	24502
835.235	24646
835.373	24639
835.511	24574
835.65	24437
835.788	24566
835.926	24277
836.064	24216
836.202	24350
836.34	24445
836.478	24410
836.615	24369
836.753	24437
836.891	24502
837.029	24544
837.167	24479
837.305	24353
837.443	24376
837.58	24346
837.718	24308
837.856	24281
837.993	24133
838.131	24273
838.269	24258
838.406	24098
838.544	24003
838.681	24030
838.819	23904
838.956	23847
839.094	23691
839.231	23786
839.369	23874
839.506	24140
839.643	23935
839.781	23638
839.918	23646
840.055	23695
840.193	23592
840.33	23577
840.467	23646
840.604	23790
840.742	23912
840.879	23551
841.016	23608
841.153	23592
841.29	23657
841.427	23505
841.564	23729
841.701	23600
841.838	23672
841.975	23452
842.112	23615
842.249	23448
842.385	23554
842.522	23577
842.659	23349
842.796	23417
842.933	23478
843.069	23429
843.206	23505
843.343	23414
843.479	23493
843.616	23364
843.752	23220
843.889	23220
844.025	23277
844.162	23178
844.298	23258
844.435	23197
844.571	23136
844.708	23223
844.844	23242
844.98	23299
845.117	23269
845.253	23086
845.389	23143
845.525	23235
845.661	23018
845.798	22980
845.934	22908
846.07	22900
846.206	22946
846.342	23003
846.478	23022
846.614	22782
846.75	22497
846.886	22561
847.022	22824
847.158	22702
847.294	22828
847.429	22668
847.565	22538
847.701	22793
847.837	22531
847.972	22409
848.108	22478
848.244	22356
848.379	22253
848.515	22276
848.65	22158
848.786	22162
848.921	22150
849.057	22291
849.192	22238
849.328	22265
849.463	22367
849.598	22196
849.734	22124
849.869	22234
850.004	22082
850.14	22029
850.275	21991
850.41	21979
850.545	22074
850.68	21979
850.815	22040
850.95	21934
851.085	22135
851.22	22036
851.355	22021
851.49	21964
851.625	22128
851.76	21934
851.895	21804
852.03	21884
852.165	21991
852.299	22025
852.434	22051
852.569	21968
852.703	22074
852.838	21987
852.973	22181
853.107	22105
853.242	21915
853.376	21804
853.511	21762
853.645	21789
853.78	21899
853.914	21759
854.048	21751
854.183	21880
854.317	21865
854.451	22051
854.585	21720
854.72	21800
854.854	21892
854.988	21854
855.122	21800
855.256	21701
855.39	21865
855.524	21903
855.658	21953
855.792	21865
855.926	21804
856.06	21804
856.194	21895
856.327	21819
856.461	21728
856.595	21762
856.729	21880
856.862	21968
856.996	21789
857.13	21717
857.263	21857
857.397	21964
857.53	21964
857.664	21838
857.797	21739
857.931	21865
858.064	21899
858.197	21979
858.331	21880
858.464	21625
858.597	21755
858.731	21865
858.864	21778
858.997	21705
859.13	21739
859.263	21797
859.396	21873
859.529	21812
859.662	21835
859.795	21846
859.928	21842
860.061	21956
860.194	22055
860.327	21899
860.46	21892
860.592	21930
860.725	22036
860.858	21953
860.99	21918
861.123	21698
861.256	21892
861.388	21842
861.521	22550
861.653	21827
861.786	21473
861.918	21644
862.05	21747
862.183	21743
862.315	21755
862.447	21713
862.58	21800
862.712	21526
862.844	21481
862.976	21564
863.108	21637
863.24	21922
863.372	21412
863.504	21644
863.636	21538
863.768	21542
863.9	21523
864.032	21374
864.164	21439
864.296	21595
864.428	21686
864.559	21663
864.691	21614
864.823	21447
864.954	21576
865.086	21439
865.217	21378
865.349	21374
865.48	21416
865.612	21256
865.743	21519
865.875	21500
866.006	21469
866.137	21454
866.269	21515
866.4	21329
866.531	21245
866.662	21408
866.793	21408
866.924	21367
867.055	21351
867.186	21348
867.317	21359
867.448	21241
867.579	21249
867.71	21119
867.841	21294
867.972	21332
868.103	21401
868.233	21283
868.364	21329
868.495	21523
868.625	21564
868.756	21641
868.886	21534
869.017	21435
869.147	21755
869.278	21618
869.408	21633
869.539	21660
869.669	21709
869.799	21682
869.929	21759
870.06	21667
870.19	21930
870.32	21930
870.45	21816
870.58	22112
870.71	22032
870.84	22032
870.97	21865
871.1	21987
871.23	22211
871.36	22135
871.489	21994
871.619	22185
871.749	22169
871.879	22116
872.008	22226
872.138	22177
872.267	22070
872.397	21987
872.526	21949
872.656	21998
872.785	21960
872.915	22181
873.044	22249
873.173	22154
873.303	22192
873.432	22226
873.561	22363
873.69	22200
873.819	22162
873.948	22287
874.077	22162
874.206	22131
874.335	22169
874.464	22280
874.593	22466
874.722	22363
874.851	22497
874.979	22504
875.108	22303
875.237	22462
875.365	22310
875.494	22447
875.623	22443
875.751	22314
875.88	22508
876.008	22607
876.136	22542
876.265	22748
876.393	22984
876.521	22896
876.65	22957
876.778	22729
876.906	22672
877.034	22656
877.162	22763
877.29	22683
877.418	22824
877.546	22721
877.674	22592
877.802	22748
877.93	22649
878.058	22694
878.185	22561
878.313	22584
878.441	22717
878.568	22519
878.696	22828
878.824	22656
878.951	22828
879.079	22927
879.206	23098
879.333	22927
879.461	22809
879.588	22889
879.715	22900
879.842	23022
879.97	22881
880.097	22584
880.224	22516
880.351	22645
880.478	22550
880.605	22538
880.732	22584
880.859	22904
880.986	22554
881.112	22622
881.239	22333
881.366	22306
881.493	22215
881.619	22261
881.746	22169
881.872	22166
881.999	22204
882.125	22112
882.252	22154
882.378	22131
882.505	22166
882.631	22017
882.757	21869
882.883	21926
883.01	21781
883.136	21781
883.262	21682
883.388	21720
883.514	21857
883.64	21899
883.766	21747
883.892	21675
884.018	21545
884.143	21739
884.269	21759
884.395	21469
884.52	21416
884.646	21454
884.772	21447
884.897	21382
885.023	21542
885.148	21618
885.274	21641
885.399	21660
885.524	21485
885.65	21477
885.775	21447
885.9	21439
886.025	21485
886.15	21507
886.275	21458
886.4	21298
886.525	21557
886.65	21351
886.775	21428
886.9	21576
887.025	21591
887.149	21340
887.274	21302
887.399	21211
887.523	21188
887.648	21135
887.773	21154
887.897	21268
888.021	21287
888.146	21119
888.27	21298
888.395	21397
888.519	21207
888.643	21416
888.767	21344
888.891	21104
889.015	20967
889.139	21104
889.263	20986
889.387	21093
889.511	21275
889.635	21135
889.759	21005
889.883	20918
890.006	21001
890.13	20941
890.254	21013
890.377	20887
890.501	20758
890.624	20670
890.748	20868
890.871	20746
890.995	20476
891.118	20492
891.241	20587
891.364	20640
891.488	20708
891.611	20617
891.734	20609
891.857	20590
891.98	20541
892.103	20575
892.226	20583
892.349	20537
892.471	20309
892.594	20457
892.717	20393
892.839	20412
892.962	20450
893.085	20541
893.207	20484
893.33	20396
893.452	20381
893.575	20518
893.697	20545
893.819	20670
893.941	20644
894.064	20568
894.186	20465
894.308	20438
894.43	20537
894.552	20609
894.674	20473
894.796	20404
894.918	20408
895.04	20495
895.161	20480
895.283	20412
895.405	20457
895.526	20461
895.648	20423
895.769	20560
895.891	20503
896.012	20492
896.134	20568
896.255	20590
896.376	20362
896.498	20358
896.619	20438
896.74	20469
896.861	20594
896.982	20876
897.103	20956
897.224	20849
897.345	20758
897.466	20743
897.587	20682
897.708	20861
897.828	20651
897.949	20575
898.07	20511
898.19	20571
898.311	20708
898.431	20644
898.552	20739
898.672	20708
898.792	20667
898.913	20632
899.033	20514
899.153	20507
899.273	20396
899.393	20454
899.513	20606
899.633	20526
899.753	20393
899.873	20358
899.993	20503
900.113	20336
900.232	20480
900.352	20366
900.472	20286
900.591	20313
900.711	20199
900.83	20142
900.95	20358
901.069	20408
901.189	20119
901.308	19883
901.427	19753
901.546	19860
901.665	19826
901.784	19761
901.904	19791
902.023	19548
902.141	19392
902.26	19430
902.379	19441
902.498	19346
902.617	19293
902.735	19312
902.854	19327
902.973	19171
903.091	19050
903.21	18996
903.328	18875
903.446	18856
903.565	18703
903.683	18783
903.801	18665
903.919	18722
904.038	18703
904.156	18483
904.274	18616
904.392	18509
904.51	18456
904.627	18498
904.745	18544
904.863	18620
904.981	18273
905.098	18239
905.216	18213
905.334	18194
905.451	18155
905.569	18182
905.686	18292
905.803	18201
905.921	17942
906.038	18030
906.155	17961
906.272	17863
906.389	18079
906.506	17627
906.623	17729
906.74	17680
906.857	17596
906.974	17649
907.091	17866
907.208	17897
907.324	17661
907.441	17608
907.557	17558
907.674	17512
907.79	17341
907.907	17345
908.023	17478
908.139	17417
908.256	17379
908.372	17334
908.488	17345
908.604	17292
908.72	17098
908.836	17086
908.952	17086
909.068	17022
909.184	17242
909.3	17178
909.415	17113
909.531	17189
909.647	16858
909.762	16809
909.878	16736
909.993	16877
910.108	16930
910.224	16771
910.339	16660
910.454	16691
910.57	16641
910.685	16523
910.8	16835
910.915	16854
911.03	16664
911.145	16500
911.259	16497
911.374	16390
911.489	16371
911.604	16276
911.718	16131
911.833	16265
911.947	16135
912.062	16040
912.176	16078
912.291	16131
912.405	16238
912.519	16299
912.633	16314
912.748	16291
912.862	16116
912.976	16025
913.09	15876
913.204	15956
913.318	16078
913.431	16135
913.545	16090
913.659	16040
913.772	15922
913.886	15793
914	15762
914.113	15953
914.226	15797
914.34	15861
914.453	15774
914.566	15789
914.68	15686
914.793	15637
914.906	15420
915.019	15492
915.132	15340
915.245	15473
915.358	15416
915.47	15317
915.583	15412
915.696	15412
915.809	15549
915.921	15397
916.034	15340
916.146	15256
916.259	15310
916.371	15351
916.483	15355
916.595	15131
916.708	15188
916.82	15150
916.932	15241
917.044	15161
917.156	15112
917.268	15135
917.38	15058
917.491	15066
917.603	15043
917.715	15074
917.826	15146
917.938	14975
918.049	14861
918.161	14979
918.272	15150
918.384	15131
918.495	14845
918.606	14853
918.717	14769
918.828	14849
918.939	14823
919.05	14716
919.161	14705
919.272	14526
919.383	14651
919.494	14819
919.604	14982
919.715	14724
919.826	14682
919.936	14849
920.047	14838
920.157	14781
920.267	14921
920.378	14773
920.488	14739
920.598	14868
920.708	15047
920.818	14845
920.928	14853
921.038	14963
921.148	15043
921.258	14640
921.368	14560
921.477	14484
921.587	14423
921.697	14385
921.806	14476
921.916	14225
922.025	14210
922.134	14176
922.244	14081
922.353	14183
922.462	14005
922.571	13963
922.68	13791
922.789	13636
922.898	13719
923.007	13696
923.116	13814
923.224	13704
923.333	13693
923.442	13613
923.55	13548
923.659	13677
923.767	13559
923.876	13499
923.984	13639
924.092	13369
924.201	13567
924.309	13521
924.417	13510
924.525	13324
924.633	13362
924.741	14225
924.849	13198
924.956	13362
925.064	13164
925.172	13164
925.279	13072
925.387	13209
925.494	13240
925.602	13312
925.709	13137
925.816	13046
925.924	13072
926.031	13141
926.138	13118
926.245	13046
926.352	12947
926.459	13160
926.566	13137
926.673	13008
926.779	12924
926.886	12954
926.993	12707
927.099	12787
927.206	12764
927.312	12650
927.419	12764
927.525	12688
927.631	12696
927.737	12669
927.843	12536
927.95	12441
928.056	12464
928.162	12570
928.267	12582
928.373	13225
928.479	12608
928.585	12365
928.69	12502
928.796	12494
928.901	12407
929.007	12239
929.112	12369
929.218	12338
929.323	12357
929.428	12213
929.533	12437
929.638	12209
929.743	12148
929.848	12243
929.953	12186
930.058	12083
930.163	11969
930.267	11954
930.372	12072
930.477	11927
930.581	12194
930.685	12026
930.79	11809
930.894	11832
930.998	11786
931.103	11878
931.207	11516
931.311	11474
931.415	11364
931.519	11181
931.623	11136
