Data from test_V78500241_3470.txt Node
Date: Fri Mar 25 15:34:01 CST 2022
User: usil
Spectrometer: V785-0024
Trigger mode: 0
Integration Time (sec): 4.000000E-1
Scans to average: 1
Nonlinearity correction enabled: false
Boxcar width: 0
Storing dark spectrum: false
XAxis mode: Wavelengths
Number of Pixels in Spectrum: 1024
>>>>>Begin Spectral Data<<<<<
801.071	27382
801.214	27214
801.356	27104
801.499	27028
801.641	26914
801.783	26857
801.926	26800
802.068	26899
802.211	26632
802.353	26716
802.496	26522
802.638	26473
802.78	26461
802.923	26457
803.065	26282
803.208	26377
803.35	26412
803.492	26469
803.635	26640
803.777	26393
803.919	26575
804.061	26990
804.204	26571
804.346	26587
804.488	26480
804.63	26533
804.773	26537
804.915	26537
805.057	26701
805.199	26476
805.341	26663
805.483	26785
805.626	26568
805.768	26606
805.91	26625
806.052	26765
806.194	26655
806.336	26895
806.478	26606
806.62	26716
806.762	26853
806.904	26902
807.046	27192
807.188	27116
807.33	27138
807.472	27306
807.614	27077
807.756	27074
807.898	26899
808.04	26914
808.182	26792
808.324	26811
808.465	26891
808.607	27207
808.749	27420
808.891	27340
809.033	27504
809.174	27462
809.316	27275
809.458	27135
809.6	27252
809.741	27393
809.883	27439
810.025	27553
810.166	27488
810.308	27568
810.45	27447
810.591	27454
810.733	27443
810.875	27226
811.016	27173
811.158	27245
811.299	27405
811.441	27424
811.582	27481
811.724	27405
811.865	27180
812.007	27332
812.148	27317
812.29	27447
812.431	27420
812.573	27557
812.714	27774
812.855	27808
812.997	27846
813.138	28059
813.279	27876
813.421	27804
813.562	27800
813.703	27724
813.845	27466
813.986	27146
814.127	27039
814.268	26861
814.41	26956
814.551	27096
814.692	27066
814.833	26998
814.974	26857
815.115	27039
815.256	26785
815.397	26811
815.539	26861
815.68	26845
815.821	26659
815.962	26750
816.103	26701
816.244	26651
816.385	26396
816.526	26518
816.666	26256
816.807	26374
816.948	26256
817.089	26355
817.23	26199
817.371	26161
817.512	26157
817.653	26218
817.793	26161
817.934	26088
818.075	26263
818.216	26271
818.356	26164
818.497	26084
818.638	25993
818.778	25936
818.919	26016
819.06	26020
819.2	26122
819.341	26130
819.481	26134
819.622	26320
819.762	26514
819.903	26442
820.043	26461
820.184	26408
820.324	26313
820.465	26385
820.605	26229
820.746	26214
820.886	26031
821.026	26351
821.167	26183
821.307	26252
821.447	26214
821.588	26077
821.728	25936
821.868	25799
822.008	25556
822.149	25597
822.289	25647
822.429	25468
822.569	25403
822.709	25422
822.849	25240
822.99	25175
823.13	25160
823.27	25209
823.41	25027
823.55	24875
823.69	25076
823.83	25023
823.97	24894
824.11	24878
824.25	24726
824.389	24654
824.529	24844
824.669	24753
824.809	24886
824.949	24905
825.089	25019
825.228	24852
825.368	24684
825.508	24623
825.648	24673
825.787	24688
825.927	24875
826.067	24673
826.206	24787
826.346	24639
826.485	24787
826.625	24833
826.765	24798
826.904	24726
827.044	24669
827.183	24585
827.323	24486
827.462	24315
827.601	24262
827.741	24483
827.88	24467
828.02	24258
828.159	24384
828.298	24350
828.437	24502
828.577	24251
828.716	24456
828.855	24410
828.994	24038
829.134	24171
829.273	24053
829.412	24247
829.551	24076
829.69	24155
829.829	24129
829.968	24060
830.107	24285
830.246	24190
830.385	24148
830.524	24030
830.663	23942
830.802	23847
830.941	23756
831.08	23657
831.219	23855
831.357	23741
831.496	23874
831.635	23646
831.774	23710
831.913	23573
832.051	23440
832.19	23558
832.329	23501
832.467	23395
832.606	23406
832.744	23414
832.883	23406
833.022	23360
833.16	23474
833.299	23417
833.437	23497
833.576	23520
833.714	23455
833.852	23687
833.991	23577
834.129	23638
834.267	23547
834.406	23516
834.544	23611
834.682	23474
834.821	23383
834.959	23627
835.097	23292
835.235	23512
835.373	23383
835.511	23505
835.65	23269
835.788	23353
835.926	23170
836.064	23132
836.202	23155
836.34	23360
836.478	23303
836.615	23341
836.753	23315
836.891	23379
837.029	23383
837.167	23303
837.305	23178
837.443	23166
837.58	23121
837.718	23273
837.856	23311
837.993	23128
838.131	23136
838.269	23022
838.406	23022
838.544	22987
838.681	22869
838.819	22915
838.956	22668
839.094	22637
839.231	22698
839.369	22839
839.506	22957
839.643	22991
839.781	22580
839.918	22565
840.055	22691
840.193	22736
840.33	22569
840.467	22474
840.604	22569
840.742	22862
840.879	22497
841.016	22519
841.153	22592
841.29	22675
841.427	22580
841.564	22573
841.701	22717
841.838	22481
841.975	22440
842.112	22409
842.249	22466
842.385	22451
842.522	22599
842.659	22443
842.796	22432
842.933	22329
843.069	22337
843.206	22398
843.343	22390
843.479	22318
843.616	22447
843.752	22177
843.889	22124
844.025	22318
844.162	22139
844.298	22105
844.435	22158
844.571	21960
844.708	22139
844.844	22265
844.98	22185
845.117	22223
845.253	22124
845.389	22090
845.525	21979
845.661	21953
845.798	21911
845.934	21793
846.07	21880
846.206	21880
846.342	21778
846.478	21705
846.614	21667
846.75	21485
846.886	21717
847.022	21667
847.158	21652
847.294	21755
847.429	21713
847.565	21583
847.701	21865
847.837	21245
847.972	21252
848.108	21317
848.244	21397
848.379	21279
848.515	21150
848.65	21218
848.786	21218
848.921	21165
849.057	21283
849.192	21154
849.328	21252
849.463	21169
849.598	21150
849.734	20994
849.869	21039
850.004	20990
850.14	20895
850.275	21001
850.41	20979
850.545	20963
850.68	20952
850.815	20979
850.95	20990
851.085	21154
851.22	20994
851.355	20986
851.49	20979
851.625	20895
851.76	20944
851.895	20933
852.03	20849
852.165	20941
852.299	21036
852.434	20975
852.569	21043
852.703	20899
852.838	20937
852.973	21108
853.107	21074
853.242	20944
853.376	20769
853.511	20625
853.645	20689
853.78	20902
853.914	20948
854.048	20606
854.183	20781
854.317	20826
854.451	20956
854.585	20758
854.72	20853
854.854	20895
854.988	20712
855.122	20765
855.256	20594
855.39	20716
855.524	20880
855.658	20842
855.792	20872
855.926	20689
856.06	20895
856.194	20883
856.327	20724
856.461	20663
856.595	20598
856.729	20765
856.862	20960
856.996	20758
857.13	20807
857.263	20883
857.397	20861
857.53	20815
857.664	20921
857.797	20845
857.931	20887
858.064	20796
858.197	20868
858.331	20826
858.464	20724
858.597	20640
858.731	20720
858.864	20769
858.997	20693
859.13	20796
859.263	20823
859.396	20952
859.529	20705
859.662	20842
859.795	20769
859.928	20857
860.061	20868
860.194	20925
860.327	20921
860.46	20758
860.592	20819
860.725	20842
860.858	20929
860.99	20720
861.123	20762
861.256	20792
861.388	20811
861.521	21462
861.653	20682
861.786	20636
861.918	20541
862.05	20663
862.183	20762
862.315	20659
862.447	20731
862.58	20785
862.712	20583
862.844	20339
862.976	20632
863.108	20606
863.24	20918
863.372	20396
863.504	20545
863.636	20522
863.768	20602
863.9	20526
864.032	20320
864.164	20537
864.296	20499
864.428	20545
864.559	20499
864.691	20648
864.823	20602
864.954	20377
865.086	20419
865.217	20461
865.349	20362
865.48	20377
865.612	20450
865.743	20446
865.875	20396
866.006	20362
866.137	20408
866.269	20412
866.4	20393
866.531	20282
866.662	20362
866.793	20317
866.924	20332
867.055	20377
867.186	20408
867.317	20313
867.448	20259
867.579	20286
867.71	20210
867.841	20377
867.972	20355
868.103	20332
868.233	20465
868.364	20370
868.495	20434
868.625	20594
868.756	20689
868.886	20568
869.017	20541
869.147	20670
869.278	20629
869.408	20686
869.539	20602
869.669	20636
869.799	20636
869.929	20568
870.06	20667
870.19	20982
870.32	20914
870.45	21036
870.58	20868
870.71	21085
870.84	21093
870.97	20956
871.1	21001
871.23	21203
871.36	21192
871.489	21108
871.619	21135
871.749	21203
871.879	21218
872.008	21340
872.138	21180
872.267	21173
872.397	21165
872.526	20986
872.656	21001
872.785	21051
872.915	21169
873.044	21268
873.173	21306
873.303	21279
873.432	21260
873.561	21340
873.69	21165
873.819	21135
873.948	21241
874.077	21089
874.206	21165
874.335	21116
874.464	21340
874.593	21507
874.722	21374
874.851	21526
874.979	21405
875.108	21363
875.237	21332
875.365	21344
875.494	21393
875.623	21553
875.751	21447
875.88	21473
876.008	21447
876.136	21606
876.265	21831
876.393	21937
876.521	21816
876.65	21972
876.778	21960
876.906	21873
877.034	21778
877.162	21797
877.29	21720
877.418	21823
877.546	21850
877.674	21808
877.802	21781
877.93	21816
878.058	21720
878.185	21648
878.313	21762
878.441	21705
878.568	21724
878.696	21778
878.824	21838
878.951	21865
879.079	21983
879.206	22169
879.333	21915
879.461	21895
879.588	21854
879.715	21941
879.842	22021
879.97	21873
880.097	21625
880.224	21766
880.351	21686
880.478	21720
880.605	21542
880.732	21633
880.859	21842
880.986	21618
881.112	21690
881.239	21439
881.366	21241
881.493	21218
881.619	21058
881.746	21142
881.872	21332
881.999	21150
882.125	21108
882.252	21268
882.378	21165
882.505	21332
882.631	21100
882.757	20975
882.883	20941
883.01	20944
883.136	20952
883.262	20823
883.388	20800
883.514	20861
883.64	20982
883.766	20864
883.892	20686
884.018	20621
884.143	20826
884.269	20982
884.395	20701
884.52	20499
884.646	20507
884.772	20381
884.897	20457
885.023	20533
885.148	20689
885.274	20769
885.399	20663
885.524	20454
885.65	20621
885.775	20667
885.9	20480
886.025	20659
886.15	20651
886.275	20507
886.4	20450
886.525	20537
886.65	20507
886.775	20385
886.9	20686
887.025	20708
887.149	20571
887.274	20442
887.399	20347
887.523	20465
887.648	20271
887.773	20195
887.897	20396
888.021	20434
888.146	20248
888.27	20370
888.395	20511
888.519	20317
888.643	20358
888.767	20541
888.891	20199
889.015	20191
889.139	20195
889.263	20100
889.387	20328
889.511	20404
889.635	20256
889.759	20153
889.883	20218
890.006	20237
890.13	20286
890.254	20043
890.377	20020
890.501	19887
890.624	19845
890.748	19989
890.871	19791
890.995	19693
891.118	19746
891.241	19772
891.364	19738
891.488	19936
891.611	19791
891.734	19776
891.857	19734
891.98	19708
892.103	19727
892.226	19685
892.349	19685
892.471	19590
892.594	19776
892.717	19708
892.839	19597
892.962	19506
893.085	19753
893.207	19666
893.33	19400
893.452	19613
893.575	19723
893.697	19521
893.819	19769
893.941	19811
894.064	19689
894.186	19624
894.308	19594
894.43	19734
894.552	19830
894.674	19704
894.796	19449
894.918	19525
895.04	19609
895.161	19742
895.283	19605
895.405	19540
895.526	19635
895.648	19582
895.769	19689
895.891	19742
896.012	19849
896.134	19689
896.255	19715
896.376	19609
896.498	19689
896.619	19635
896.74	19525
896.861	19643
896.982	20005
897.103	20103
897.224	19906
897.345	19913
897.466	19765
897.587	19921
897.708	19970
897.828	19887
897.949	19761
898.07	19731
898.19	19784
898.311	20016
898.431	19788
898.552	19784
898.672	20005
898.792	19909
898.913	19906
899.033	19734
899.153	19647
899.273	19586
899.393	19552
899.513	19662
899.633	19776
899.753	19594
899.873	19483
899.993	19518
900.113	19552
900.232	19674
900.352	19521
900.472	19464
900.591	19445
900.711	19441
900.83	19335
900.95	19480
901.069	19495
901.189	19133
901.308	19103
901.427	18928
901.546	19046
901.665	18928
901.784	19015
901.904	18947
902.023	18639
902.141	18528
902.26	18547
902.379	18578
902.498	18418
902.617	18445
902.735	18517
902.854	18456
902.973	18403
903.091	18129
903.21	18148
903.328	18182
903.446	18102
903.565	17977
903.683	18015
903.801	17893
903.919	18003
904.038	17885
904.156	17714
904.274	17866
904.392	17790
904.51	17672
904.627	17710
904.745	17817
904.863	17790
904.981	17611
905.098	17368
905.216	17467
905.334	17379
905.451	17532
905.569	17452
905.686	17471
905.803	17505
905.921	17280
906.038	17337
906.155	17280
906.272	17174
906.389	17132
906.506	17006
906.623	17029
906.74	16968
906.857	16877
906.974	16828
907.091	17121
907.208	17067
907.324	16957
907.441	16824
907.557	16641
907.674	16645
907.79	16668
907.907	16694
908.023	16645
908.139	16755
908.256	16683
908.372	16706
908.488	16679
908.604	16504
908.72	16455
908.836	16481
908.952	16405
909.068	16500
909.184	16443
909.3	16485
909.415	16322
909.531	16344
909.647	16059
909.762	16215
909.878	16226
909.993	16162
910.108	16078
910.224	16192
910.339	16086
910.454	16082
910.57	16051
910.685	15880
910.8	16173
910.915	16032
911.03	15945
911.145	15724
911.259	15804
911.374	15793
911.489	15705
911.604	15576
911.718	15526
911.833	15561
911.947	15439
912.062	15256
912.176	15397
912.291	15485
912.405	15443
912.519	15705
912.633	15644
912.748	15572
912.862	15500
912.976	15283
913.09	15214
913.204	15359
913.318	15317
913.431	15485
913.545	15306
913.659	15370
913.772	15249
913.886	15161
914	15055
914.113	15138
914.226	15222
914.34	15176
914.453	15017
914.566	15131
914.68	15009
914.793	15028
914.906	14758
915.019	14720
915.132	14651
915.245	14693
915.358	14667
915.47	14777
915.583	14788
915.696	14716
915.809	14842
915.921	14895
916.034	14651
916.146	14617
916.259	14602
916.371	14781
916.483	14697
916.595	14587
916.708	14571
916.82	14522
916.932	14522
917.044	14541
917.156	14446
917.268	14431
917.38	14400
917.491	14343
917.603	14427
917.715	14412
917.826	14495
917.938	14347
918.049	14259
918.161	14370
918.272	14457
918.384	14480
918.495	14271
918.606	14256
918.717	14176
918.828	14206
918.939	14164
919.05	14096
919.161	14180
919.272	13986
919.383	14008
919.494	14244
919.604	14320
919.715	14096
919.826	14073
919.936	14050
920.047	14199
920.157	14187
920.267	14396
920.378	14062
920.488	14088
920.598	14282
920.708	14514
920.818	14275
920.928	14248
921.038	14476
921.148	14385
921.258	14252
921.368	13951
921.477	13936
921.587	13879
921.697	13807
921.806	13932
921.916	13791
922.025	13643
922.134	13506
922.244	13499
922.353	13601
922.462	13464
922.571	13354
922.68	13217
922.789	13187
922.898	13194
923.007	13103
923.116	13301
923.224	13232
923.333	13103
923.442	13000
923.55	12981
923.659	13069
923.767	13065
923.876	12878
923.984	13034
924.092	12909
924.201	13027
924.309	12920
924.417	12768
924.525	12867
924.633	12772
924.741	13651
924.849	12688
924.956	12783
925.064	12563
925.172	12700
925.279	12616
925.387	12726
925.494	12521
925.602	12673
925.709	12639
925.816	12616
925.924	12521
926.031	12589
926.138	12555
926.245	12597
926.352	12448
926.459	12639
926.566	12616
926.673	12555
926.779	12418
926.886	12361
926.993	12289
927.099	12197
927.206	12110
927.312	12194
927.419	12277
927.525	12201
927.631	12216
927.737	12007
927.843	12049
927.95	12011
928.056	12045
928.162	12030
928.267	12087
928.373	12570
928.479	12205
928.585	11912
928.69	11931
928.796	11984
928.901	11840
929.007	11748
929.112	11828
929.218	11847
929.323	11786
929.428	11775
929.533	11889
929.638	11703
929.743	11657
929.848	11726
929.953	11665
930.058	11539
930.163	11471
930.267	11566
930.372	11604
930.477	11360
930.581	11608
930.685	11455
930.79	11387
930.894	11311
930.998	11326
931.103	11440
931.207	11090
931.311	11067
931.415	10923
931.519	10767
931.623	10748
