Data from test_V78500241_2544.txt Node
Date: Fri Mar 25 15:27:34 CST 2022
User: usil
Spectrometer: V785-0024
Trigger mode: 0
Integration Time (sec): 4.000000E-1
Scans to average: 1
Nonlinearity correction enabled: false
Boxcar width: 0
Storing dark spectrum: false
XAxis mode: Wavelengths
Number of Pixels in Spectrum: 1024
>>>>>Begin Spectral Data<<<<<
801.071	27268
801.214	27161
801.356	27081
801.499	26952
801.641	26861
801.783	26823
801.926	26960
802.068	26754
802.211	26731
802.353	26617
802.496	26434
802.638	26275
802.78	26427
802.923	26332
803.065	26214
803.208	26263
803.35	26366
803.492	26465
803.635	26632
803.777	26488
803.919	26522
804.061	26826
804.204	26594
804.346	26541
804.488	26526
804.63	26533
804.773	26465
804.915	26670
805.057	26724
805.199	26499
805.341	26541
805.483	26739
805.626	26762
805.768	26514
805.91	26644
806.052	26564
806.194	26693
806.336	26921
806.478	26674
806.62	26609
806.762	26819
806.904	26838
807.046	27169
807.188	27138
807.33	27096
807.472	27055
807.614	26998
807.756	27036
807.898	26899
808.04	26853
808.182	27005
808.324	26940
808.465	26925
808.607	27161
808.749	27291
808.891	27310
809.033	27458
809.174	27310
809.316	27192
809.458	27214
809.6	27249
809.741	27408
809.883	27397
810.025	27553
810.166	27564
810.308	27519
810.45	27393
810.591	27416
810.733	27374
810.875	27275
811.016	27150
811.158	27207
811.299	27412
811.441	27534
811.582	27393
811.724	27291
811.865	27249
812.007	27192
812.148	27093
812.29	27325
812.431	27393
812.573	27644
812.714	27564
812.855	27819
812.997	27751
813.138	27956
813.279	27945
813.421	27759
813.562	27553
813.703	27450
813.845	27511
813.986	27058
814.127	26967
814.268	26986
814.41	26990
814.551	26735
814.692	27066
814.833	26914
814.974	27028
815.115	26883
815.256	26800
815.397	26849
815.539	26788
815.68	26724
815.821	26648
815.962	26731
816.103	26727
816.244	26651
816.385	26511
816.526	26476
816.666	26290
816.807	26286
816.948	26298
817.089	26313
817.23	26248
817.371	26039
817.512	26168
817.653	26172
817.793	26092
817.934	26172
818.075	26195
818.216	26221
818.356	26153
818.497	25993
818.638	25921
818.778	26008
818.919	25936
819.06	25997
819.2	26069
819.341	26237
819.481	26210
819.622	26347
819.762	26724
819.903	26457
820.043	26336
820.184	26374
820.324	26313
820.465	26415
820.605	26324
820.746	26218
820.886	26206
821.026	26267
821.167	26263
821.307	26202
821.447	26370
821.588	26046
821.728	26096
821.868	25909
822.008	25712
822.149	25719
822.289	25620
822.429	25270
822.569	25354
822.709	25327
822.849	25187
822.99	25240
823.13	25088
823.27	25133
823.41	24954
823.55	24939
823.69	25080
823.83	24939
823.97	24928
824.11	24897
824.25	24669
824.389	24821
824.529	24825
824.669	24779
824.809	24951
824.949	24802
825.089	24878
825.228	24882
825.368	24734
825.508	24719
825.648	24715
825.787	24608
825.927	24730
826.067	24684
826.206	24726
826.346	24764
826.485	24909
826.625	24646
826.765	24905
826.904	24749
827.044	24502
827.183	24467
827.323	24376
827.462	24490
827.601	24403
827.741	24403
827.88	24399
828.02	24308
828.159	24296
828.298	24475
828.437	24414
828.577	24292
828.716	24395
828.855	24258
828.994	24121
829.134	24106
829.273	24083
829.412	24201
829.551	24068
829.69	24045
829.829	24148
829.968	24281
830.107	24148
830.246	24110
830.385	24026
830.524	24038
830.663	23942
830.802	23897
830.941	23760
831.08	23653
831.219	23805
831.357	23824
831.496	23859
831.635	23691
831.774	23771
831.913	23760
832.051	23520
832.19	23531
832.329	23497
832.467	23395
832.606	23398
832.744	23482
832.883	23398
833.022	23360
833.16	23395
833.299	23307
833.437	23501
833.576	23467
833.714	23376
833.852	23467
833.991	23497
834.129	23528
834.267	23463
834.406	23398
834.544	23436
834.682	23455
834.821	23356
834.959	23695
835.097	23490
835.235	23611
835.373	23444
835.511	23364
835.65	23265
835.788	23311
835.926	23246
836.064	23067
836.202	23128
836.34	23246
836.478	23391
836.615	23242
836.753	23296
836.891	23421
837.029	23368
837.167	23318
837.305	23318
837.443	23277
837.58	23254
837.718	23155
837.856	23143
837.993	23189
838.131	23189
838.269	23090
838.406	23010
838.544	23014
838.681	22797
838.819	22774
838.956	22812
839.094	22573
839.231	22687
839.369	22862
839.506	23048
839.643	22877
839.781	22622
839.918	22607
840.055	22835
840.193	22637
840.33	22573
840.467	22573
840.604	22599
840.742	22900
840.879	22641
841.016	22531
841.153	22493
841.29	22668
841.427	22443
841.564	22565
841.701	22554
841.838	22527
841.975	22367
842.112	22440
842.249	22436
842.385	22440
842.522	22664
842.659	22523
842.796	22409
842.933	22223
843.069	22272
843.206	22318
843.343	22367
843.479	22360
843.616	22386
843.752	22169
843.889	22143
844.025	22207
844.162	22128
844.298	22325
844.435	22128
844.571	22097
844.708	22173
844.844	22226
844.98	22405
845.117	22253
845.253	21937
845.389	22086
845.525	22265
845.661	22082
845.798	21736
845.934	21964
846.07	21941
846.206	21895
846.342	22093
846.478	21949
846.614	21648
846.75	21633
846.886	21523
847.022	21644
847.158	21732
847.294	21481
847.429	21717
847.565	21485
847.701	21892
847.837	21332
847.972	21272
848.108	21458
848.244	21325
848.379	21283
848.515	21142
848.65	21169
848.786	21237
848.921	21268
849.057	21275
849.192	21298
849.328	21291
849.463	21214
849.598	21142
849.734	21081
849.869	21070
850.004	20975
850.14	20933
850.275	20941
850.41	20937
850.545	20754
850.68	20986
850.815	20895
850.95	20971
851.085	21058
851.22	21154
851.355	21013
851.49	20937
851.625	21005
851.76	20941
851.895	20998
852.03	20990
852.165	20864
852.299	20902
852.434	21020
852.569	21066
852.703	20910
852.838	20998
852.973	21043
853.107	21173
853.242	20876
853.376	20720
853.511	20697
853.645	20606
853.78	20933
853.914	20826
854.048	20819
854.183	20727
854.317	20804
854.451	20891
854.585	20842
854.72	20743
854.854	20849
854.988	20739
855.122	20769
855.256	20655
855.39	20758
855.524	20838
855.658	20887
855.792	20716
855.926	20792
856.06	20792
856.194	20807
856.327	20727
856.461	20712
856.595	20849
856.729	20625
856.862	20864
856.996	20800
857.13	20785
857.263	20921
857.397	20918
857.53	20769
857.664	20853
857.797	20864
857.931	20921
858.064	20933
858.197	20967
858.331	20773
858.464	20811
858.597	20659
858.731	20758
858.864	20750
858.997	20804
859.13	20781
859.263	20636
859.396	20796
859.529	20674
859.662	20807
859.795	20735
859.928	20861
860.061	20891
860.194	20971
860.327	20861
860.46	20826
860.592	20876
860.725	20982
860.858	20933
860.99	20746
861.123	20686
861.256	20621
861.388	20785
861.521	21523
861.653	20670
861.786	20617
861.918	20648
862.05	20724
862.183	20659
862.315	20792
862.447	20872
862.58	20629
862.712	20511
862.844	20423
862.976	20667
863.108	20545
863.24	20944
863.372	20480
863.504	20473
863.636	20469
863.768	20537
863.9	20469
864.032	20294
864.164	20404
864.296	20613
864.428	20583
864.559	20575
864.691	20545
864.823	20499
864.954	20537
865.086	20522
865.217	20396
865.349	20256
865.48	20320
865.612	20362
865.743	20492
865.875	20431
866.006	20362
866.137	20347
866.269	20377
866.4	20332
866.531	20442
866.662	20282
866.793	20358
866.924	20362
867.055	20374
867.186	20256
867.317	20313
867.448	20275
867.579	20461
867.71	20412
867.841	20252
867.972	20259
868.103	20271
868.233	20450
868.364	20351
868.495	20427
868.625	20545
868.756	20689
868.886	20541
869.017	20560
869.147	20670
869.278	20651
869.408	20526
869.539	20537
869.669	20621
869.799	20705
869.929	20693
870.06	20545
870.19	20800
870.32	20986
870.45	21047
870.58	20982
870.71	21116
870.84	21165
870.97	20982
871.1	20998
871.23	21161
871.36	21378
871.489	21135
871.619	21062
871.749	21268
871.879	21230
872.008	21348
872.138	21344
872.267	21176
872.397	21108
872.526	21001
872.656	21058
872.785	20963
872.915	21211
873.044	21325
873.173	21272
873.303	21302
873.432	21450
873.561	21348
873.69	21351
873.819	21207
873.948	21363
874.077	21241
874.206	21264
874.335	21260
874.464	21302
874.593	21481
874.722	21344
874.851	21469
874.979	21534
875.108	21507
875.237	21298
875.365	21412
875.494	21549
875.623	21424
875.751	21435
875.88	21507
876.008	21622
876.136	21838
876.265	21861
876.393	21991
876.521	21975
876.65	21975
876.778	21907
876.906	21895
877.034	21793
877.162	21831
877.29	21717
877.418	21778
877.546	21892
877.674	21808
877.802	21842
877.93	21774
878.058	21812
878.185	21709
878.313	21869
878.441	21781
878.568	21694
878.696	21751
878.824	21770
878.951	21861
879.079	22048
879.206	22147
879.333	22029
879.461	21930
879.588	21937
879.715	21953
879.842	22120
879.97	21911
880.097	21686
880.224	21675
880.351	21698
880.478	21732
880.605	21644
880.732	21743
880.859	21846
880.986	21618
881.112	21690
881.239	21481
881.366	21393
881.493	21370
881.619	21195
881.746	21287
881.872	21214
881.999	21252
882.125	21291
882.252	21260
882.378	21233
882.505	21481
882.631	21036
882.757	21058
882.883	20967
883.01	20933
883.136	20918
883.262	20796
883.388	20792
883.514	20941
883.64	20937
883.766	20819
883.892	20765
884.018	20785
884.143	20944
884.269	20872
884.395	20632
884.52	20552
884.646	20667
884.772	20530
884.897	20587
885.023	20663
885.148	20739
885.274	20731
885.399	20674
885.524	20473
885.65	20655
885.775	20583
885.9	20511
886.025	20826
886.15	20659
886.275	20602
886.4	20518
886.525	20530
886.65	20469
886.775	20476
886.9	20762
887.025	20804
887.149	20533
887.274	20328
887.399	20370
887.523	20442
887.648	20199
887.773	20271
887.897	20343
888.021	20533
888.146	20267
888.27	20438
888.395	20473
888.519	20404
888.643	20434
888.767	20320
888.891	20286
889.015	20164
889.139	20176
889.263	20180
889.387	20259
889.511	20598
889.635	20351
889.759	20081
889.883	20073
890.006	20119
890.13	20328
890.254	20092
890.377	20145
890.501	19909
890.624	19795
890.748	20024
890.871	19917
890.995	19765
891.118	19708
891.241	19719
891.364	19639
891.488	19875
891.611	19708
891.734	19632
891.857	19803
891.98	19795
892.103	19837
892.226	19719
892.349	19715
892.471	19586
892.594	19635
892.717	19727
892.839	19715
892.962	19719
893.085	19746
893.207	19655
893.33	19491
893.452	19628
893.575	19597
893.697	19674
893.819	19776
893.941	19887
894.064	19715
894.186	19620
894.308	19681
894.43	19651
894.552	19727
894.674	19849
894.796	19651
894.918	19616
895.04	19594
895.161	19837
895.283	19700
895.405	19620
895.526	19628
895.648	19586
895.769	19738
895.891	19731
896.012	19780
896.134	19757
896.255	19594
896.376	19704
896.498	19712
896.619	19791
896.74	19689
896.861	19734
896.982	20012
897.103	20145
897.224	20031
897.345	19936
897.466	19807
897.587	19959
897.708	19982
897.828	20027
897.949	19879
898.07	19753
898.19	19879
898.311	19803
898.431	19788
898.552	19803
898.672	20012
898.792	19974
898.913	19978
899.033	19841
899.153	19700
899.273	19521
899.393	19590
899.513	19651
899.633	19567
899.753	19685
899.873	19556
899.993	19605
900.113	19632
900.232	19601
900.352	19628
900.472	19506
900.591	19403
900.711	19449
900.83	19312
900.95	19460
901.069	19449
901.189	19320
901.308	19019
901.427	18966
901.546	19061
901.665	19019
901.784	19031
901.904	18890
902.023	18795
902.141	18532
902.26	18536
902.379	18620
902.498	18471
902.617	18608
902.735	18555
902.854	18521
902.973	18365
903.091	18243
903.21	18239
903.328	18330
903.446	18121
903.565	18121
903.683	17996
903.801	17824
903.919	17942
904.038	17969
904.156	17840
904.274	17836
904.392	17824
904.51	17695
904.627	17824
904.745	17828
904.863	17813
904.981	17558
905.098	17444
905.216	17581
905.334	17547
905.451	17547
905.569	17440
905.686	17478
905.803	17493
905.921	17212
906.038	17379
906.155	17315
906.272	17121
906.389	17029
906.506	17003
906.623	17117
906.74	17018
906.857	16919
906.974	16965
907.091	17029
907.208	17166
907.324	16999
907.441	16862
907.557	16729
907.674	16713
907.79	16630
907.907	16679
908.023	16672
908.139	16721
908.256	16675
908.372	16694
908.488	16641
908.604	16558
908.72	16379
908.836	16390
908.952	16394
909.068	16485
909.184	16554
909.3	16459
909.415	16386
909.531	16462
909.647	16223
909.762	16185
909.878	16204
909.993	16154
910.108	16112
910.224	16029
910.339	16120
910.454	16006
910.57	15968
910.685	15922
910.8	16116
910.915	15987
911.03	16093
911.145	15804
911.259	15823
911.374	15728
911.489	15637
911.604	15610
911.718	15526
911.833	15504
911.947	15435
912.062	15367
912.176	15523
912.291	15530
912.405	15534
912.519	15747
912.633	15739
912.748	15557
912.862	15454
912.976	15386
913.09	15161
913.204	15355
913.318	15310
913.431	15348
913.545	15370
913.659	15340
913.772	15275
913.886	15268
914	15138
914.113	15226
914.226	15241
914.34	15249
914.453	14998
914.566	15150
914.68	15081
914.793	15051
914.906	14796
915.019	14746
915.132	14708
915.245	14697
915.358	14746
915.47	14750
915.583	14792
915.696	14739
915.809	14868
915.921	14883
916.034	14739
916.146	14663
916.259	14735
916.371	14712
916.483	14632
916.595	14549
916.708	14629
916.82	14606
916.932	14480
917.044	14480
917.156	14465
917.268	14499
917.38	14419
917.491	14415
917.603	14492
917.715	14499
917.826	14454
917.938	14412
918.049	14214
918.161	14396
918.272	14495
918.384	14514
918.495	14309
918.606	14225
918.717	14081
918.828	14221
918.939	14233
919.05	14145
919.161	14138
919.272	13936
919.383	14058
919.494	14126
919.604	14332
919.715	14081
919.826	13932
919.936	14123
920.047	14187
920.157	14210
920.267	14298
920.378	14138
920.488	14123
920.598	14298
920.708	14488
920.818	14377
920.928	14233
921.038	14454
921.148	14362
921.258	14119
921.368	13868
921.477	13921
921.587	13898
921.697	13757
921.806	13894
921.916	13712
922.025	13601
922.134	13537
922.244	13445
922.353	13533
922.462	13426
922.571	13369
922.68	13194
922.789	13209
922.898	13266
923.007	13202
923.116	13202
923.224	13156
923.333	13126
923.442	13072
923.55	13095
923.659	13080
923.767	13141
923.876	13012
923.984	13019
924.092	12844
924.201	12973
924.309	12977
924.417	12970
924.525	12844
924.633	12852
924.741	13803
924.849	12681
924.956	12730
925.064	12631
925.172	12494
925.279	12593
925.387	12616
925.494	12620
925.602	12783
925.709	12662
925.816	12525
925.924	12665
926.031	12700
926.138	12559
926.245	12639
926.352	12433
926.459	12673
926.566	12631
926.673	12475
926.779	12365
926.886	12414
926.993	12243
927.099	12232
927.206	12163
927.312	12155
927.419	12205
927.525	12194
927.631	12346
927.737	12106
927.843	11961
927.95	11946
928.056	11961
928.162	12053
928.267	12079
928.373	12673
928.479	12091
928.585	11771
928.69	11965
928.796	11999
928.901	11863
929.007	11737
929.112	11893
929.218	11798
929.323	11855
929.428	11745
929.533	11866
929.638	11695
929.743	11745
929.848	11733
929.953	11699
930.058	11596
930.163	11493
930.267	11524
930.372	11653
930.477	11486
930.581	11703
930.685	11562
930.79	11364
930.894	11391
930.998	11368
931.103	11440
931.207	11193
931.311	11052
931.415	10972
931.519	10774
931.623	10653
