Data from test_V78500241_502.txt Node
Date: Fri Mar 25 15:13:21 CST 2022
User: usil
Spectrometer: V785-0024
Trigger mode: 0
Integration Time (sec): 4.000000E-1
Scans to average: 1
Nonlinearity correction enabled: false
Boxcar width: 0
Storing dark spectrum: false
XAxis mode: Wavelengths
Number of Pixels in Spectrum: 1024
>>>>>Begin Spectral Data<<<<<
801.071	27526
801.214	27450
801.356	27180
801.499	27302
801.641	27161
801.783	27188
801.926	27089
802.068	26998
802.211	26845
802.353	26944
802.496	26777
802.638	26651
802.78	26609
802.923	26682
803.065	26587
803.208	26758
803.35	26617
803.492	26914
803.635	26933
803.777	26743
803.919	26845
804.061	27070
804.204	26956
804.346	26845
804.488	26895
804.63	26887
804.773	26739
804.915	26826
805.057	26971
805.199	26754
805.341	27055
805.483	27013
805.626	26979
805.768	26963
805.91	26963
806.052	27051
806.194	26823
806.336	27218
806.478	26967
806.62	27070
806.762	27096
806.904	27302
807.046	27488
807.188	27431
807.33	27397
807.472	27424
807.614	27401
807.756	27348
807.898	27184
808.04	27241
808.182	27291
808.324	27173
808.465	27298
808.607	27412
808.749	27614
808.891	27633
809.033	27857
809.174	27717
809.316	27542
809.458	27694
809.6	27599
809.741	27633
809.883	27778
810.025	27911
810.166	27888
810.308	27884
810.45	27899
810.591	27835
810.733	27701
810.875	27591
811.016	27576
811.158	27431
811.299	27679
811.441	27865
811.582	27720
811.724	27587
811.865	27648
812.007	27614
812.148	27507
812.29	27549
812.431	27804
812.573	27983
812.714	28029
812.855	28162
812.997	28211
813.138	28440
813.279	28356
813.421	28204
813.562	28044
813.703	27861
813.845	27983
813.986	27622
814.127	27351
814.268	27241
814.41	27249
814.551	27230
814.692	27351
814.833	27180
814.974	27249
815.115	27370
815.256	27325
815.397	27135
815.539	27184
815.68	27119
815.821	26918
815.962	27119
816.103	27017
816.244	26944
816.385	26994
816.526	26910
816.666	26686
816.807	26568
816.948	26632
817.089	26640
817.23	26667
817.371	26579
817.512	26758
817.653	26636
817.793	26583
817.934	26568
818.075	26575
818.216	26598
818.356	26415
818.497	26560
818.638	26324
818.778	26282
818.919	26385
819.06	26453
819.2	26473
819.341	26549
819.481	26484
819.622	26758
819.762	26975
819.903	26830
820.043	26750
820.184	26823
820.324	26853
820.465	26659
820.605	26735
820.746	26689
820.886	26549
821.026	26651
821.167	26716
821.307	26754
821.447	26640
821.588	26537
821.728	26446
821.868	26206
822.008	26183
822.149	26012
822.289	25982
822.429	25814
822.569	25693
822.709	25685
822.849	25556
822.99	25495
823.13	25476
823.27	25563
823.41	25403
823.55	25114
823.69	25400
823.83	25533
823.97	25266
824.11	25126
824.25	25259
824.389	25164
824.529	25377
824.669	25183
824.809	25358
824.949	25339
825.089	25251
825.228	25228
825.368	24943
825.508	25027
825.648	25122
825.787	25160
825.927	25164
826.067	25000
826.206	24981
826.346	25019
826.485	24992
826.625	25099
826.765	25156
826.904	25164
827.044	24848
827.183	24692
827.323	24745
827.462	24871
827.601	24730
827.741	24875
827.88	24738
828.02	24623
828.159	24661
828.298	24779
828.437	24840
828.577	24817
828.716	24863
828.855	24654
828.994	24528
829.134	24612
829.273	24494
829.412	24547
829.551	24407
829.69	24601
829.829	24593
829.968	24646
830.107	24528
830.246	24540
830.385	24384
830.524	24460
830.663	24445
830.802	24190
830.941	24102
831.08	24152
831.219	24098
831.357	24197
831.496	24365
831.635	24159
831.774	24144
831.913	24003
832.051	24049
832.19	23923
832.329	24064
832.467	23794
832.606	23756
832.744	23748
832.883	23760
833.022	23817
833.16	23836
833.299	23805
833.437	23870
833.576	23882
833.714	24003
833.852	23965
833.991	23764
834.129	23824
834.267	23992
834.406	23893
834.544	23969
834.682	23885
834.821	23847
834.959	23961
835.097	23855
835.235	23836
835.373	23748
835.511	23840
835.65	23726
835.788	23726
835.926	23558
836.064	23543
836.202	23493
836.34	23665
836.478	23863
836.615	23805
836.753	23748
836.891	23779
837.029	23764
837.167	23608
837.305	23539
837.443	23657
837.58	23509
837.718	23577
837.856	23535
837.993	23398
838.131	23535
838.269	23455
838.406	23531
838.544	23296
838.681	23121
838.819	23277
838.956	23060
839.094	22949
839.231	23117
839.369	23292
839.506	23368
839.643	23250
839.781	23056
839.918	22961
840.055	23117
840.193	22961
840.33	22957
840.467	23022
840.604	22946
840.742	23136
840.879	22976
841.016	22881
841.153	22858
841.29	22984
841.427	22843
841.564	22991
841.701	22938
841.838	22786
841.975	22733
842.112	22984
842.249	22713
842.385	22672
842.522	22881
842.659	22744
842.796	22660
842.933	22725
843.069	22782
843.206	22675
843.343	22847
843.479	22660
843.616	22653
843.752	22550
843.889	22474
844.025	22596
844.162	22447
844.298	22565
844.435	22481
844.571	22417
844.708	22538
844.844	22649
844.98	22717
845.117	22607
845.253	22421
845.389	22333
845.525	22470
845.661	22382
845.798	22246
845.934	22226
846.07	22219
846.206	22390
846.342	22394
846.478	22230
846.614	21975
846.75	21941
846.886	21884
847.022	22074
847.158	21998
847.294	22025
847.429	21930
847.565	21812
847.701	22196
847.837	21694
847.972	21637
848.108	21747
848.244	21827
848.379	21622
848.515	21663
848.65	21583
848.786	21652
848.921	21553
849.057	21759
849.192	21504
849.328	21633
849.463	21583
849.598	21405
849.734	21389
849.869	21454
850.004	21359
850.14	21298
850.275	21256
850.41	21233
850.545	21165
850.68	21249
850.815	21340
850.95	21313
851.085	21424
851.22	21412
851.355	21332
851.49	21310
851.625	21344
851.76	21249
851.895	21294
852.03	21237
852.165	21374
852.299	21382
852.434	21393
852.569	21329
852.703	21348
852.838	21439
852.973	21488
853.107	21401
853.242	21367
853.376	21188
853.511	20906
853.645	21142
853.78	21306
853.914	21256
854.048	21055
854.183	21096
854.317	21100
854.451	21359
854.585	21138
854.72	21203
854.854	21226
854.988	21013
855.122	21119
855.256	21036
855.39	21252
855.524	21165
855.658	21173
855.792	21184
855.926	21256
856.06	21180
856.194	21112
856.327	21199
856.461	21070
856.595	21051
856.729	21024
856.862	21245
856.996	21104
857.13	21237
857.263	21230
857.397	21176
857.53	21233
857.664	21233
857.797	21264
857.931	21252
858.064	21100
858.197	21169
858.331	21199
858.464	21108
858.597	20986
858.731	21184
858.864	21093
858.997	21157
859.13	21112
859.263	21100
859.396	21207
859.529	21131
859.662	20971
859.795	21108
859.928	21142
860.061	21180
860.194	21291
860.327	21055
860.46	21146
860.592	21233
860.725	21264
860.858	21173
860.99	21093
861.123	21157
861.256	21047
861.388	21093
861.521	21922
861.653	21013
861.786	20842
861.918	20963
862.05	21036
862.183	21043
862.315	21081
862.447	21055
862.58	21131
862.712	20842
862.844	20807
862.976	20887
863.108	20952
863.24	21192
863.372	20796
863.504	20807
863.636	20777
863.768	20933
863.9	20826
864.032	20682
864.164	20754
864.296	20804
864.428	21020
864.559	20914
864.691	20887
864.823	20921
864.954	20853
865.086	20925
865.217	20731
865.349	20651
865.48	20834
865.612	20872
865.743	20792
865.875	20781
866.006	20716
866.137	20724
866.269	20811
866.4	20659
866.531	20526
866.662	20583
866.793	20629
866.924	20621
867.055	20663
867.186	20739
867.317	20457
867.448	20598
867.579	20670
867.71	20575
867.841	20480
867.972	20697
868.103	20667
868.233	20598
868.364	20602
868.495	20743
868.625	20796
868.756	21013
868.886	20876
869.017	20895
869.147	21089
869.278	20925
869.408	21077
869.539	20960
869.669	20971
869.799	20929
869.929	21123
870.06	21047
870.19	21264
870.32	21180
870.45	21214
870.58	21351
870.71	21428
870.84	21511
870.97	21416
871.1	21264
871.23	21416
871.36	21561
871.489	21344
871.619	21473
871.749	21534
871.879	21519
872.008	21603
872.138	21519
872.267	21485
872.397	21405
872.526	21279
872.656	21310
872.785	21435
872.915	21549
873.044	21637
873.173	21614
873.303	21553
873.432	21591
873.561	21671
873.69	21561
873.819	21576
873.948	21679
874.077	21572
874.206	21443
874.335	21549
874.464	21709
874.593	21907
874.722	21675
874.851	21747
874.979	21838
875.108	21956
875.237	21625
875.365	21583
875.494	21800
875.623	21751
875.751	21739
875.88	21778
876.008	21850
876.136	21857
876.265	22109
876.393	22287
876.521	22291
876.65	22215
876.778	22207
876.906	22131
877.034	22025
877.162	22032
877.29	21937
877.418	22169
877.546	22105
877.674	22055
877.802	22154
877.93	22078
878.058	22082
878.185	22025
878.313	22154
878.441	22135
878.568	21956
878.696	21983
878.824	22120
878.951	22147
879.079	22356
879.206	22504
879.333	22219
879.461	22078
879.588	22344
879.715	22223
879.842	22394
879.97	22181
880.097	22082
880.224	22021
880.351	21930
880.478	21846
880.605	21865
880.732	21937
880.859	22185
880.986	21918
881.112	22010
881.239	21755
881.366	21671
881.493	21511
881.619	21469
881.746	21663
881.872	21587
881.999	21477
882.125	21408
882.252	21583
882.378	21523
882.505	21564
882.631	21408
882.757	21176
882.883	21336
883.01	21192
883.136	21184
883.262	21100
883.388	21116
883.514	21249
883.64	21306
883.766	21207
883.892	20933
884.018	21081
884.143	21085
884.269	21218
884.395	20891
884.52	20842
884.646	20906
884.772	20826
884.897	20655
885.023	20979
885.148	20861
885.274	21055
885.399	20948
885.524	20830
885.65	20902
885.775	20872
885.9	20861
886.025	20941
886.15	20937
886.275	20804
886.4	20823
886.525	20830
886.65	20811
886.775	20868
886.9	20883
887.025	21180
887.149	20857
887.274	20644
887.399	20705
887.523	20659
887.648	20625
887.773	20366
887.897	20724
888.021	20705
888.146	20701
888.27	20724
888.395	20876
888.519	20659
888.643	20644
888.767	20670
888.891	20625
889.015	20495
889.139	20541
889.263	20427
889.387	20552
889.511	20644
889.635	20575
889.759	20362
889.883	20389
890.006	20408
890.13	20469
890.254	20347
890.377	20480
890.501	20210
890.624	20164
890.748	20278
890.871	20115
890.995	19989
891.118	19940
891.241	20039
891.364	20008
891.488	20157
891.611	20001
891.734	20100
891.857	20153
891.98	19986
892.103	19997
892.226	20043
892.349	19837
892.471	19856
892.594	19875
892.717	19951
892.839	19913
892.962	19890
893.085	19902
893.207	19921
893.33	19788
893.452	19757
893.575	19970
893.697	19780
893.819	20111
893.941	20115
894.064	19986
894.186	19894
894.308	19845
894.43	19902
894.552	20012
894.674	19970
894.796	19864
894.918	19944
895.04	19921
895.161	19936
895.283	19913
895.405	19864
895.526	19955
895.648	19833
895.769	19967
895.891	19868
896.012	19982
896.134	19997
896.255	19928
896.376	19883
896.498	19917
896.619	19986
896.74	19955
896.861	19909
896.982	20077
897.103	20381
897.224	20138
897.345	20126
897.466	20039
897.587	20100
897.708	20168
897.828	20218
897.949	20119
898.07	19986
898.19	20096
898.311	20244
898.431	20069
898.552	20199
898.672	20168
898.792	20187
898.913	20103
899.033	20031
899.153	19993
899.273	19814
899.393	19849
899.513	19807
899.633	19936
899.753	19928
899.873	19837
899.993	19871
900.113	19803
900.232	19860
900.352	19776
900.472	19658
900.591	19567
900.711	19791
900.83	19601
900.95	19674
901.069	19830
901.189	19563
901.308	19384
901.427	19297
901.546	19160
901.665	19263
901.784	19270
901.904	19107
902.023	18973
902.141	18894
902.26	18654
902.379	18905
902.498	18719
902.617	18623
902.735	18787
902.854	18696
902.973	18806
903.091	18502
903.21	18376
903.328	18479
903.446	18277
903.565	18319
903.683	18239
903.801	18064
903.919	18216
904.038	18076
904.156	18079
904.274	18057
904.392	18114
904.51	17969
904.627	17935
904.745	18087
904.863	18045
904.981	17980
905.098	17764
905.216	17592
905.334	17821
905.451	17699
905.569	17695
905.686	17687
905.803	17710
905.921	17509
906.038	17581
906.155	17467
906.272	17467
906.389	17440
906.506	17288
906.623	17246
906.74	17189
906.857	17128
906.974	17079
907.091	17379
907.208	17406
907.324	17273
907.441	17162
907.557	16984
907.674	17029
907.79	16866
907.907	16866
908.023	16858
908.139	16980
908.256	16911
908.372	16828
908.488	16824
908.604	16824
908.72	16603
908.836	16683
908.952	16592
909.068	16691
909.184	16713
909.3	16683
909.415	16683
909.531	16717
909.647	16512
909.762	16348
909.878	16367
909.993	16402
910.108	16371
910.224	16424
910.339	16341
910.454	16291
910.57	16185
910.685	16128
910.8	16436
910.915	16314
911.03	16192
911.145	16055
911.259	15964
911.374	15956
911.489	15857
911.604	15865
911.718	15785
911.833	15751
911.947	15610
912.062	15580
912.176	15732
912.291	15629
912.405	15663
912.519	15911
912.633	15831
912.748	15728
912.862	15610
912.976	15504
913.09	15431
913.204	15542
913.318	15511
913.431	15618
913.545	15656
913.659	15538
913.772	15374
913.886	15416
914	15268
914.113	15454
914.226	15401
914.34	15351
914.453	15211
914.566	15310
914.68	15203
914.793	15283
914.906	15036
915.019	14956
915.132	14857
915.245	14982
915.358	15024
915.47	15001
915.583	14971
915.696	14994
915.809	15009
915.921	15104
916.034	14899
916.146	14944
916.259	14834
916.371	14902
916.483	14906
916.595	14777
916.708	14880
916.82	14815
916.932	14731
917.044	14800
917.156	14773
917.268	14587
917.38	14602
917.491	14594
917.603	14602
917.715	14720
917.826	14644
917.938	14571
918.049	14423
918.161	14670
918.272	14781
918.384	14670
918.495	14533
918.606	14438
918.717	14309
918.828	14503
918.939	14423
919.05	14271
919.161	14389
919.272	14168
919.383	14187
919.494	14370
919.604	14571
919.715	14336
919.826	14290
919.936	14324
920.047	14415
920.157	14347
920.267	14541
920.378	14412
920.488	14362
920.598	14511
920.708	14720
920.818	14522
920.928	14473
921.038	14610
921.148	14598
921.258	14320
921.368	14103
921.477	14062
921.587	14046
921.697	13906
921.806	14088
921.916	13833
922.025	13757
922.134	13712
922.244	13548
922.353	13742
922.462	13594
922.571	13510
922.68	13358
922.789	13396
922.898	13365
923.007	13308
923.116	13400
923.224	13373
923.333	13289
923.442	13240
923.55	13270
923.659	13240
923.767	13274
923.876	13187
923.984	13206
924.092	13168
924.201	13156
924.309	13190
924.417	13095
924.525	13031
924.633	13046
924.741	14001
924.849	12867
924.956	12977
925.064	12798
925.172	12719
925.279	12677
925.387	12814
925.494	12867
925.602	12913
925.709	12863
925.816	12760
925.924	12722
926.031	12837
926.138	12707
926.245	12772
926.352	12734
926.459	12776
926.566	12760
926.673	12677
926.779	12623
926.886	12566
926.993	12410
927.099	12467
927.206	12369
927.312	12384
927.419	12414
927.525	12315
927.631	12391
927.737	12209
927.843	12228
927.95	12201
928.056	12247
928.162	12159
928.267	12262
928.373	12776
928.479	12197
928.585	12045
928.69	12136
928.796	12129
928.901	12079
929.007	11878
929.112	12045
929.218	11950
929.323	11912
929.428	11885
929.533	11999
929.638	11851
929.743	11863
929.848	11885
929.953	11889
930.058	11703
930.163	11611
930.267	11608
930.372	11779
930.477	11634
930.581	11798
930.685	11634
930.79	11501
930.894	11558
930.998	11414
931.103	11699
931.207	11277
931.311	11162
931.415	11033
931.519	10873
931.623	10866
