Data from test_V78500241_149.txt Node
Date: Fri Mar 25 15:10:53 CST 2022
User: usil
Spectrometer: V785-0024
Trigger mode: 0
Integration Time (sec): 4.000000E-1
Scans to average: 1
Nonlinearity correction enabled: false
Boxcar width: 0
Storing dark spectrum: false
XAxis mode: Wavelengths
Number of Pixels in Spectrum: 1024
>>>>>Begin Spectral Data<<<<<
801.071	28021
801.214	27926
801.356	27709
801.499	27652
801.641	27576
801.783	27416
801.926	27553
802.068	27576
802.211	27408
802.353	27389
802.496	27313
802.638	27218
802.78	27074
802.923	27039
803.065	26861
803.208	27017
803.35	27157
803.492	27230
803.635	27306
803.777	27108
803.919	27256
804.061	27564
804.204	27233
804.346	27123
804.488	27039
804.63	27127
804.773	27020
804.915	27146
805.057	27283
805.199	27116
805.341	27332
805.483	27344
805.626	27252
805.768	27146
805.91	27249
806.052	27199
806.194	27260
806.336	27477
806.478	27378
806.62	27233
806.762	27355
806.904	27526
807.046	27652
807.188	27667
807.33	27610
807.472	27686
807.614	27603
807.756	27572
807.898	27561
808.04	27458
808.182	27450
808.324	27443
808.465	27477
808.607	27644
808.749	27762
808.891	27793
809.033	27854
809.174	27743
809.316	27778
809.458	27812
809.6	27778
809.741	27941
809.883	27774
810.025	27918
810.166	27998
810.308	28082
810.45	27930
810.591	27937
810.733	27717
810.875	27736
811.016	27549
811.158	27656
811.299	27736
811.441	27850
811.582	27762
811.724	27736
811.865	27656
812.007	27660
812.148	27682
812.29	27633
812.431	27911
812.573	28166
812.714	28093
812.855	28147
812.997	28276
813.138	28493
813.279	28238
813.421	28223
813.562	27991
813.703	27979
813.845	27914
813.986	27652
814.127	27492
814.268	27389
814.41	27260
814.551	27355
814.692	27450
814.833	27256
814.974	27211
815.115	27325
815.256	27249
815.397	27161
815.539	27108
815.68	27081
815.821	27085
815.962	27157
816.103	27055
816.244	26853
816.385	26887
816.526	26857
816.666	26765
816.807	26530
816.948	26518
817.089	26552
817.23	26453
817.371	26541
817.512	26492
817.653	26408
817.793	26480
817.934	26598
818.075	26552
818.216	26412
818.356	26434
818.497	26191
818.638	26153
818.778	26221
818.919	26157
819.06	26240
819.2	26370
819.341	26469
819.481	26286
819.622	26476
819.762	26693
819.903	26625
820.043	26362
820.184	26492
820.324	26431
820.465	26370
820.605	26518
820.746	26583
820.886	26419
821.026	26446
821.167	26465
821.307	26514
821.447	26412
821.588	26305
821.728	26183
821.868	25959
822.008	25936
822.149	25963
822.289	25788
822.429	25540
822.569	25483
822.709	25430
822.849	25373
822.99	25346
823.13	25289
823.27	25289
823.41	25190
823.55	24943
823.69	25118
823.83	25137
823.97	24992
824.11	24913
824.25	24981
824.389	24981
824.529	24939
824.669	24882
824.809	24970
824.949	25031
825.089	24973
825.228	24954
825.368	24772
825.508	24768
825.648	24715
825.787	24798
825.927	24681
826.067	24707
826.206	24673
826.346	24810
826.485	24768
826.625	24719
826.765	24817
826.904	24722
827.044	24418
827.183	24475
827.323	24437
827.462	24448
827.601	24395
827.741	24372
827.88	24365
828.02	24403
828.159	24388
828.298	24323
828.437	24467
828.577	24376
828.716	24369
828.855	24243
828.994	24186
829.134	24224
829.273	24106
829.412	24136
829.551	24064
829.69	23969
829.829	23916
829.968	23977
830.107	24076
830.246	24167
830.385	24049
830.524	23939
830.663	23786
830.802	23821
830.941	23653
831.08	23619
831.219	23680
831.357	23615
831.496	23828
831.635	23452
831.774	23547
831.913	23452
832.051	23474
832.19	23467
832.329	23482
832.467	23265
832.606	23193
832.744	23288
832.883	23242
833.022	23140
833.16	23258
833.299	23311
833.437	23356
833.576	23383
833.714	23364
833.852	23341
833.991	23490
834.129	23429
834.267	23315
834.406	23318
834.544	23322
834.682	23444
834.821	23318
834.959	23433
835.097	23235
835.235	23292
835.373	23326
835.511	23379
835.65	23090
835.788	23121
835.926	22896
836.064	22965
836.202	23029
836.34	23151
836.478	23128
836.615	23242
836.753	23121
836.891	23102
837.029	23117
837.167	23048
837.305	23067
837.443	23060
837.58	23083
837.718	22965
837.856	23006
837.993	22908
838.131	23022
838.269	22710
838.406	22828
838.544	22717
838.681	22508
838.819	22592
838.956	22470
839.094	22516
839.231	22470
839.369	22561
839.506	22835
839.643	22740
839.781	22325
839.918	22226
840.055	22363
840.193	22367
840.33	22238
840.467	22238
840.604	22360
840.742	22599
840.879	22253
841.016	22268
841.153	22200
841.29	22394
841.427	22337
841.564	22394
841.701	22234
841.838	22272
841.975	22192
842.112	22196
842.249	22051
842.385	21994
842.522	22352
842.659	22025
842.796	21972
842.933	22029
843.069	21953
843.206	21972
843.343	22006
843.479	21968
843.616	22013
843.752	21812
843.889	21705
844.025	22048
844.162	21728
844.298	21892
844.435	21903
844.571	21724
844.708	21755
844.844	21987
844.98	21785
845.117	21816
845.253	21717
845.389	21709
845.525	21747
845.661	21557
845.798	21428
845.934	21637
846.07	21568
846.206	21572
846.342	21568
846.478	21351
846.614	21256
846.75	21199
846.886	21249
847.022	21340
847.158	21233
847.294	21294
847.429	21283
847.565	21226
847.701	21462
847.837	20899
847.972	20960
848.108	21020
848.244	21077
848.379	20807
848.515	20792
848.65	20823
848.786	20781
848.921	20864
849.057	20960
849.192	20830
849.328	20937
849.463	20750
849.598	20708
849.734	20731
849.869	20644
850.004	20499
850.14	20560
850.275	20526
850.41	20438
850.545	20408
850.68	20556
850.815	20545
850.95	20438
851.085	20670
851.22	20602
851.355	20450
851.49	20518
851.625	20492
851.76	20533
851.895	20393
852.03	20545
852.165	20632
852.299	20526
852.434	20530
852.569	20549
852.703	20530
852.838	20495
852.973	20556
853.107	20537
853.242	20522
853.376	20332
853.511	20218
853.645	20358
853.78	20465
853.914	20427
854.048	20248
854.183	20294
854.317	20298
854.451	20476
854.585	20267
854.72	20324
854.854	20419
854.988	20176
855.122	20286
855.256	20199
855.39	20199
855.524	20499
855.658	20423
855.792	20415
855.926	20370
856.06	20358
856.194	20370
856.327	20313
856.461	20126
856.595	20252
856.729	20377
856.862	20389
856.996	20377
857.13	20374
857.263	20370
857.397	20495
857.53	20290
857.664	20431
857.797	20355
857.931	20446
858.064	20454
858.197	20385
858.331	20317
858.464	20275
858.597	20107
858.731	20240
858.864	20244
858.997	20248
859.13	20256
859.263	20195
859.396	20381
859.529	20176
859.662	20122
859.795	20195
859.928	20237
860.061	20400
860.194	20469
860.327	20457
860.46	20195
860.592	20324
860.725	20282
860.858	20408
860.99	20362
861.123	20111
861.256	20157
861.388	20263
861.521	21013
861.653	20180
861.786	20050
861.918	20069
862.05	20168
862.183	20263
862.315	20252
862.447	20412
862.58	20332
862.712	20001
862.844	20039
862.976	20062
863.108	20096
863.24	20317
863.372	19860
863.504	19894
863.636	20035
863.768	19959
863.9	19925
864.032	19864
864.164	19932
864.296	19982
864.428	20138
864.559	20043
864.691	20039
864.823	19967
864.954	19940
865.086	19917
865.217	19875
865.349	19750
865.48	19750
865.612	19822
865.743	19986
865.875	19906
866.006	19936
866.137	19830
866.269	19974
866.4	19761
866.531	19879
866.662	19776
866.793	19772
866.924	19795
867.055	19753
867.186	19803
867.317	19837
867.448	19742
867.579	19742
867.71	19715
867.841	19666
867.972	19906
868.103	19830
868.233	19856
868.364	19753
868.495	19928
868.625	20149
868.756	20115
868.886	19909
869.017	20016
869.147	20164
869.278	20176
869.408	20024
869.539	20012
869.669	20134
869.799	20103
869.929	20210
870.06	20183
870.19	20381
870.32	20324
870.45	20347
870.58	20408
870.71	20511
870.84	20446
870.97	20442
871.1	20389
871.23	20511
871.36	20590
871.489	20454
871.619	20606
871.749	20571
871.879	20644
872.008	20845
872.138	20606
872.267	20720
872.397	20507
872.526	20446
872.656	20374
872.785	20389
872.915	20583
873.044	20659
873.173	20663
873.303	20629
873.432	20731
873.561	20746
873.69	20716
873.819	20617
873.948	20754
874.077	20621
874.206	20724
874.335	20739
874.464	20788
874.593	20906
874.722	20804
874.851	20982
874.979	21047
875.108	20960
875.237	20990
875.365	20773
875.494	20864
875.623	21047
875.751	20826
875.88	20941
876.008	21062
876.136	21062
876.265	21348
876.393	21439
876.521	21332
876.65	21515
876.778	21367
876.906	21389
877.034	21188
877.162	21370
877.29	21245
877.418	21332
877.546	21325
877.674	21310
877.802	21214
877.93	21203
878.058	21260
878.185	21169
878.313	21237
878.441	21252
878.568	21093
878.696	21173
878.824	21313
878.951	21321
879.079	21515
879.206	21656
879.333	21393
879.461	21268
879.588	21306
879.715	21469
879.842	21469
879.97	21332
880.097	21032
880.224	21142
880.351	21249
880.478	21214
880.605	21081
880.732	20982
880.859	21363
880.986	21123
881.112	21100
881.239	20937
881.366	20823
881.493	20754
881.619	20602
881.746	20739
881.872	20545
881.999	20575
882.125	20552
882.252	20693
882.378	20678
882.505	20845
882.631	20469
882.757	20499
882.883	20571
883.01	20446
883.136	20332
883.262	20305
883.388	20328
883.514	20457
883.64	20507
883.766	20328
883.892	20282
884.018	20229
884.143	20408
884.269	20507
884.395	20119
884.52	20008
884.646	20069
884.772	19982
884.897	20054
885.023	20103
885.148	20221
885.274	20210
885.399	20103
885.524	20005
885.65	19963
885.775	20130
885.9	20073
886.025	20107
886.15	20065
886.275	19982
886.4	19887
886.525	20016
886.65	19894
886.775	20020
886.9	20020
887.025	20294
887.149	20103
887.274	19845
887.399	19795
887.523	19906
887.648	19761
887.773	19746
887.897	19913
888.021	19837
888.146	19708
888.27	19909
888.395	19841
888.519	19868
888.643	19791
888.767	19757
888.891	19746
889.015	19578
889.139	19731
889.263	19643
889.387	19712
889.511	19814
889.635	19742
889.759	19616
889.883	19742
890.006	19567
890.13	19715
890.254	19537
890.377	19453
890.501	19346
890.624	19354
890.748	19354
890.871	19187
890.995	19206
891.118	19228
891.241	19187
891.364	19084
891.488	19259
891.611	19145
891.734	19285
891.857	19335
891.98	19175
892.103	19316
892.226	19160
892.349	19076
892.471	19069
892.594	19107
892.717	19160
892.839	19099
892.962	19133
893.085	19187
893.207	19118
893.33	19031
893.452	18943
893.575	19183
893.697	19091
893.819	19259
893.941	19335
894.064	19297
894.186	19209
894.308	19023
894.43	19168
894.552	19282
894.674	19236
894.796	19023
894.918	19133
895.04	19023
895.161	19308
895.283	19179
895.405	19152
895.526	19126
895.648	19206
895.769	19213
895.891	19209
896.012	19259
896.134	19095
896.255	19164
896.376	19168
896.498	19209
896.619	19240
896.74	19255
896.861	19202
896.982	19453
897.103	19651
897.224	19472
897.345	19343
897.466	19453
897.587	19358
897.708	19681
897.828	19495
897.949	19324
898.07	19206
898.19	19373
898.311	19502
898.431	19335
898.552	19422
898.672	19438
898.792	19480
898.913	19422
899.033	19274
899.153	19175
899.273	19076
899.393	19110
899.513	19076
899.633	19038
899.753	19179
899.873	19008
899.993	19171
900.113	19080
900.232	19110
900.352	18970
900.472	19012
900.591	18863
900.711	18871
900.83	18939
900.95	19046
901.069	19004
901.189	18897
901.308	18715
901.427	18528
901.546	18506
901.665	18547
901.784	18467
901.904	18380
902.023	18330
902.141	18019
902.26	18041
902.379	18140
902.498	18144
902.617	17988
902.735	18053
902.854	17999
902.973	17821
903.091	17710
903.21	17672
903.328	17760
903.446	17585
903.565	17554
903.683	17478
903.801	17459
903.919	17493
904.038	17562
904.156	17311
904.274	17402
904.392	17269
904.51	17261
904.627	17296
904.745	17326
904.863	17360
904.981	17162
905.098	16942
905.216	16946
905.334	17022
905.451	16908
905.569	16930
905.686	17003
905.803	16938
905.921	16752
906.038	16828
906.155	16812
906.272	16675
906.389	16691
906.506	16462
906.623	16516
906.74	16615
906.857	16405
906.974	16325
907.091	16542
907.208	16596
907.324	16489
907.441	16405
907.557	16265
907.674	16143
907.79	16093
907.907	16131
908.023	16246
908.139	16173
908.256	16097
908.372	16029
908.488	15949
908.604	15964
908.72	15869
908.836	15865
908.952	15857
909.068	15918
909.184	15899
909.3	15831
909.415	15934
909.531	15812
909.647	15690
909.762	15656
909.878	15534
909.993	15614
910.108	15595
910.224	15553
910.339	15629
910.454	15412
910.57	15450
910.685	15466
910.8	15553
910.915	15504
911.03	15355
911.145	15268
911.259	15226
911.374	15165
911.489	15093
911.604	15005
911.718	15009
911.833	14967
911.947	14849
912.062	14811
912.176	14979
912.291	14933
912.405	14975
912.519	15093
912.633	15138
912.748	14971
912.862	14807
912.976	14781
913.09	14579
913.204	14762
913.318	14807
913.431	14883
913.545	14857
913.659	14902
913.772	14686
913.886	14659
914	14594
914.113	14602
914.226	14701
914.34	14644
914.453	14469
914.566	14621
914.68	14499
914.793	14473
914.906	14313
915.019	14259
915.132	14195
915.245	14180
915.358	14271
915.47	14183
915.583	14275
915.696	14298
915.809	14324
915.921	14252
916.034	14202
916.146	14065
916.259	14092
916.371	14195
916.483	14180
916.595	13982
916.708	14043
916.82	14065
916.932	14039
917.044	14035
917.156	14024
917.268	13894
917.38	14020
917.491	13818
917.603	13898
917.715	13906
917.826	14001
917.938	13883
918.049	13795
918.161	13860
918.272	13993
918.384	14027
918.495	13883
918.606	13791
918.717	13712
918.828	13624
918.939	13715
919.05	13578
919.161	13613
919.272	13480
919.383	13521
919.494	13666
919.604	13902
919.715	13613
919.826	13563
919.936	13590
920.047	13677
920.157	13578
920.267	13822
920.378	13674
920.488	13624
920.598	13761
920.708	14035
920.818	13727
920.928	13818
921.038	13921
921.148	13803
921.258	13594
921.368	13464
921.477	13464
921.587	13339
921.697	13259
921.806	13354
921.916	13312
922.025	13057
922.134	13053
922.244	12943
922.353	12970
922.462	12954
922.571	12840
922.68	12703
922.789	12646
922.898	12635
923.007	12696
923.116	12764
923.224	12593
923.333	12669
923.442	12506
923.55	12433
923.659	12540
923.767	12494
923.876	12429
923.984	12574
924.092	12391
924.201	12475
924.309	12460
924.417	12483
924.525	12338
924.633	12308
924.741	13107
924.849	12232
924.956	12376
925.064	12251
925.172	12060
925.279	12098
925.387	12220
925.494	12163
925.602	12247
925.709	12178
925.816	12019
925.924	12159
926.031	12167
926.138	12007
926.245	12106
926.352	11954
926.459	12102
926.566	12155
926.673	11946
926.779	11931
926.886	11836
926.993	11748
927.099	11691
927.206	11756
927.312	11714
927.419	11809
927.525	11691
927.631	11676
927.737	11627
927.843	11600
927.95	11547
928.056	11547
928.162	11592
928.267	11585
928.373	12068
928.479	11608
928.585	11471
928.69	11509
928.796	11558
928.901	11391
929.007	11303
929.112	11433
929.218	11368
929.323	11364
929.428	11315
929.533	11379
929.638	11269
929.743	11280
929.848	11212
929.953	11231
930.058	11242
930.163	11048
930.267	11037
930.372	11170
930.477	10991
930.581	11162
930.685	11098
930.79	10908
930.894	10904
930.998	10866
931.103	10938
931.207	10683
931.311	10550
931.415	10451
931.519	10253
931.623	10291
