Data from test_V78500241_798.txt Node
Date: Fri Mar 25 15:15:24 CST 2022
User: usil
Spectrometer: V785-0024
Trigger mode: 0
Integration Time (sec): 4.000000E-1
Scans to average: 1
Nonlinearity correction enabled: false
Boxcar width: 0
Storing dark spectrum: false
XAxis mode: Wavelengths
Number of Pixels in Spectrum: 1024
>>>>>Begin Spectral Data<<<<<
801.071	28284
801.214	28352
801.356	28013
801.499	27884
801.641	27778
801.783	27934
801.926	27895
802.068	27861
802.211	27667
802.353	27637
802.496	27435
802.638	27629
802.78	27519
802.923	27530
803.065	27393
803.208	27549
803.35	27526
803.492	27576
803.635	27625
803.777	27473
803.919	27694
804.061	27964
804.204	27850
804.346	27637
804.488	27667
804.63	27827
804.773	27739
804.915	27709
805.057	27751
805.199	27675
805.341	27865
805.483	27914
805.626	27831
805.768	27850
805.91	27789
806.052	27835
806.194	27751
806.336	27949
806.478	27831
806.62	27884
806.762	27964
806.904	28150
807.046	28371
807.188	28265
807.33	28109
807.472	28329
807.614	28200
807.756	28215
807.898	28093
808.04	28185
808.182	28097
808.324	28032
808.465	28215
808.607	28329
808.749	28424
808.891	28542
809.033	28721
809.174	28573
809.316	28592
809.458	28485
809.6	28478
809.741	28675
809.883	28706
810.025	28774
810.166	28763
810.308	28843
810.45	28812
810.591	28774
810.733	28550
810.875	28527
811.016	28440
811.158	28379
811.299	28660
811.441	28717
811.582	28630
811.724	28588
811.865	28584
812.007	28504
812.148	28459
812.29	28653
812.431	28786
812.573	28820
812.714	29071
812.855	29185
812.997	29086
813.138	29429
813.279	29235
813.421	28995
813.562	29102
813.703	29086
813.845	28713
813.986	28394
814.127	28314
814.268	28322
814.41	28200
814.551	28265
814.692	28382
814.833	28238
814.974	28204
815.115	28219
815.256	28181
815.397	28154
815.539	28162
815.68	28078
815.821	27956
815.962	28074
816.103	28013
816.244	27930
816.385	27861
816.526	27892
816.666	27504
816.807	27523
816.948	27553
817.089	27747
817.23	27648
817.371	27496
817.512	27583
817.653	27622
817.793	27458
817.934	27427
818.075	27614
818.216	27530
818.356	27633
818.497	27447
818.638	27332
818.778	27332
818.919	27344
819.06	27587
819.2	27427
819.341	27671
819.481	27580
819.622	27549
819.762	27895
819.903	27793
820.043	27907
820.184	27857
820.324	27694
820.465	27755
820.605	27701
820.746	27755
820.886	27644
821.026	27789
821.167	27759
821.307	27667
821.447	27519
821.588	27294
821.728	27294
821.868	27344
822.008	27020
822.149	27032
822.289	26994
822.429	26815
822.569	26689
822.709	26891
822.849	26511
822.99	26598
823.13	26499
823.27	26526
823.41	26370
823.55	26298
823.69	26199
823.83	26385
823.97	26434
824.11	26195
824.25	26240
824.389	26183
824.529	26339
824.669	26142
824.809	26263
824.949	26317
825.089	26275
825.228	26252
825.368	25947
825.508	26081
825.648	26088
825.787	26164
825.927	26214
826.067	25970
826.206	26031
826.346	26024
826.485	26199
826.625	26122
826.765	26126
826.904	26081
827.044	25765
827.183	25826
827.323	25616
827.462	25925
827.601	25917
827.741	25811
827.88	25921
828.02	25651
828.159	25647
828.298	25769
828.437	25997
828.577	25769
828.716	25841
828.855	25624
828.994	25525
829.134	25533
829.273	25396
829.412	25396
829.551	25460
829.69	25411
829.829	25601
829.968	25658
830.107	25601
830.246	25445
830.385	25270
830.524	25403
830.663	25301
830.802	25270
830.941	25012
831.08	25107
831.219	25156
831.357	25160
831.496	25293
831.635	25012
831.774	25050
831.913	24947
832.051	24958
832.19	24897
832.329	24920
832.467	24825
832.606	24749
832.744	24817
832.883	24753
833.022	24867
833.16	24730
833.299	24745
833.437	24806
833.576	24897
833.714	24985
833.852	24817
833.991	24913
834.129	24897
834.267	24821
834.406	24856
834.544	24806
834.682	24802
834.821	24798
834.959	24943
835.097	24745
835.235	24787
835.373	24802
835.511	24802
835.65	24616
835.788	24730
835.926	24464
836.064	24475
836.202	24464
836.34	24646
836.478	24726
836.615	24604
836.753	24665
836.891	24707
837.029	24665
837.167	24582
837.305	24574
837.443	24532
837.58	24452
837.718	24540
837.856	24525
837.993	24582
838.131	24532
838.269	24266
838.406	24315
838.544	24346
838.681	24148
838.819	24213
838.956	24003
839.094	23958
839.231	24049
839.369	24083
839.506	24490
839.643	24216
839.781	24007
839.918	23851
840.055	24011
840.193	24068
840.33	23710
840.467	23870
840.604	23939
840.742	24102
840.879	23699
841.016	23722
841.153	23653
841.29	23904
841.427	23813
841.564	23851
841.701	23805
841.838	23790
841.975	23634
842.112	23752
842.249	23592
842.385	23524
842.522	23684
842.659	23649
842.796	23661
842.933	23512
843.069	23630
843.206	23600
843.343	23661
843.479	23615
843.616	23600
843.752	23368
843.889	23398
844.025	23570
844.162	23303
844.298	23425
844.435	23353
844.571	23307
844.708	23349
844.844	23543
844.98	23436
845.117	23630
845.253	23258
845.389	23269
845.525	23284
845.661	23151
845.798	23025
845.934	23140
846.07	23006
846.206	23094
846.342	23121
846.478	23212
846.614	22866
846.75	22980
846.886	22820
847.022	22949
847.158	22805
847.294	22843
847.429	22790
847.565	22812
847.701	23006
847.837	22440
847.972	22493
848.108	22656
848.244	22516
848.379	22421
848.515	22382
848.65	22424
848.786	22478
848.921	22447
849.057	22481
849.192	22531
849.328	22504
849.463	22500
849.598	22440
849.734	22421
849.869	22238
850.004	22287
850.14	22188
850.275	22200
850.41	22139
850.545	22059
850.68	22139
850.815	22154
850.95	22261
851.085	22329
851.22	22356
851.355	22329
851.49	22223
851.625	22196
851.76	22185
851.895	22154
852.03	22036
852.165	22299
852.299	22078
852.434	22246
852.569	22135
852.703	22265
852.838	22257
852.973	22337
853.107	22303
853.242	22162
853.376	22067
853.511	21907
853.645	22048
853.78	22158
853.914	22063
854.048	22006
854.183	21972
854.317	22154
854.451	22265
854.585	22013
854.72	21953
854.854	22139
854.988	22010
855.122	22055
855.256	21930
855.39	22090
855.524	21987
855.658	22006
855.792	22078
855.926	22017
856.06	22032
856.194	22074
856.327	21888
856.461	21941
856.595	21983
856.729	21934
856.862	22017
856.996	21975
857.13	22173
857.263	22086
857.397	22166
857.53	21998
857.664	21987
857.797	22067
857.931	22150
858.064	21983
858.197	22048
858.331	22051
858.464	21922
858.597	21888
858.731	21854
858.864	21934
858.997	22010
859.13	22109
859.263	22074
859.396	22120
859.529	22025
859.662	21998
859.795	21956
859.928	22036
860.061	22116
860.194	22207
860.327	22021
860.46	21968
860.592	22188
860.725	22166
860.858	22131
860.99	21926
861.123	22006
861.256	21956
861.388	22021
861.521	22748
861.653	21850
861.786	21812
861.918	21857
862.05	21800
862.183	22021
862.315	22002
862.447	22013
862.58	21934
862.712	21728
862.844	21724
862.976	21709
863.108	21759
863.24	22181
863.372	21671
863.504	21660
863.636	21724
863.768	21732
863.9	21644
864.032	21534
864.164	21690
864.296	21705
864.428	21850
864.559	21774
864.691	21743
864.823	21739
864.954	21603
865.086	21599
865.217	21618
865.349	21477
865.48	21618
865.612	21519
865.743	21743
865.875	21633
866.006	21595
866.137	21542
866.269	21572
866.4	21644
866.531	21435
866.662	21606
866.793	21477
866.924	21511
867.055	21488
867.186	21557
867.317	21408
867.448	21435
867.579	21496
867.71	21492
867.841	21405
867.972	21553
868.103	21519
868.233	21553
868.364	21618
868.495	21572
868.625	21755
868.756	21766
868.886	21641
869.017	21915
869.147	21781
869.278	21861
869.408	21747
869.539	21774
869.669	21884
869.799	21922
869.929	21922
870.06	21918
870.19	22154
870.32	22017
870.45	22082
870.58	22207
870.71	22192
870.84	22147
870.97	22120
871.1	22200
871.23	22200
871.36	22314
871.489	22158
871.619	22409
871.749	22363
871.879	22367
872.008	22360
872.138	22386
872.267	22386
872.397	22226
872.526	22116
872.656	22116
872.785	22143
872.915	22325
873.044	22447
873.173	22344
873.303	22394
873.432	22432
873.561	22485
873.69	22546
873.819	22402
873.948	22565
874.077	22333
874.206	22344
874.335	22344
874.464	22432
874.593	22497
874.722	22516
874.851	22634
874.979	22611
875.108	22683
875.237	22470
875.365	22546
875.494	22519
875.623	22630
875.751	22527
875.88	22637
876.008	22721
876.136	22672
876.265	22904
876.393	23136
876.521	23064
876.65	23022
876.778	23098
876.906	22965
877.034	22763
877.162	22991
877.29	22946
877.418	22908
877.546	22968
877.674	22797
877.802	22949
877.93	22786
878.058	22858
878.185	22752
878.313	22885
878.441	22858
878.568	22850
878.696	22866
878.824	22961
878.951	23181
879.079	23143
879.206	23284
879.333	23075
879.461	22942
879.588	23025
879.715	23075
879.842	23220
879.97	22930
880.097	22752
880.224	22717
880.351	22767
880.478	22645
880.605	22759
880.732	22744
880.859	22976
880.986	22672
881.112	22710
881.239	22691
881.366	22546
881.493	22413
881.619	22352
881.746	22291
881.872	22363
881.999	22318
882.125	22150
882.252	22325
882.378	22257
882.505	22325
882.631	22074
882.757	22021
882.883	22169
883.01	21994
883.136	21934
883.262	21892
883.388	21854
883.514	22021
883.64	22070
883.766	21983
883.892	21759
884.018	21705
884.143	21964
884.269	22036
884.395	21675
884.52	21648
884.646	21717
884.772	21595
884.897	21401
885.023	21568
885.148	21663
885.274	21812
885.399	21793
885.524	21576
885.65	21587
885.775	21644
885.9	21530
886.025	21637
886.15	21720
886.275	21519
886.4	21549
886.525	21583
886.65	21580
886.775	21663
886.9	21667
887.025	21831
887.149	21564
887.274	21370
887.399	21405
887.523	21412
887.648	21382
887.773	21298
887.897	21580
888.021	21469
888.146	21397
888.27	21359
888.395	21458
888.519	21355
888.643	21351
888.767	21523
888.891	21249
889.015	21291
889.139	21173
889.263	21195
889.387	21260
889.511	21378
889.635	21355
889.759	21249
889.883	21150
890.006	21173
890.13	21336
890.254	21180
890.377	21146
890.501	20941
890.624	20979
890.748	21005
890.871	20765
890.995	20868
891.118	20689
891.241	20739
891.364	20651
891.488	20933
891.611	20804
891.734	20720
891.857	20887
891.98	20716
892.103	20807
892.226	20785
892.349	20720
892.471	20587
892.594	20663
892.717	20640
892.839	20602
892.962	20636
893.085	20777
893.207	20674
893.33	20568
893.452	20549
893.575	20686
893.697	20556
893.819	20731
893.941	20834
894.064	20781
894.186	20560
894.308	20560
894.43	20739
894.552	20777
894.674	20686
894.796	20514
894.918	20549
895.04	20518
895.161	20781
895.283	20701
895.405	20571
895.526	20640
895.648	20560
895.769	20701
895.891	20613
896.012	20640
896.134	20705
896.255	20594
896.376	20617
896.498	20594
896.619	20682
896.74	20640
896.861	20754
896.982	21051
897.103	21138
897.224	20785
897.345	20785
897.466	20724
897.587	20876
897.708	21096
897.828	20902
897.949	20708
898.07	20644
898.19	20739
898.311	20956
898.431	20746
898.552	20819
898.672	20693
898.792	20921
898.913	20750
899.033	20689
899.153	20655
899.273	20549
899.393	20594
899.513	20617
899.633	20575
899.753	20564
899.873	20434
899.993	20682
900.113	20507
900.232	20583
900.352	20473
900.472	20385
900.591	20385
900.711	20400
900.83	20320
900.95	20400
901.069	20514
901.189	20221
901.308	20069
901.427	19890
901.546	19970
901.665	19906
901.784	19944
901.904	19780
902.023	19727
902.141	19521
902.26	19415
902.379	19533
902.498	19449
902.617	19308
902.735	19441
902.854	19422
902.973	19354
903.091	19065
903.21	19168
903.328	19103
903.446	19008
903.565	18935
903.683	19008
903.801	18757
903.919	18856
904.038	18913
904.156	18646
904.274	18783
904.392	18604
904.51	18593
904.627	18719
904.745	18696
904.863	18749
904.981	18388
905.098	18319
905.216	18456
905.334	18361
905.451	18426
905.569	18228
905.686	18270
905.803	18361
905.921	18038
906.038	18197
906.155	18091
906.272	17999
906.389	18011
906.506	17882
906.623	17912
906.74	17832
906.857	17783
906.974	17684
907.091	17931
907.208	18022
907.324	17870
907.441	17817
907.557	17558
907.674	17646
907.79	17463
907.907	17387
908.023	17608
908.139	17665
908.256	17493
908.372	17490
908.488	17573
908.604	17421
908.72	17337
908.836	17288
908.952	17220
909.068	17330
909.184	17387
909.3	17307
909.415	17280
909.531	17341
909.647	17105
909.762	16942
909.878	16953
909.993	16976
910.108	16930
910.224	16953
910.339	16976
910.454	16820
910.57	16820
910.685	16748
910.8	17159
910.915	16987
911.03	16797
911.145	16615
911.259	16538
911.374	16565
911.489	16436
911.604	16443
911.718	16310
911.833	16318
911.947	16196
912.062	16162
912.176	16310
912.291	16204
912.405	16409
912.519	16424
912.633	16398
912.748	16348
912.862	16329
912.976	16143
913.09	16097
913.204	16078
913.318	16071
913.431	16242
913.545	16192
913.659	16169
913.772	16135
913.886	15880
914	15972
914.113	16044
914.226	16055
914.34	15926
914.453	15797
914.566	15892
914.68	15922
914.793	15819
914.906	15606
915.019	15526
915.132	15466
915.245	15572
915.358	15599
915.47	15625
915.583	15568
915.696	15564
915.809	15618
915.921	15663
916.034	15466
916.146	15408
916.259	15439
916.371	15530
916.483	15462
916.595	15443
916.708	15313
916.82	15291
916.932	15359
917.044	15291
917.156	15230
917.268	15237
917.38	15138
917.491	15020
917.603	15138
917.715	15237
917.826	15222
917.938	15066
918.049	14982
918.161	15142
918.272	15317
918.384	15176
918.495	15112
918.606	14963
918.717	14861
918.828	14876
918.939	14944
919.05	14834
919.161	14929
919.272	14674
919.383	14743
919.494	14967
919.604	15024
919.715	14826
919.826	14765
919.936	14868
920.047	14872
920.157	14777
920.267	15017
920.378	14918
920.488	14929
920.598	15009
920.708	15123
920.818	15005
920.928	14956
921.038	15161
921.148	15070
921.258	14849
921.368	14670
921.477	14701
921.587	14610
921.697	14427
921.806	14636
921.916	14438
922.025	14256
922.134	14176
922.244	14191
922.353	14259
922.462	14039
922.571	13982
922.68	13993
922.789	13947
922.898	13864
923.007	13833
923.116	13913
923.224	13837
923.333	13761
923.442	13723
923.55	13715
923.659	13727
923.767	13795
923.876	13620
923.984	13731
924.092	13521
924.201	13674
924.309	13609
924.417	13624
924.525	13548
924.633	13441
924.741	14332
924.849	13346
924.956	13445
925.064	13259
925.172	13156
925.279	13156
925.387	13365
925.494	13297
925.602	13415
925.709	13209
925.816	13118
925.924	13168
926.031	13209
926.138	13129
926.245	13266
926.352	13126
926.459	13198
926.566	13327
926.673	13129
926.779	12973
926.886	12962
926.993	12840
927.099	12867
927.206	12753
927.312	12703
927.419	12932
927.525	12798
927.631	12844
927.737	12658
927.843	12711
927.95	12582
928.056	12627
928.162	12608
928.267	12722
928.373	13278
928.479	12665
928.585	12403
928.69	12540
928.796	12608
928.901	12441
929.007	12365
929.112	12494
929.218	12483
929.323	12330
929.428	12395
929.533	12597
929.638	12247
929.743	12300
929.848	12334
929.953	12281
930.058	12171
930.163	12049
930.267	11999
930.372	12159
930.477	11889
930.581	12239
930.685	11988
930.79	11939
930.894	11969
930.998	11935
931.103	12003
931.207	11703
931.311	11490
931.415	11493
931.519	11250
931.623	11322
