Data from test_V78500241_312.txt Node
Date: Fri Mar 25 15:12:01 CST 2022
User: usil
Spectrometer: V785-0024
Trigger mode: 0
Integration Time (sec): 4.000000E-1
Scans to average: 1
Nonlinearity correction enabled: false
Boxcar width: 0
Storing dark spectrum: false
XAxis mode: Wavelengths
Number of Pixels in Spectrum: 1024
>>>>>Begin Spectral Data<<<<<
801.071	27823
801.214	27755
801.356	27378
801.499	27386
801.641	27241
801.783	27264
801.926	27397
802.068	27279
802.211	27329
802.353	27256
802.496	27024
802.638	26906
802.78	26982
802.923	26834
803.065	26887
803.208	26811
803.35	26986
803.492	27055
803.635	27096
803.777	26979
803.919	27184
804.061	27374
804.204	27085
804.346	26887
804.488	26861
804.63	27116
804.773	26971
804.915	26982
805.057	27146
805.199	27116
805.341	27146
805.483	27310
805.626	27169
805.768	27093
805.91	27123
806.052	27131
806.194	27237
806.336	27374
806.478	27199
806.62	27161
806.762	27351
806.904	27435
807.046	27644
807.188	27507
807.33	27599
807.472	27663
807.614	27408
807.756	27644
807.898	27325
808.04	27302
808.182	27389
808.324	27424
808.465	27260
808.607	27511
808.749	27770
808.891	27857
809.033	27953
809.174	27907
809.316	27732
809.458	27751
809.6	27842
809.741	27759
809.883	28010
810.025	28124
810.166	27994
810.308	28086
810.45	28029
810.591	27865
810.733	27781
810.875	27633
811.016	27652
811.158	27705
811.299	27823
811.441	27918
811.582	27911
811.724	27705
811.865	27629
812.007	27705
812.148	27603
812.29	27732
812.431	27816
812.573	28044
812.714	28128
812.855	28234
812.997	28386
813.138	28367
813.279	28371
813.421	28440
813.562	28044
813.703	28105
813.845	27960
813.986	27595
814.127	27542
814.268	27477
814.41	27325
814.551	27473
814.692	27252
814.833	27298
814.974	27306
815.115	27268
815.256	27287
815.397	27211
815.539	27260
815.68	27203
815.821	27058
815.962	27218
816.103	27024
816.244	27039
816.385	26902
816.526	26902
816.666	26689
816.807	26613
816.948	26644
817.089	26651
817.23	26568
817.371	26659
817.512	26693
817.653	26625
817.793	26644
817.934	26674
818.075	26522
818.216	26598
818.356	26541
818.497	26438
818.638	26286
818.778	26290
818.919	26199
819.06	26377
819.2	26419
819.341	26526
819.481	26457
819.622	26644
819.762	26838
819.903	26716
820.043	26765
820.184	26720
820.324	26629
820.465	26678
820.605	26670
820.746	26568
820.886	26609
821.026	26625
821.167	26598
821.307	26678
821.447	26667
821.588	26339
821.728	26408
821.868	26115
822.008	26073
822.149	25940
822.289	25974
822.429	25830
822.569	25814
822.709	25639
822.849	25582
822.99	25487
823.13	25491
823.27	25483
823.41	25301
823.55	25232
823.69	25259
823.83	25236
823.97	25339
824.11	25213
824.25	25000
824.389	25137
824.529	25114
824.669	25148
824.809	25308
824.949	25324
825.089	25251
825.228	25160
825.368	25004
825.508	25050
825.648	24913
825.787	25133
825.927	25053
826.067	24989
826.206	24985
826.346	24935
826.485	24989
826.625	25103
826.765	25225
826.904	25103
827.044	24692
827.183	24665
827.323	24490
827.462	24798
827.601	24715
827.741	24604
827.88	24555
828.02	24547
828.159	24696
828.298	24627
828.437	24715
828.577	24669
828.716	24863
828.855	24627
828.994	24319
829.134	24365
829.273	24380
829.412	24315
829.551	24327
829.69	24479
829.829	24418
829.968	24490
830.107	24384
830.246	24353
830.385	24369
830.524	24243
830.663	24277
830.802	24064
830.941	23935
831.08	23942
831.219	23946
831.357	24140
831.496	24121
831.635	23897
831.774	23889
831.913	23866
832.051	23840
832.19	23748
832.329	23760
832.467	23733
832.606	23566
832.744	23604
832.883	23710
833.022	23649
833.16	23783
833.299	23638
833.437	23748
833.576	23707
833.714	23573
833.852	23718
833.991	23802
834.129	23824
834.267	23691
834.406	23672
834.544	23665
834.682	23764
834.821	23691
834.959	23847
835.097	23562
835.235	23729
835.373	23551
835.511	23531
835.65	23608
835.788	23478
835.926	23440
836.064	23414
836.202	23440
836.34	23512
836.478	23627
836.615	23577
836.753	23490
836.891	23691
837.029	23665
837.167	23463
837.305	23436
837.443	23402
837.58	23318
837.718	23482
837.856	23280
837.993	23235
838.131	23444
838.269	23246
838.406	23292
838.544	23246
838.681	22968
838.819	23086
838.956	22885
839.094	22858
839.231	22908
839.369	23003
839.506	23307
839.643	23083
839.781	22866
839.918	22622
840.055	22710
840.193	22812
840.33	22672
840.467	22706
840.604	22774
840.742	23029
840.879	22637
841.016	22744
841.153	22687
841.29	22816
841.427	22607
841.564	22755
841.701	22733
841.838	22656
841.975	22653
842.112	22725
842.249	22538
842.385	22531
842.522	22744
842.659	22584
842.796	22527
842.933	22512
843.069	22459
843.206	22459
843.343	22531
843.479	22542
843.616	22527
843.752	22272
843.889	22284
844.025	22428
844.162	22310
844.298	22219
844.435	22284
844.571	22226
844.708	22306
844.844	22303
844.98	22386
845.117	22287
845.253	22200
845.389	22109
845.525	22112
845.661	22162
845.798	21949
845.934	22051
846.07	21869
846.206	22002
846.342	22006
846.478	21968
846.614	21838
846.75	21538
846.886	21656
847.022	21679
847.158	21686
847.294	21682
847.429	21724
847.565	21751
847.701	21838
847.837	21553
847.972	21435
848.108	21481
848.244	21500
848.379	21397
848.515	21252
848.65	21344
848.786	21298
848.921	21260
849.057	21386
849.192	21256
849.328	21245
849.463	21351
849.598	21195
849.734	21154
849.869	21013
850.004	21089
850.14	21062
850.275	21005
850.41	20914
850.545	20967
850.68	21009
850.815	21081
850.95	21001
851.085	21203
851.22	21070
851.355	21058
851.49	20975
851.625	21036
851.76	21074
851.895	20876
852.03	20880
852.165	21096
852.299	21062
852.434	21116
852.569	21157
852.703	21074
852.838	21020
852.973	21173
853.107	21325
853.242	20986
853.376	20845
853.511	20746
853.645	20823
853.78	21017
853.914	20929
854.048	20963
854.183	20891
854.317	20823
854.451	21100
854.585	20773
854.72	20861
854.854	20914
854.988	20861
855.122	20895
855.256	20800
855.39	20853
855.524	20883
855.658	20773
855.792	20895
855.926	20910
856.06	20921
856.194	20944
856.327	20910
856.461	20823
856.595	20785
856.729	20857
856.862	21043
856.996	20899
857.13	20971
857.263	20937
857.397	20960
857.53	20883
857.664	21047
857.797	20937
857.931	20998
858.064	20826
858.197	20944
858.331	20834
858.464	20807
858.597	20739
858.731	20887
858.864	20720
858.997	20785
859.13	20834
859.263	20792
859.396	20952
859.529	20910
859.662	20785
859.795	20796
859.928	20739
860.061	21001
860.194	21127
860.327	20872
860.46	20826
860.592	20868
860.725	20986
860.858	20876
860.99	20883
861.123	20765
861.256	20861
861.388	20872
861.521	21439
861.653	20686
861.786	20606
861.918	20693
862.05	20758
862.183	20792
862.315	20826
862.447	20872
862.58	20868
862.712	20583
862.844	20533
862.976	20583
863.108	20530
863.24	21135
863.372	20473
863.504	20465
863.636	20457
863.768	20579
863.9	20621
864.032	20488
864.164	20412
864.296	20693
864.428	20670
864.559	20571
864.691	20667
864.823	20579
864.954	20415
865.086	20495
865.217	20385
865.349	20408
865.48	20465
865.612	20431
865.743	20568
865.875	20507
866.006	20412
866.137	20404
866.269	20404
866.4	20309
866.531	20400
866.662	20294
866.793	20336
866.924	20298
867.055	20355
867.186	20374
867.317	20256
867.448	20221
867.579	20305
867.71	20324
867.841	20256
867.972	20484
868.103	20465
868.233	20381
868.364	20438
868.495	20541
868.625	20636
868.756	20746
868.886	20499
869.017	20526
869.147	20689
869.278	20629
869.408	20636
869.539	20594
869.669	20689
869.799	20655
869.929	20674
870.06	20712
870.19	20849
870.32	20792
870.45	21032
870.58	21047
870.71	21085
870.84	21077
870.97	21051
871.1	21032
871.23	21188
871.36	21180
871.489	21100
871.619	21161
871.749	21252
871.879	21348
872.008	21260
872.138	21233
872.267	21108
872.397	21020
872.526	20956
872.656	21047
872.785	21024
872.915	21104
873.044	21340
873.173	21241
873.303	21230
873.432	21321
873.561	21344
873.69	21260
873.819	21230
873.948	21416
874.077	21275
874.206	21214
874.335	21298
874.464	21424
874.593	21599
874.722	21367
874.851	21526
874.979	21496
875.108	21545
875.237	21420
875.365	21412
875.494	21564
875.623	21485
875.751	21443
875.88	21466
876.008	21599
876.136	21603
876.265	21922
876.393	22097
876.521	22044
876.65	21975
876.778	21838
876.906	21873
877.034	21941
877.162	21838
877.29	21781
877.418	21873
877.546	21903
877.674	21865
877.802	21964
877.93	21850
878.058	21842
878.185	21770
878.313	21808
878.441	21755
878.568	21599
878.696	21838
878.824	21831
878.951	21918
879.079	21975
879.206	22044
879.333	22006
879.461	21934
879.588	22067
879.715	22048
879.842	22188
879.97	21915
880.097	21846
880.224	21751
880.351	21705
880.478	21663
880.605	21679
880.732	21515
880.859	21918
880.986	21781
881.112	21724
881.239	21610
881.366	21431
881.493	21420
881.619	21291
881.746	21226
881.872	21272
881.999	21214
882.125	21154
882.252	21211
882.378	21298
882.505	21283
882.631	21157
882.757	20925
882.883	21081
883.01	21028
883.136	20937
883.262	20815
883.388	20861
883.514	20979
883.64	21036
883.766	20956
883.892	20712
884.018	20826
884.143	20933
884.269	21062
884.395	20606
884.52	20716
884.646	20651
884.772	20556
884.897	20526
885.023	20541
885.148	20678
885.274	20895
885.399	20792
885.524	20648
885.65	20670
885.775	20594
885.9	20549
886.025	20754
886.15	20701
886.275	20602
886.4	20568
886.525	20564
886.65	20556
886.775	20549
886.9	20872
887.025	20887
887.149	20545
887.274	20560
887.399	20374
887.523	20332
887.648	20290
887.773	20324
887.897	20377
888.021	20400
888.146	20336
888.27	20564
888.395	20530
888.519	20412
888.643	20446
888.767	20305
888.891	20233
889.015	20187
889.139	20168
889.263	20077
889.387	20278
889.511	20412
889.635	20286
889.759	20199
889.883	20191
890.006	20263
890.13	20267
890.254	20107
890.377	20115
890.501	19894
890.624	19951
890.748	20043
890.871	19894
890.995	19799
891.118	19704
891.241	19776
891.364	19803
891.488	19928
891.611	19750
891.734	19700
891.857	19776
891.98	19757
892.103	19860
892.226	19807
892.349	19780
892.471	19506
892.594	19750
892.717	19746
892.839	19620
892.962	19799
893.085	19765
893.207	19693
893.33	19590
893.452	19635
893.575	19674
893.697	19689
893.819	19890
893.941	19772
894.064	19696
894.186	19700
894.308	19609
894.43	19750
894.552	19799
894.674	19689
894.796	19533
894.918	19681
895.04	19674
895.161	19765
895.283	19700
895.405	19666
895.526	19651
895.648	19693
895.769	19635
895.891	19761
896.012	19734
896.134	19791
896.255	19643
896.376	19666
896.498	19860
896.619	19753
896.74	19666
896.861	19811
896.982	20062
897.103	20081
897.224	19986
897.345	19947
897.466	19940
897.587	19894
897.708	19986
897.828	19947
897.949	19803
898.07	19715
898.19	19852
898.311	20027
898.431	19811
898.552	19959
898.672	19967
898.792	19974
898.913	19833
899.033	19814
899.153	19769
899.273	19685
899.393	19708
899.513	19635
899.633	19620
899.753	19643
899.873	19487
899.993	19662
900.113	19620
900.232	19624
900.352	19548
900.472	19495
900.591	19430
900.711	19415
900.83	19373
900.95	19491
901.069	19533
901.189	19422
901.308	18977
901.427	19000
901.546	19091
901.665	18970
901.784	19027
901.904	18802
902.023	18760
902.141	18696
902.26	18532
902.379	18646
902.498	18490
902.617	18475
902.735	18494
902.854	18532
902.973	18475
903.091	18201
903.21	18155
903.328	18213
903.446	18064
903.565	17969
903.683	18026
903.801	17840
903.919	17969
904.038	17973
904.156	17870
904.274	17840
904.392	17817
904.51	17722
904.627	17699
904.745	17843
904.863	17893
904.981	17634
905.098	17433
905.216	17497
905.334	17516
905.451	17414
905.569	17425
905.686	17501
905.803	17376
905.921	17235
906.038	17421
906.155	17250
906.272	17303
906.389	17212
906.506	17029
906.623	16927
906.74	16999
906.857	16938
906.974	16850
907.091	17071
907.208	17102
907.324	17124
907.441	16908
907.557	16733
907.674	16755
907.79	16687
907.907	16755
908.023	16736
908.139	16820
908.256	16774
908.372	16607
908.488	16546
908.604	16440
908.72	16360
908.836	16443
908.952	16322
909.068	16447
909.184	16466
909.3	16272
909.415	16497
909.531	16417
909.647	16059
909.762	16147
909.878	16124
909.993	16154
910.108	16143
910.224	15994
910.339	16040
910.454	15949
910.57	15918
910.685	15854
910.8	16150
910.915	16029
911.03	15930
911.145	15709
911.259	15736
911.374	15778
911.489	15622
911.604	15545
911.718	15447
911.833	15439
911.947	15420
912.062	15256
912.176	15450
912.291	15469
912.405	15496
912.519	15641
912.633	15580
912.748	15500
912.862	15412
912.976	15237
913.09	15245
913.204	15211
913.318	15310
913.431	15294
913.545	15386
913.659	15367
913.772	15211
913.886	15138
914	15123
914.113	15275
914.226	15142
914.34	15230
914.453	14971
914.566	15203
914.68	14979
914.793	14918
914.906	14826
915.019	14682
915.132	14693
915.245	14727
915.358	14891
915.47	14686
915.583	14785
915.696	14670
915.809	14887
915.921	14883
916.034	14617
916.146	14541
916.259	14533
916.371	14724
916.483	14693
916.595	14549
916.708	14476
916.82	14575
916.932	14507
917.044	14530
917.156	14431
917.268	14484
917.38	14374
917.491	14298
917.603	14415
917.715	14484
917.826	14480
917.938	14259
918.049	14248
918.161	14374
918.272	14423
918.384	14434
918.495	14305
918.606	14088
918.717	14050
918.828	14138
918.939	14244
919.05	14062
919.161	14088
919.272	13913
919.383	14096
919.494	14202
919.604	14381
919.715	14103
919.826	13967
919.936	14115
920.047	14157
920.157	14077
920.267	14301
920.378	14050
920.488	14035
920.598	14210
920.708	14404
920.818	14343
920.928	14164
921.038	14358
921.148	14290
921.258	14024
921.368	13921
921.477	13894
921.587	13902
921.697	13700
921.806	13833
921.916	13761
922.025	13476
922.134	13540
922.244	13441
922.353	13544
922.462	13419
922.571	13263
922.68	13232
922.789	13221
922.898	13236
923.007	13076
923.116	13122
923.224	13099
923.333	13141
923.442	12985
923.55	12958
923.659	12928
923.767	13038
923.876	12840
923.984	13004
924.092	12943
924.201	12973
924.309	12871
924.417	12890
924.525	12867
924.633	12817
924.741	13556
924.849	12696
924.956	12707
925.064	12684
925.172	12517
925.279	12559
925.387	12627
925.494	12570
925.602	12620
925.709	12532
925.816	12494
925.924	12513
926.031	12658
926.138	12513
926.245	12582
926.352	12418
926.459	12502
926.566	12616
926.673	12486
926.779	12376
926.886	12353
926.993	12175
927.099	12064
927.206	11973
927.312	12125
927.419	12125
927.525	12175
927.631	12167
927.737	12121
927.843	11992
927.95	11870
928.056	11992
928.162	11923
928.267	12095
928.373	12681
928.479	12053
928.585	11760
928.69	11954
928.796	11984
928.901	11912
929.007	11619
929.112	11843
929.218	11809
929.323	11805
929.428	11695
929.533	11832
929.638	11695
929.743	11695
929.848	11646
929.953	11680
930.058	11642
930.163	11345
930.267	11444
930.372	11585
930.477	11345
930.581	11623
930.685	11410
930.79	11273
930.894	11345
930.998	11246
931.103	11436
931.207	11056
931.311	11037
931.415	10885
931.519	10725
931.623	10645
