Data from test_V78500241_3017.txt Node
Date: Fri Mar 25 15:30:52 CST 2022
User: usil
Spectrometer: V785-0024
Trigger mode: 0
Integration Time (sec): 4.000000E-1
Scans to average: 1
Nonlinearity correction enabled: false
Boxcar width: 0
Storing dark spectrum: false
XAxis mode: Wavelengths
Number of Pixels in Spectrum: 1024
>>>>>Begin Spectral Data<<<<<
801.071	27264
801.214	27165
801.356	27028
801.499	26952
801.641	26895
801.783	26921
801.926	26750
802.068	26819
802.211	26796
802.353	26781
802.496	26461
802.638	26606
802.78	26568
802.923	26499
803.065	26358
803.208	26328
803.35	26389
803.492	26579
803.635	26613
803.777	26583
803.919	26590
804.061	26967
804.204	26522
804.346	26469
804.488	26575
804.63	26613
804.773	26522
804.915	26724
805.057	26674
805.199	26629
805.341	26613
805.483	26701
805.626	26716
805.768	26693
805.91	26769
806.052	26792
806.194	26549
806.336	26785
806.478	26636
806.62	26705
806.762	26701
806.904	26994
807.046	27150
807.188	27268
807.33	27222
807.472	27245
807.614	26925
807.756	27108
807.898	26960
808.04	26811
808.182	26842
808.324	26872
808.465	27127
808.607	27138
808.749	27199
808.891	27298
809.033	27393
809.174	27405
809.316	27340
809.458	27405
809.6	27340
809.741	27424
809.883	27408
810.025	27526
810.166	27603
810.308	27637
810.45	27447
810.591	27412
810.733	27382
810.875	27211
811.016	27165
811.158	27237
811.299	27420
811.441	27466
811.582	27576
811.724	27363
811.865	27256
812.007	27283
812.148	27302
812.29	27370
812.431	27485
812.573	27663
812.714	27751
812.855	27827
812.997	27983
813.138	27937
813.279	27873
813.421	27888
813.562	27694
813.703	27698
813.845	27462
813.986	27173
814.127	26914
814.268	27169
814.41	26986
814.551	26845
814.692	26979
814.833	26819
814.974	26830
815.115	26948
815.256	26891
815.397	26842
815.539	26937
815.68	26777
815.821	26667
815.962	26826
816.103	26686
816.244	26617
816.385	26453
816.526	26503
816.666	26301
816.807	26218
816.948	26187
817.089	26374
817.23	26244
817.371	26267
817.512	26244
817.653	26122
817.793	26161
817.934	26195
818.075	26355
818.216	26107
818.356	26210
818.497	25993
818.638	25833
818.778	25902
818.919	25947
819.06	26130
819.2	26046
819.341	26244
819.481	26161
819.622	26415
819.762	26438
819.903	26465
820.043	26309
820.184	26362
820.324	26427
820.465	26442
820.605	26294
820.746	26400
820.886	26180
821.026	26309
821.167	26256
821.307	26225
821.447	26267
821.588	26119
821.728	26020
821.868	25951
822.008	25887
822.149	25674
822.289	25734
822.429	25479
822.569	25491
822.709	25369
822.849	25251
822.99	25247
823.13	25148
823.27	25217
823.41	24981
823.55	25050
823.69	25061
823.83	25031
823.97	24958
824.11	24779
824.25	24738
824.389	24692
824.529	24935
824.669	24840
824.809	24970
824.949	24943
825.089	24882
825.228	24939
825.368	24661
825.508	24688
825.648	24665
825.787	24692
825.927	24650
826.067	24726
826.206	24623
826.346	24722
826.485	24772
826.625	24635
826.765	24745
826.904	24776
827.044	24460
827.183	24479
827.323	24437
827.462	24502
827.601	24418
827.741	24456
827.88	24528
828.02	24083
828.159	24296
828.298	24441
828.437	24429
828.577	24350
828.716	24471
828.855	24330
828.994	24064
829.134	24106
829.273	24167
829.412	24125
829.551	24041
829.69	24133
829.829	24152
829.968	24247
830.107	24262
830.246	24045
830.385	24140
830.524	24018
830.663	23958
830.802	23729
830.941	23764
831.08	23771
831.219	23775
831.357	23802
831.496	24034
831.635	23752
831.774	23634
831.913	23589
832.051	23509
832.19	23433
832.329	23585
832.467	23246
832.606	23395
832.744	23398
832.883	23368
833.022	23296
833.16	23364
833.299	23315
833.437	23421
833.576	23436
833.714	23436
833.852	23478
833.991	23471
834.129	23646
834.267	23630
834.406	23410
834.544	23535
834.682	23535
834.821	23490
834.959	23505
835.097	23364
835.235	23425
835.373	23376
835.511	23452
835.65	23337
835.788	23376
835.926	23246
836.064	23235
836.202	23079
836.34	23296
836.478	23349
836.615	23315
836.753	23307
836.891	23345
837.029	23261
837.167	23299
837.305	23121
837.443	23022
837.58	23090
837.718	23185
837.856	23162
837.993	23121
838.131	23181
838.269	22904
838.406	22999
838.544	22949
838.681	22744
838.819	22698
838.956	22649
839.094	22523
839.231	22634
839.369	22786
839.506	23071
839.643	22824
839.781	22516
839.918	22580
840.055	22550
840.193	22546
840.33	22466
840.467	22618
840.604	22588
840.742	22729
840.879	22402
841.016	22440
841.153	22500
841.29	22538
841.427	22550
841.564	22474
841.701	22470
841.838	22516
841.975	22474
842.112	22660
842.249	22394
842.385	22440
842.522	22569
842.659	22527
842.796	22306
842.933	22379
843.069	22249
843.206	22238
843.343	22287
843.479	22382
843.616	22284
843.752	22188
843.889	22093
844.025	22215
844.162	22090
844.298	22090
844.435	22082
844.571	21998
844.708	22078
844.844	22303
844.98	22257
845.117	22090
845.253	22040
845.389	21918
845.525	22109
845.661	22010
845.798	21789
845.934	21816
846.07	21785
846.206	21797
846.342	21960
846.478	21747
846.614	21534
846.75	21504
846.886	21580
847.022	21603
847.158	21420
847.294	21705
847.429	21587
847.565	21583
847.701	21720
847.837	21310
847.972	21211
848.108	21367
848.244	21431
848.379	21203
848.515	21287
848.65	21043
848.786	21058
848.921	21142
849.057	21237
849.192	21127
849.328	21302
849.463	21165
849.598	21085
849.734	20952
849.869	20876
850.004	20872
850.14	20956
850.275	20842
850.41	20724
850.545	20876
850.68	20982
850.815	20906
850.95	20982
851.085	21017
851.22	21009
851.355	21039
851.49	20849
851.625	20796
851.76	20971
851.895	20883
852.03	20819
852.165	20914
852.299	20895
852.434	20971
852.569	20796
852.703	20887
852.838	21043
852.973	20952
853.107	21039
853.242	20750
853.376	20712
853.511	20594
853.645	20640
853.78	20834
853.914	20773
854.048	20636
854.183	20693
854.317	20617
854.451	20883
854.585	20788
854.72	20716
854.854	20746
854.988	20636
855.122	20667
855.256	20663
855.39	20712
855.524	20823
855.658	20727
855.792	20746
855.926	20648
856.06	20773
856.194	20743
856.327	20667
856.461	20754
856.595	20735
856.729	20811
856.862	20781
856.996	20667
857.13	20727
857.263	20849
857.397	20727
857.53	20682
857.664	20830
857.797	20796
857.931	20853
858.064	20807
858.197	20773
858.331	20765
858.464	20678
858.597	20731
858.731	20712
858.864	20609
858.997	20613
859.13	20617
859.263	20667
859.396	20781
859.529	20670
859.662	20750
859.795	20526
859.928	20705
860.061	20861
860.194	20937
860.327	20735
860.46	20686
860.592	20842
860.725	20891
860.858	20857
860.99	20701
861.123	20499
861.256	20526
861.388	20701
861.521	21287
861.653	20655
861.786	20594
861.918	20617
862.05	20560
862.183	20739
862.315	20674
862.447	20636
862.58	20549
862.712	20393
862.844	20492
862.976	20503
863.108	20507
863.24	21005
863.372	20351
863.504	20446
863.636	20541
863.768	20446
863.9	20427
864.032	20393
864.164	20434
864.296	20370
864.428	20518
864.559	20514
864.691	20400
864.823	20442
864.954	20328
865.086	20492
865.217	20275
865.349	20206
865.48	20381
865.612	20393
865.743	20427
865.875	20267
866.006	20237
866.137	20377
866.269	20263
866.4	20286
866.531	20263
866.662	20233
866.793	20256
866.924	20385
867.055	20328
867.186	20317
867.317	20343
867.448	20183
867.579	20298
867.71	20191
867.841	20115
867.972	20339
868.103	20172
868.233	20309
868.364	20355
868.495	20347
868.625	20503
868.756	20648
868.886	20438
869.017	20419
869.147	20518
869.278	20655
869.408	20499
869.539	20575
869.669	20541
869.799	20545
869.929	20651
870.06	20609
870.19	20792
870.32	20819
870.45	20883
870.58	20929
870.71	21119
870.84	20906
870.97	20948
871.1	20941
871.23	21192
871.36	21119
871.489	20921
871.619	21119
871.749	21127
871.879	21096
872.008	21211
872.138	21093
872.267	21161
872.397	20971
872.526	20967
872.656	20944
872.785	20891
872.915	21218
873.044	21222
873.173	21138
873.303	21074
873.432	21169
873.561	21214
873.69	21203
873.819	21081
873.948	21306
874.077	21275
874.206	21176
874.335	21123
874.464	21374
874.593	21435
874.722	21336
874.851	21317
874.979	21378
875.108	21408
875.237	21252
875.365	21161
875.494	21458
875.623	21370
875.751	21416
875.88	21450
876.008	21545
876.136	21466
876.265	21762
876.393	21915
876.521	21895
876.65	21804
876.778	21743
876.906	21728
877.034	21622
877.162	21667
877.29	21694
877.418	21728
877.546	21785
877.674	21705
877.802	21759
877.93	21789
878.058	21701
878.185	21701
878.313	21663
878.441	21720
878.568	21648
878.696	21713
878.824	21625
878.951	21797
879.079	21911
879.206	21994
879.333	21884
879.461	21789
879.588	21857
879.715	21865
879.842	21998
879.97	21895
880.097	21492
880.224	21511
880.351	21553
880.478	21599
880.605	21397
880.732	21568
880.859	21785
880.986	21603
881.112	21557
881.239	21492
881.366	21275
881.493	21192
881.619	21116
881.746	21104
881.872	21074
881.999	21131
882.125	21089
882.252	21211
882.378	21123
882.505	21279
882.631	21112
882.757	20902
882.883	20941
883.01	20933
883.136	20754
883.262	20648
883.388	20701
883.514	20883
883.64	20853
883.766	20796
883.892	20579
884.018	20667
884.143	20735
884.269	20864
884.395	20533
884.52	20343
884.646	20594
884.772	20480
884.897	20469
885.023	20457
885.148	20575
885.274	20579
885.399	20560
885.524	20476
885.65	20396
885.775	20686
885.9	20404
886.025	20571
886.15	20640
886.275	20579
886.4	20229
886.525	20412
886.65	20427
886.775	20377
886.9	20549
887.025	20705
887.149	20275
887.274	20324
887.399	20290
887.523	20278
887.648	20149
887.773	20199
887.897	20267
888.021	20294
888.146	20229
888.27	20324
888.395	20492
888.519	20237
888.643	20259
888.767	20275
888.891	20187
889.015	20046
889.139	20092
889.263	20027
889.387	20199
889.511	20298
889.635	20176
889.759	19944
889.883	19989
890.006	20176
890.13	20183
890.254	20050
890.377	19928
890.501	19902
890.624	19818
890.748	19818
890.871	19784
890.995	19647
891.118	19537
891.241	19742
891.364	19613
891.488	19670
891.611	19616
891.734	19647
891.857	19628
891.98	19605
892.103	19734
892.226	19563
892.349	19632
892.471	19514
892.594	19491
892.717	19586
892.839	19655
892.962	19643
893.085	19647
893.207	19533
893.33	19419
893.452	19624
893.575	19586
893.697	19586
893.819	19765
893.941	19761
894.064	19689
894.186	19495
894.308	19460
894.43	19727
894.552	19685
894.674	19586
894.796	19575
894.918	19556
895.04	19468
895.161	19689
895.283	19628
895.405	19487
895.526	19594
895.648	19457
895.769	19434
895.891	19601
896.012	19677
896.134	19685
896.255	19533
896.376	19426
896.498	19506
896.619	19651
896.74	19540
896.861	19635
896.982	19860
897.103	20069
897.224	19814
897.345	19738
897.466	19708
897.587	19708
897.708	19902
897.828	19693
897.949	19833
898.07	19658
898.19	19841
898.311	19868
898.431	19719
898.552	19712
898.672	19906
898.792	19902
898.913	19734
899.033	19655
899.153	19662
899.273	19544
899.393	19700
899.513	19548
899.633	19658
899.753	19529
899.873	19582
899.993	19445
900.113	19643
900.232	19590
900.352	19426
900.472	19388
900.591	19251
900.711	19297
900.83	19259
900.95	19487
901.069	19468
901.189	19297
901.308	19015
901.427	18928
901.546	18939
901.665	18989
901.784	18951
901.904	18760
902.023	18654
902.141	18540
902.26	18498
902.379	18582
902.498	18525
902.617	18372
902.735	18418
902.854	18418
902.973	18330
903.091	18106
903.21	18125
903.328	17969
903.446	18079
903.565	17999
903.683	17946
903.801	17802
903.919	17836
904.038	17920
904.156	17653
904.274	17798
904.392	17718
904.51	17775
904.627	17695
904.745	17817
904.863	17764
904.981	17554
905.098	17421
905.216	17395
905.334	17398
905.451	17478
905.569	17395
905.686	17486
905.803	17368
905.921	17242
906.038	17208
906.155	17143
906.272	17014
906.389	17067
906.506	16915
906.623	16953
906.74	16896
906.857	16748
906.974	16858
907.091	16984
907.208	17064
907.324	16949
907.441	16816
907.557	16618
907.674	16660
907.79	16599
907.907	16641
908.023	16702
908.139	16649
908.256	16664
908.372	16500
908.488	16634
908.604	16409
908.72	16333
908.836	16318
908.952	16398
909.068	16424
909.184	16337
909.3	16352
909.415	16489
909.531	16333
909.647	16169
909.762	16116
909.878	16040
909.993	16162
910.108	16040
910.224	16135
910.339	16139
910.454	15926
910.57	15884
910.685	15759
910.8	16071
910.915	15979
911.03	15899
911.145	15709
911.259	15717
911.374	15701
911.489	15686
911.604	15595
911.718	15416
911.833	15447
911.947	15348
912.062	15351
912.176	15545
912.291	15408
912.405	15530
912.519	15705
912.633	15663
912.748	15523
912.862	15507
912.976	15310
913.09	15173
913.204	15188
913.318	15317
913.431	15408
913.545	15416
913.659	15332
913.772	15245
913.886	15013
914	15104
914.113	15180
914.226	15180
914.34	15097
914.453	14960
914.566	15119
914.68	14960
914.793	14986
914.906	14765
915.019	14625
915.132	14583
915.245	14602
915.358	14625
915.47	14678
915.583	14610
915.696	14670
915.809	14750
915.921	14758
916.034	14678
916.146	14617
916.259	14670
916.371	14720
916.483	14571
916.595	14590
916.708	14446
916.82	14415
916.932	14511
917.044	14514
917.156	14484
917.268	14385
917.38	14298
917.491	14271
917.603	14290
917.715	14415
917.826	14484
917.938	14259
918.049	14191
918.161	14191
918.272	14450
918.384	14427
918.495	14237
918.606	14225
918.717	14088
918.828	14130
918.939	14157
919.05	14020
919.161	14107
919.272	13898
919.383	13978
919.494	14123
919.604	14336
919.715	14134
919.826	13978
919.936	14138
920.047	14130
920.157	14195
920.267	14191
920.378	14100
920.488	14031
920.598	14256
920.708	14389
920.818	14134
920.928	14157
921.038	14400
921.148	14328
921.258	14081
921.368	13925
921.477	13849
921.587	13837
921.697	13616
921.806	13841
921.916	13696
922.025	13491
922.134	13438
922.244	13407
922.353	13613
922.462	13308
922.571	13312
922.68	13156
922.789	13095
922.898	13118
923.007	13000
923.116	13141
923.224	13095
923.333	13091
923.442	12996
923.55	12954
923.659	13004
923.767	13057
923.876	12954
923.984	12897
924.092	12757
924.201	12863
924.309	12924
924.417	12871
924.525	12863
924.633	12787
924.741	13556
924.849	12627
924.956	12722
925.064	12506
925.172	12498
925.279	12509
925.387	12608
925.494	12540
925.602	12631
925.709	12677
925.816	12509
925.924	12490
926.031	12551
926.138	12570
926.245	12563
926.352	12346
926.459	12673
926.566	12589
926.673	12445
926.779	12357
926.886	12224
926.993	12194
927.099	12205
927.206	12186
927.312	12083
927.419	12197
927.525	12167
927.631	12243
927.737	12091
927.843	12030
927.95	11885
928.056	11961
928.162	11954
928.267	11980
928.373	12574
928.479	12045
928.585	11866
928.69	11832
928.796	11946
928.901	11840
929.007	11764
929.112	11847
929.218	11843
929.323	11726
929.428	11665
929.533	11836
929.638	11596
929.743	11646
929.848	11737
929.953	11676
930.058	11516
930.163	11398
930.267	11414
930.372	11554
930.477	11299
930.581	11630
930.685	11478
930.79	11349
930.894	11299
930.998	11265
931.103	11368
931.207	11052
931.311	10949
931.415	10831
931.519	10656
931.623	10683
