Data from test_V78500241_288.txt Node
Date: Fri Mar 25 15:11:51 CST 2022
User: usil
Spectrometer: V785-0024
Trigger mode: 0
Integration Time (sec): 4.000000E-1
Scans to average: 1
Nonlinearity correction enabled: false
Boxcar width: 0
Storing dark spectrum: false
XAxis mode: Wavelengths
Number of Pixels in Spectrum: 1024
>>>>>Begin Spectral Data<<<<<
801.071	27816
801.214	27842
801.356	27648
801.499	27568
801.641	27420
801.783	27233
801.926	27458
802.068	27321
802.211	27351
802.353	27169
802.496	27154
802.638	27058
802.78	26952
802.923	26925
803.065	26925
803.208	26921
803.35	26925
803.492	27055
803.635	27192
803.777	27001
803.919	27104
804.061	27500
804.204	27203
804.346	27028
804.488	27036
804.63	27089
804.773	26883
804.915	27047
805.057	27176
805.199	27100
805.341	27237
805.483	27176
805.626	27199
805.768	27009
805.91	27195
806.052	27157
806.194	27138
806.336	27351
806.478	27294
806.62	27169
806.762	27378
806.904	27435
807.046	27682
807.188	27485
807.33	27496
807.472	27637
807.614	27595
807.756	27466
807.898	27325
808.04	27298
808.182	27264
808.324	27427
808.465	27507
808.607	27515
808.749	27762
808.891	27846
809.033	27873
809.174	27835
809.316	27800
809.458	27819
809.6	27717
809.741	27781
809.883	27907
810.025	27953
810.166	28002
810.308	28116
810.45	28002
810.591	27991
810.733	27918
810.875	27728
811.016	27530
811.158	27633
811.299	27652
811.441	27778
811.582	27739
811.724	27736
811.865	27595
812.007	27819
812.148	27739
812.29	27713
812.431	27789
812.573	28055
812.714	28101
812.855	28242
812.997	28504
813.138	28459
813.279	28447
813.421	28371
813.562	28265
813.703	27968
813.845	28055
813.986	27614
814.127	27500
814.268	27370
814.41	27485
814.551	27405
814.692	27412
814.833	27325
814.974	27313
815.115	27340
815.256	27218
815.397	27214
815.539	27325
815.68	27005
815.821	27226
815.962	27169
816.103	27017
816.244	26986
816.385	26944
816.526	26937
816.666	26727
816.807	26499
816.948	26655
817.089	26693
817.23	26686
817.371	26617
817.512	26625
817.653	26613
817.793	26598
817.934	26609
818.075	26644
818.216	26689
818.356	26533
818.497	26431
818.638	26233
818.778	26457
818.919	26240
819.06	26351
819.2	26495
819.341	26598
819.481	26545
819.622	26724
819.762	26937
819.903	26929
820.043	26815
820.184	26705
820.324	26640
820.465	26746
820.605	26617
820.746	26663
820.886	26552
821.026	26762
821.167	26636
821.307	26754
821.447	26587
821.588	26370
821.728	26427
821.868	26176
822.008	25925
822.149	26062
822.289	25856
822.429	25868
822.569	25601
822.709	25609
822.849	25578
822.99	25510
823.13	25506
823.27	25521
823.41	25251
823.55	25190
823.69	25282
823.83	25285
823.97	25255
824.11	24928
824.25	25008
824.389	25103
824.529	25175
824.669	25042
824.809	25209
824.949	25232
825.089	25168
825.228	25126
825.368	25015
825.508	25042
825.648	24970
825.787	25038
825.927	25038
826.067	24924
826.206	24951
826.346	24973
826.485	25050
826.625	24928
826.765	25027
826.904	24977
827.044	24753
827.183	24798
827.323	24661
827.462	24627
827.601	24612
827.741	24692
827.88	24646
828.02	24574
828.159	24547
828.298	24650
828.437	24798
828.577	24525
828.716	24612
828.855	24494
828.994	24498
829.134	24327
829.273	24437
829.412	24357
829.551	24308
829.69	24327
829.829	24281
829.968	24388
830.107	24460
830.246	24460
830.385	24304
830.524	24243
830.663	24186
830.802	24072
830.941	23878
831.08	24011
831.219	23939
831.357	23973
831.496	24239
831.635	23851
831.774	23904
831.913	23756
832.051	23821
832.19	23786
832.329	23771
832.467	23623
832.606	23642
832.744	23570
832.883	23646
833.022	23687
833.16	23554
833.299	23817
833.437	23699
833.576	23524
833.714	23661
833.852	23798
833.991	23646
834.129	23680
834.267	23661
834.406	23619
834.544	23623
834.682	23665
834.821	23585
834.959	23699
835.097	23589
835.235	23646
835.373	23657
835.511	23558
835.65	23551
835.788	23463
835.926	23299
836.064	23452
836.202	23273
836.34	23547
836.478	23729
836.615	23471
836.753	23558
836.891	23649
837.029	23528
837.167	23383
837.305	23387
837.443	23356
837.58	23372
837.718	23505
837.856	23482
837.993	23235
838.131	23341
838.269	23064
838.406	23216
838.544	23227
838.681	22957
838.819	22930
838.956	22816
839.094	22683
839.231	23014
839.369	22923
839.506	23254
839.643	23113
839.781	22771
839.918	22729
840.055	22721
840.193	22797
840.33	22736
840.467	22752
840.604	22698
840.742	22980
840.879	22618
841.016	22698
841.153	22592
841.29	22885
841.427	22755
841.564	22691
841.701	22687
841.838	22831
841.975	22489
842.112	22569
842.249	22618
842.385	22371
842.522	22451
842.659	22451
842.796	22390
842.933	22337
843.069	22341
843.206	22314
843.343	22325
843.479	22341
843.616	22413
843.752	22124
843.889	22207
844.025	22318
844.162	22101
844.298	22371
844.435	22200
844.571	22265
844.708	22173
844.844	22367
844.98	22185
845.117	22382
845.253	22261
845.389	22074
845.525	22078
845.661	22090
845.798	21827
845.934	21812
846.07	21895
846.206	22025
846.342	22116
846.478	21991
846.614	21732
846.75	21641
846.886	21534
847.022	21671
847.158	21705
847.294	21622
847.429	21785
847.565	21576
847.701	21873
847.837	21431
847.972	21329
848.108	21477
848.244	21481
848.379	21188
848.515	21272
848.65	21192
848.786	21214
848.921	21199
849.057	21344
849.192	21321
849.328	21173
849.463	21279
849.598	21180
849.734	21150
849.869	21005
850.004	21032
850.14	21085
850.275	21047
850.41	21009
850.545	20921
850.68	21005
850.815	21009
850.95	20975
851.085	21142
851.22	21093
851.355	21138
851.49	20994
851.625	20971
851.76	20883
851.895	20971
852.03	21005
852.165	20956
852.299	20948
852.434	21058
852.569	20921
852.703	21066
852.838	20982
852.973	21066
853.107	21127
853.242	20937
853.376	20887
853.511	20777
853.645	20842
853.78	20891
853.914	20861
854.048	20773
854.183	20785
854.317	20800
854.451	21001
854.585	20811
854.72	20785
854.854	20800
854.988	20590
855.122	20796
855.256	20602
855.39	20842
855.524	20902
855.658	20769
855.792	20750
855.926	20838
856.06	20807
856.194	20823
856.327	20880
856.461	20617
856.595	20727
856.729	20629
856.862	20842
856.996	20834
857.13	20910
857.263	20918
857.397	20857
857.53	20727
857.664	20823
857.797	20880
857.931	20853
858.064	20800
858.197	20883
858.331	20754
858.464	20769
858.597	20693
858.731	20682
858.864	20701
858.997	20705
859.13	20792
859.263	20701
859.396	20830
859.529	20849
859.662	20743
859.795	20708
859.928	20773
860.061	20887
860.194	20982
860.327	20876
860.46	20670
860.592	20990
860.725	20815
860.858	20887
860.99	20701
861.123	20617
861.256	20689
861.388	20708
861.521	21367
861.653	20583
861.786	20720
861.918	20682
862.05	20697
862.183	20720
862.315	20731
862.447	20811
862.58	20792
862.712	20545
862.844	20503
862.976	20667
863.108	20583
863.24	20880
863.372	20480
863.504	20480
863.636	20613
863.768	20579
863.9	20419
864.032	20408
864.164	20415
864.296	20450
864.428	20571
864.559	20549
864.691	20545
864.823	20480
864.954	20370
865.086	20419
865.217	20469
865.349	20381
865.48	20275
865.612	20404
865.743	20629
865.875	20423
866.006	20267
866.137	20381
866.269	20301
866.4	20381
866.531	20275
866.662	20278
866.793	20320
866.924	20385
867.055	20286
867.186	20427
867.317	20210
867.448	20157
867.579	20256
867.71	20199
867.841	20225
867.972	20313
868.103	20339
868.233	20362
868.364	20294
868.495	20511
868.625	20450
868.756	20598
868.886	20412
869.017	20613
869.147	20549
869.278	20632
869.408	20579
869.539	20526
869.669	20590
869.799	20571
869.929	20617
870.06	20746
870.19	20872
870.32	20906
870.45	20815
870.58	21074
870.71	21013
870.84	21039
870.97	20948
871.1	20952
871.23	21020
871.36	21062
871.489	20948
871.619	21074
871.749	21074
871.879	21150
872.008	21192
872.138	21074
872.267	21138
872.397	21055
872.526	20807
872.656	20956
872.785	20998
872.915	21195
873.044	21180
873.173	21165
873.303	21214
873.432	21287
873.561	21199
873.69	21127
873.819	21272
873.948	21275
874.077	21116
874.206	21192
874.335	21207
874.464	21298
874.593	21477
874.722	21378
874.851	21458
874.979	21374
875.108	21431
875.237	21351
875.365	21260
875.494	21416
875.623	21526
875.751	21294
875.88	21363
876.008	21473
876.136	21644
876.265	21732
876.393	21842
876.521	21762
876.65	21903
876.778	21770
876.906	21781
877.034	21648
877.162	21880
877.29	21690
877.418	21675
877.546	21739
877.674	21709
877.802	21865
877.93	21774
878.058	21842
878.185	21583
878.313	21606
878.441	21694
878.568	21686
878.696	21720
878.824	21816
878.951	21846
879.079	21888
879.206	21983
879.333	21888
879.461	21804
879.588	21930
879.715	21880
879.842	21945
879.97	21766
880.097	21576
880.224	21553
880.351	21530
880.478	21568
880.605	21568
880.732	21583
880.859	21838
880.986	21583
881.112	21557
881.239	21454
881.366	21302
881.493	21211
881.619	21119
881.746	21226
881.872	21222
881.999	21047
882.125	21036
882.252	21119
882.378	21173
882.505	21264
882.631	20967
882.757	20918
882.883	21077
883.01	20724
883.136	20929
883.262	20769
883.388	20606
883.514	20933
883.64	20914
883.766	20826
883.892	20678
884.018	20625
884.143	20887
884.269	20899
884.395	20621
884.52	20503
884.646	20549
884.772	20374
884.897	20415
885.023	20446
885.148	20571
885.274	20636
885.399	20594
885.524	20530
885.65	20564
885.775	20533
885.9	20461
886.025	20659
886.15	20549
886.275	20427
886.4	20351
886.525	20446
886.65	20434
886.775	20492
886.9	20564
887.025	20754
887.149	20587
887.274	20298
887.399	20210
887.523	20336
887.648	20305
887.773	20191
887.897	20328
888.021	20343
888.146	20130
888.27	20454
888.395	20290
888.519	20320
888.643	20377
888.767	20343
888.891	20271
889.015	20092
889.139	20176
889.263	20027
889.387	20218
889.511	20233
889.635	20237
889.759	20050
889.883	20012
890.006	20103
890.13	20172
890.254	19967
890.377	19879
890.501	19818
890.624	19757
890.748	19921
890.871	19632
890.995	19620
891.118	19552
891.241	19628
891.364	19689
891.488	19791
891.611	19715
891.734	19666
891.857	19734
891.98	19670
892.103	19689
892.226	19746
892.349	19597
892.471	19487
892.594	19632
892.717	19609
892.839	19559
892.962	19635
893.085	19696
893.207	19677
893.33	19552
893.452	19525
893.575	19651
893.697	19544
893.819	19689
893.941	19677
894.064	19696
894.186	19594
894.308	19483
894.43	19651
894.552	19746
894.674	19666
894.796	19525
894.918	19559
895.04	19575
895.161	19502
895.283	19651
895.405	19537
895.526	19571
895.648	19533
895.769	19575
895.891	19571
896.012	19723
896.134	19647
896.255	19548
896.376	19609
896.498	19597
896.619	19632
896.74	19616
896.861	19655
896.982	19963
897.103	20020
897.224	19814
897.345	19788
897.466	19765
897.587	19940
897.708	20069
897.828	19826
897.949	19685
898.07	19571
898.19	19734
898.311	19940
898.431	19746
898.552	19852
898.672	19986
898.792	19830
898.913	19906
899.033	19632
899.153	19643
899.273	19582
899.393	19487
899.513	19533
899.633	19460
899.753	19445
899.873	19506
899.993	19510
900.113	19506
900.232	19559
900.352	19468
900.472	19373
900.591	19324
900.711	19373
900.83	19358
900.95	19460
901.069	19544
901.189	19198
901.308	19091
901.427	18962
901.546	18909
901.665	18989
901.784	18932
901.904	18863
902.023	18707
902.141	18460
902.26	18456
902.379	18445
902.498	18475
902.617	18319
902.735	18460
902.854	18429
902.973	18422
903.091	18072
903.21	18148
903.328	18121
903.446	18049
903.565	17958
903.683	17885
903.801	17809
903.919	17809
904.038	17821
904.156	17779
904.274	17764
904.392	17638
904.51	17726
904.627	17653
904.745	17756
904.863	17756
904.981	17573
905.098	17436
905.216	17391
905.334	17421
905.451	17372
905.569	17337
905.686	17387
905.803	17303
905.921	17147
906.038	17181
906.155	17220
906.272	17071
906.389	17098
906.506	16953
906.623	16965
906.74	16767
906.857	16771
906.974	16862
907.091	17025
907.208	17014
907.324	16911
907.441	16831
907.557	16687
907.674	16679
907.79	16615
907.907	16599
908.023	16649
908.139	16504
908.256	16417
908.372	16474
908.488	16493
908.604	16291
908.72	16261
908.836	16344
908.952	16314
909.068	16356
909.184	16348
909.3	16310
909.415	16284
909.531	16341
909.647	16109
909.762	15991
909.878	16074
909.993	16082
910.108	15991
910.224	15972
910.339	15964
910.454	15842
910.57	15857
910.685	15743
910.8	16017
910.915	16006
911.03	15857
911.145	15679
911.259	15519
911.374	15618
911.489	15496
911.604	15492
911.718	15329
911.833	15439
911.947	15233
912.062	15214
912.176	15382
912.291	15340
912.405	15245
912.519	15515
912.633	15523
912.748	15359
912.862	15317
912.976	15222
913.09	15039
913.204	15161
913.318	15150
913.431	15317
913.545	15207
913.659	15245
913.772	15131
913.886	15001
914	14899
914.113	15043
914.226	15123
914.34	15135
914.453	14899
914.566	15013
914.68	14899
914.793	14823
914.906	14743
915.019	14629
915.132	14602
915.245	14571
915.358	14667
915.47	14636
915.583	14568
915.696	14552
915.809	14727
915.921	14811
916.034	14571
916.146	14518
916.259	14465
916.371	14602
916.483	14503
916.595	14434
916.708	14431
916.82	14389
916.932	14396
917.044	14434
917.156	14370
917.268	14199
917.38	14256
917.491	14202
917.603	14259
917.715	14427
917.826	14469
917.938	14259
918.049	14153
918.161	14294
918.272	14393
918.384	14339
918.495	14305
918.606	14168
918.717	14126
918.828	14058
918.939	14161
919.05	14001
919.161	13989
919.272	13731
919.383	13791
919.494	14107
919.604	14237
919.715	14062
919.826	14050
919.936	13978
920.047	14088
920.157	14005
920.267	14157
920.378	13967
920.488	13967
920.598	14206
920.708	14366
920.818	14073
920.928	14092
921.038	14298
921.148	14218
921.258	13944
921.368	13921
921.477	13845
921.587	13734
921.697	13628
921.806	13704
921.916	13582
922.025	13495
922.134	13426
922.244	13339
922.353	13407
922.462	13316
922.571	13278
922.68	13019
922.789	12973
922.898	13053
923.007	12958
923.116	13095
923.224	13057
923.333	13008
923.442	12833
923.55	12772
923.659	12981
923.767	12928
923.876	12859
923.984	12924
924.092	12779
924.201	12859
924.309	12791
924.417	12833
924.525	12741
924.633	12684
924.741	13460
924.849	12616
924.956	12692
925.064	12521
925.172	12464
925.279	12441
925.387	12563
925.494	12540
925.602	12623
925.709	12540
925.816	12445
925.924	12460
926.031	12551
926.138	12365
926.245	12494
926.352	12388
926.459	12532
926.566	12540
926.673	12426
926.779	12190
926.886	12353
926.993	12159
927.099	12076
927.206	12003
927.312	11965
927.419	12110
927.525	12095
927.631	12072
927.737	11950
927.843	11893
927.95	11851
928.056	11840
928.162	11931
928.267	11954
928.373	12532
928.479	11954
928.585	11699
928.69	11893
928.796	11878
928.901	11824
929.007	11615
929.112	11672
929.218	11741
929.323	11668
929.428	11627
929.533	11783
929.638	11558
929.743	11638
929.848	11619
929.953	11554
930.058	11444
930.163	11398
930.267	11303
930.372	11406
930.477	11250
930.581	11459
930.685	11337
930.79	11178
930.894	11239
930.998	11155
931.103	11246
931.207	10946
931.311	10980
931.415	10767
931.519	10679
931.623	10561
