Data from test_V78500241_216.txt Node
Date: Fri Mar 25 15:11:21 CST 2022
User: usil
Spectrometer: V785-0024
Trigger mode: 0
Integration Time (sec): 4.000000E-1
Scans to average: 1
Nonlinearity correction enabled: false
Boxcar width: 0
Storing dark spectrum: false
XAxis mode: Wavelengths
Number of Pixels in Spectrum: 1024
>>>>>Begin Spectral Data<<<<<
801.071	27481
801.214	27519
801.356	27294
801.499	27256
801.641	27184
801.783	27093
801.926	27116
802.068	27096
802.211	27020
802.353	26864
802.496	26754
802.638	26750
802.78	26682
802.923	26625
803.065	26503
803.208	26648
803.35	26549
803.492	26701
803.635	26914
803.777	26743
803.919	26887
804.061	27112
804.204	26944
804.346	26674
804.488	26583
804.63	26682
804.773	26659
804.915	26598
805.057	26716
805.199	26769
805.341	26705
805.483	26739
805.626	26785
805.768	26769
805.91	26826
806.052	26845
806.194	26769
806.336	27028
806.478	26929
806.62	26823
806.762	26921
806.904	27077
807.046	27287
807.188	27249
807.33	27055
807.472	27195
807.614	27089
807.756	27001
807.898	27020
808.04	27161
808.182	26830
808.324	26899
808.465	27013
808.607	27157
808.749	27382
808.891	27454
809.033	27504
809.174	27538
809.316	27256
809.458	27397
809.6	27389
809.741	27553
809.883	27431
810.025	27679
810.166	27720
810.308	27526
810.45	27534
810.591	27526
810.733	27363
810.875	27184
811.016	27146
811.158	27192
811.299	27447
811.441	27473
811.582	27466
811.724	27165
811.865	27355
812.007	27226
812.148	27317
812.29	27207
812.431	27462
812.573	27637
812.714	27667
812.855	27945
812.997	27846
813.138	28063
813.279	27865
813.421	27888
813.562	27766
813.703	27488
813.845	27526
813.986	27138
814.127	27085
814.268	27028
814.41	27028
814.551	26910
814.692	27043
814.833	26937
814.974	26910
815.115	26876
815.256	26746
815.397	26796
815.539	26857
815.68	26754
815.821	26636
815.962	26686
816.103	26552
816.244	26568
816.385	26476
816.526	26537
816.666	26294
816.807	26046
816.948	26355
817.089	26256
817.23	26275
817.371	26282
817.512	26122
817.653	26195
817.793	26145
817.934	26142
818.075	26225
818.216	26187
818.356	26176
818.497	26046
818.638	25780
818.778	25715
818.919	25860
819.06	25947
819.2	25814
819.341	26031
819.481	25955
819.622	26126
819.762	26476
819.903	26290
820.043	26199
820.184	26237
820.324	26062
820.465	26187
820.605	26244
820.746	26149
820.886	25982
821.026	26115
821.167	26012
821.307	26153
821.447	26050
821.588	25932
821.728	25841
821.868	25685
822.008	25529
822.149	25491
822.289	25464
822.429	25168
822.569	25061
822.709	25209
822.849	25053
822.99	25027
823.13	24973
823.27	24966
823.41	24749
823.55	24829
823.69	24749
823.83	24772
823.97	24738
824.11	24517
824.25	24585
824.389	24559
824.529	24711
824.669	24627
824.809	24749
824.949	24547
825.089	24665
825.228	24525
825.368	24517
825.508	24300
825.648	24525
825.787	24426
825.927	24372
826.067	24429
826.206	24410
826.346	24395
826.485	24441
826.625	24395
826.765	24528
826.904	24475
827.044	24114
827.183	24163
827.323	24060
827.462	24064
827.601	24098
827.741	24209
827.88	24072
828.02	23870
828.159	24068
828.298	24106
828.437	24064
828.577	23988
828.716	24243
828.855	24079
828.994	23889
829.134	23756
829.273	23798
829.412	23657
829.551	23703
829.69	23741
829.829	23767
829.968	23923
830.107	23878
830.246	23760
830.385	23741
830.524	23653
830.663	23467
830.802	23410
830.941	23376
831.08	23273
831.219	23402
831.357	23383
831.496	23547
831.635	23364
831.774	23258
831.913	23261
832.051	23105
832.19	23155
832.329	23174
832.467	23010
832.606	22976
832.744	22965
832.883	23014
833.022	23071
833.16	22957
833.299	23128
833.437	22995
833.576	23044
833.714	23284
833.852	23094
833.991	23086
834.129	23181
834.267	23185
834.406	23071
834.544	23204
834.682	23079
834.821	23037
834.959	23204
835.097	22972
835.235	22976
835.373	23003
835.511	23075
835.65	23018
835.788	22904
835.926	22729
836.064	22767
836.202	22771
836.34	22835
836.478	22934
836.615	22801
836.753	22919
836.891	22957
837.029	22946
837.167	22793
837.305	22847
837.443	22778
837.58	22672
837.718	22664
837.856	22679
837.993	22641
838.131	22752
838.269	22694
838.406	22694
838.544	22489
838.681	22386
838.819	22303
838.956	22196
839.094	22185
839.231	22219
839.369	22295
839.506	22481
839.643	22299
839.781	22147
839.918	22131
840.055	22131
840.193	22116
840.33	22070
840.467	22093
840.604	22192
840.742	22341
840.879	21823
841.016	22002
841.153	21880
841.29	22261
841.427	22025
841.564	22204
841.701	22048
841.838	22010
841.975	21998
842.112	21903
842.249	21918
842.385	21850
842.522	21975
842.659	21850
842.796	21907
842.933	21755
843.069	21743
843.206	21736
843.343	21873
843.479	21835
843.616	21785
843.752	21625
843.889	21667
844.025	21736
844.162	21595
844.298	21686
844.435	21644
844.571	21644
844.708	21572
844.844	21743
844.98	21686
845.117	21599
845.253	21507
845.389	21462
845.525	21526
845.661	21405
845.798	21348
845.934	21351
846.07	21211
846.206	21195
846.342	21420
846.478	21279
846.614	21055
846.75	21036
846.886	21051
847.022	21039
847.158	21089
847.294	21104
847.429	21055
847.565	21013
847.701	21279
847.837	20743
847.972	20663
848.108	20853
848.244	20754
848.379	20731
848.515	20533
848.65	20701
848.786	20693
848.921	20530
849.057	20739
849.192	20648
849.328	20632
849.463	20621
849.598	20667
849.734	20415
849.869	20431
850.004	20282
850.14	20427
850.275	20480
850.41	20275
850.545	20347
850.68	20282
850.815	20431
850.95	20393
851.085	20571
851.22	20465
851.355	20370
851.49	20412
851.625	20450
851.76	20282
851.895	20301
852.03	20320
852.165	20385
852.299	20419
852.434	20465
852.569	20320
852.703	20309
852.838	20473
852.973	20503
853.107	20454
853.242	20339
853.376	20183
853.511	20008
853.645	20229
853.78	20195
853.914	20126
854.048	20183
854.183	20164
854.317	20145
854.451	20301
854.585	20134
854.72	20145
854.854	20275
854.988	20016
855.122	20157
855.256	20149
855.39	20081
855.524	20225
855.658	20244
855.792	20240
855.926	20134
856.06	20275
856.194	20256
856.327	20153
856.461	20107
856.595	20134
856.729	20142
856.862	20286
856.996	20256
857.13	20191
857.263	20263
857.397	20248
857.53	20107
857.664	20195
857.797	20229
857.931	20271
858.064	20142
858.197	20328
858.331	20103
858.464	20012
858.597	20039
858.731	20119
858.864	20157
858.997	20073
859.13	20035
859.263	20115
859.396	20244
859.529	20187
859.662	20149
859.795	20039
859.928	20027
860.061	20233
860.194	20282
860.327	20008
860.46	20065
860.592	20286
860.725	20256
860.858	20324
860.99	20081
861.123	20027
861.256	20027
861.388	20153
861.521	20727
861.653	20016
861.786	19913
861.918	20001
862.05	20103
862.183	20149
862.315	20233
862.447	20237
862.58	19997
862.712	19890
862.844	19753
862.976	19959
863.108	19890
863.24	20328
863.372	19818
863.504	19833
863.636	19746
863.768	20024
863.9	19837
864.032	19814
864.164	19765
864.296	19951
864.428	19970
864.559	19909
864.691	19845
864.823	19856
864.954	19685
865.086	19776
865.217	19753
865.349	19689
865.48	19715
865.612	19860
865.743	19856
865.875	19753
866.006	19658
866.137	19689
866.269	19677
866.4	19715
866.531	19651
866.662	19658
866.793	19689
866.924	19731
867.055	19750
867.186	19628
867.317	19712
867.448	19575
867.579	19597
867.71	19548
867.841	19689
867.972	19753
868.103	19681
868.233	19658
868.364	19689
868.495	19769
868.625	19871
868.756	20054
868.886	19822
869.017	19944
869.147	19993
869.278	20073
869.408	19967
869.539	19799
869.669	19917
869.799	20073
869.929	20142
870.06	20035
870.19	20233
870.32	20176
870.45	20195
870.58	20290
870.71	20415
870.84	20503
870.97	20278
871.1	20298
871.23	20469
871.36	20404
871.489	20457
871.619	20423
871.749	20514
871.879	20522
872.008	20648
872.138	20431
872.267	20434
872.397	20347
872.526	20328
872.656	20309
872.785	20381
872.915	20568
873.044	20655
873.173	20560
873.303	20648
873.432	20579
873.561	20545
873.69	20446
873.819	20606
873.948	20648
874.077	20594
874.206	20408
874.335	20530
874.464	20682
874.593	20792
874.722	20655
874.851	20830
874.979	20826
875.108	20861
875.237	20807
875.365	20659
875.494	20762
875.623	20895
875.751	20640
875.88	20830
876.008	20952
876.136	21036
876.265	21211
876.393	21237
876.521	21317
876.65	21291
876.778	21237
876.906	21104
877.034	21020
877.162	21123
877.29	21036
877.418	21165
877.546	21116
877.674	21096
877.802	21176
877.93	21165
878.058	21085
878.185	21112
878.313	21047
878.441	21135
878.568	20948
878.696	21165
878.824	21127
878.951	21195
879.079	21386
879.206	21405
879.333	21306
879.461	21256
879.588	21351
879.715	21359
879.842	21477
879.97	21211
880.097	21058
880.224	20948
880.351	21093
880.478	21013
880.605	20918
880.732	20933
880.859	21203
880.986	20994
881.112	21024
881.239	20739
881.366	20716
881.493	20613
881.619	20621
881.746	20522
881.872	20575
881.999	20571
882.125	20636
882.252	20575
882.378	20579
882.505	20796
882.631	20343
882.757	20259
882.883	20370
883.01	20362
883.136	20263
883.262	20183
883.388	20145
883.514	20286
883.64	20431
883.766	20168
883.892	20058
884.018	20027
884.143	20271
884.269	20408
884.395	20069
884.52	19959
884.646	19940
884.772	19890
884.897	19818
885.023	19974
885.148	19887
885.274	19993
885.399	20050
885.524	20046
885.65	19868
885.775	20031
885.9	19788
886.025	20149
886.15	20008
886.275	19887
886.4	19963
886.525	20039
886.65	19936
886.775	19776
886.9	20176
887.025	20187
887.149	19932
887.274	19795
887.399	19723
887.523	19769
887.648	19620
887.773	19647
887.897	19811
888.021	19746
888.146	19727
888.27	19803
888.395	19670
888.519	19746
888.643	19670
888.767	19719
888.891	19643
889.015	19556
889.139	19514
889.263	19457
889.387	19677
889.511	19727
889.635	19521
889.759	19411
889.883	19381
890.006	19441
890.13	19681
890.254	19392
890.377	19510
890.501	19320
890.624	19324
890.748	19301
890.871	19183
890.995	19080
891.118	18958
891.241	19110
891.364	19080
891.488	19293
891.611	19183
891.734	19160
891.857	19164
891.98	19057
892.103	19148
892.226	19038
892.349	18985
892.471	18970
892.594	19088
892.717	19042
892.839	18996
892.962	19076
893.085	19004
893.207	19065
893.33	19012
893.452	18901
893.575	19027
893.697	19099
893.819	19232
893.941	19236
894.064	19179
894.186	18951
894.308	18947
894.43	19110
894.552	19145
894.674	19194
894.796	18920
894.918	18951
895.04	19027
895.161	19027
895.283	19015
895.405	18954
895.526	19148
895.648	18989
895.769	19194
895.891	19133
896.012	19069
896.134	18996
896.255	19072
896.376	19027
896.498	19076
896.619	19190
896.74	19042
896.861	19187
896.982	19487
897.103	19571
897.224	19392
897.345	19331
897.466	19320
897.587	19244
897.708	19358
897.828	19358
897.949	19282
898.07	19099
898.19	19206
898.311	19312
898.431	19297
898.552	19289
898.672	19373
898.792	19434
898.913	19308
899.033	19247
899.153	19152
899.273	18935
899.393	19057
899.513	19019
899.633	19168
899.753	19080
899.873	18947
899.993	19057
900.113	18913
900.232	18989
900.352	18916
900.472	18817
900.591	18791
900.711	18760
900.83	18833
900.95	18875
901.069	18871
901.189	18817
901.308	18608
901.427	18429
901.546	18532
901.665	18566
901.784	18441
901.904	18232
902.023	18220
902.141	18095
902.26	17969
902.379	18053
902.498	17889
902.617	17923
902.735	17931
902.854	17828
902.973	17901
903.091	17627
903.21	17634
903.328	17490
903.446	17528
903.565	17505
903.683	17330
903.801	17334
903.919	17364
904.038	17395
904.156	17174
904.274	17288
904.392	17132
904.51	17231
904.627	17353
904.745	17200
904.863	17258
904.981	17048
905.098	16869
905.216	16911
905.334	16847
905.451	16942
905.569	16927
905.686	16923
905.803	16858
905.921	16634
906.038	16729
906.155	16774
906.272	16493
906.389	16546
906.506	16402
906.623	16440
906.74	16409
906.857	16337
906.974	16363
907.091	16554
907.208	16493
907.324	16466
907.441	16303
907.557	16074
907.674	16135
907.79	16021
907.907	16139
908.023	16181
908.139	16154
908.256	16044
908.372	15930
908.488	15987
908.604	15907
908.72	15747
908.836	15884
908.952	15827
909.068	15880
909.184	15949
909.3	15838
909.415	15835
909.531	15816
909.647	15603
909.762	15663
909.878	15523
909.993	15561
910.108	15572
910.224	15481
910.339	15519
910.454	15507
910.57	15416
910.685	15310
910.8	15443
910.915	15568
911.03	15359
911.145	15184
911.259	15157
911.374	15184
911.489	15180
911.604	15009
911.718	14895
911.833	14982
911.947	14743
912.062	14701
912.176	14921
912.291	14868
912.405	14872
912.519	15127
912.633	14925
912.748	14876
912.862	14807
912.976	14731
913.09	14602
913.204	14720
913.318	14682
913.431	14796
913.545	14758
913.659	14872
913.772	14640
913.886	14537
914	14552
914.113	14632
914.226	14750
914.34	14636
914.453	14404
914.566	14442
914.68	14461
914.793	14454
914.906	14240
915.019	14271
915.132	14126
915.245	14138
915.358	14134
915.47	14157
915.583	14157
915.696	14126
915.809	14294
915.921	14343
916.034	14126
916.146	14077
916.259	14073
916.371	14069
916.483	14153
916.595	14031
916.708	14008
916.82	14065
916.932	14035
917.044	13940
917.156	13913
917.268	13856
917.38	13849
917.491	13814
917.603	13849
917.715	14001
917.826	13909
917.938	13795
918.049	13655
918.161	13814
918.272	13951
918.384	13974
918.495	13845
918.606	13677
918.717	13651
918.828	13731
918.939	13693
919.05	13571
919.161	13472
919.272	13434
919.383	13510
919.494	13609
919.604	13860
919.715	13677
919.826	13601
919.936	13521
920.047	13674
920.157	13624
920.267	13776
920.378	13643
920.488	13552
920.598	13681
920.708	13822
920.818	13803
920.928	13731
921.038	13978
921.148	13864
921.258	13624
921.368	13468
921.477	13343
921.587	13331
921.697	13221
921.806	13422
921.916	13232
922.025	13069
922.134	12996
922.244	12981
922.353	13091
922.462	12928
922.571	12829
922.68	12627
922.789	12604
922.898	12684
923.007	12551
923.116	12578
923.224	12665
923.333	12627
923.442	12601
923.55	12551
923.659	12513
923.767	12566
923.876	12384
923.984	12502
924.092	12304
924.201	12506
924.309	12490
924.417	12509
924.525	12338
924.633	12410
924.741	13088
924.849	12140
924.956	12277
925.064	12095
925.172	12163
925.279	12182
925.387	12098
925.494	12136
925.602	12175
925.709	12228
925.816	12060
925.924	12159
926.031	12125
926.138	12125
926.245	12148
926.352	11999
926.459	12148
926.566	12125
926.673	12034
926.779	11897
926.886	11893
926.993	11668
927.099	11672
927.206	11665
927.312	11722
927.419	11733
927.525	11741
927.631	11764
927.737	11570
927.843	11646
927.95	11570
928.056	11528
928.162	11493
928.267	11676
928.373	12270
928.479	11532
928.585	11349
928.69	11539
928.796	11653
928.901	11433
929.007	11239
929.112	11391
929.218	11364
929.323	11334
929.428	11280
929.533	11360
929.638	11261
929.743	11364
929.848	11315
929.953	11239
930.058	11121
930.163	10965
930.267	10984
930.372	11147
930.477	10961
930.581	11197
930.685	11045
930.79	10843
930.894	10911
930.998	10843
931.103	11006
931.207	10641
931.311	10630
931.415	10485
931.519	10306
931.623	10249
