Data from test_V78500241_2190.txt Node
Date: Fri Mar 25 15:25:06 CST 2022
User: usil
Spectrometer: V785-0024
Trigger mode: 0
Integration Time (sec): 4.000000E-1
Scans to average: 1
Nonlinearity correction enabled: false
Boxcar width: 0
Storing dark spectrum: false
XAxis mode: Wavelengths
Number of Pixels in Spectrum: 1024
>>>>>Begin Spectral Data<<<<<
801.071	27774
801.214	27648
801.356	27534
801.499	27477
801.641	27382
801.783	27264
801.926	27329
802.068	27302
802.211	27260
802.353	27161
802.496	27119
802.638	26944
802.78	26872
802.923	26823
803.065	26575
803.208	26773
803.35	26933
803.492	27062
803.635	27096
803.777	27089
803.919	27047
804.061	27367
804.204	27370
804.346	27093
804.488	26906
804.63	27116
804.773	27154
804.915	27093
805.057	27268
805.199	27032
805.341	27260
805.483	27298
805.626	27222
805.768	27062
805.91	27367
806.052	27294
806.194	27150
806.336	27458
806.478	27298
806.62	27176
806.762	27397
806.904	27496
807.046	27713
807.188	27538
807.33	27732
807.472	27671
807.614	27656
807.756	27644
807.898	27599
808.04	27591
808.182	27359
808.324	27538
808.465	27576
808.607	27622
808.749	27873
808.891	28059
809.033	28055
809.174	27960
809.316	27892
809.458	27789
809.6	27953
809.741	27873
809.883	27914
810.025	28143
810.166	28101
810.308	28166
810.45	28070
810.591	28055
810.733	27869
810.875	27953
811.016	27755
811.158	27698
811.299	27854
811.441	28051
811.582	27922
811.724	27899
811.865	27759
812.007	27987
812.148	27781
812.29	27964
812.431	28032
812.573	28063
812.714	28287
812.855	28367
812.997	28432
813.138	28653
813.279	28459
813.421	28424
813.562	28192
813.703	28128
813.845	27956
813.986	27823
814.127	27637
814.268	27443
814.41	27553
814.551	27424
814.692	27599
814.833	27553
814.974	27622
815.115	27538
815.256	27447
815.397	27424
815.539	27424
815.68	27245
815.821	27214
815.962	27416
816.103	27310
816.244	27222
816.385	27108
816.526	27032
816.666	26883
816.807	26925
816.948	26769
817.089	26937
817.23	26891
817.371	26819
817.512	26853
817.653	26796
817.793	26743
817.934	26807
818.075	26845
818.216	26876
818.356	26727
818.497	26731
818.638	26587
818.778	26575
818.919	26522
819.06	26625
819.2	26701
819.341	26746
819.481	26796
819.622	26826
819.762	27237
819.903	27119
820.043	26948
820.184	26906
820.324	26880
820.465	27013
820.605	26979
820.746	26796
820.886	26861
821.026	26872
821.167	26872
821.307	26979
821.447	26906
821.588	26823
821.728	26541
821.868	26431
822.008	26271
822.149	26313
822.289	26180
822.429	25986
822.569	25830
822.709	26046
822.849	25719
822.99	25715
823.13	25833
823.27	25849
823.41	25635
823.55	25472
823.69	25537
823.83	25628
823.97	25544
824.11	25521
824.25	25540
824.389	25407
824.529	25525
824.669	25468
824.809	25464
824.949	25510
825.089	25499
825.228	25510
825.368	25343
825.508	25301
825.648	25381
825.787	25403
825.927	25350
826.067	25388
826.206	25240
826.346	25384
826.485	25293
826.625	25129
826.765	25331
826.904	25274
827.044	25152
827.183	25027
827.323	25076
827.462	25126
827.601	24920
827.741	24996
827.88	25027
828.02	24871
828.159	25000
828.298	25053
828.437	24951
828.577	24973
828.716	24992
828.855	24829
828.994	24741
829.134	24719
829.273	24817
829.412	24635
829.551	24604
829.69	24703
829.829	24661
829.968	24802
830.107	24722
830.246	24741
830.385	24601
830.524	24578
830.663	24521
830.802	24502
830.941	24384
831.08	24327
831.219	24300
831.357	24323
831.496	24498
831.635	24235
831.774	24201
831.913	24121
832.051	24125
832.19	24072
832.329	24102
832.467	23946
832.606	23965
832.744	24015
832.883	23901
833.022	23786
833.16	23973
833.299	24060
833.437	23927
833.576	23988
833.714	24076
833.852	24007
833.991	24022
834.129	24125
834.267	24095
834.406	24064
834.544	23965
834.682	24018
834.821	23958
834.959	24079
835.097	23946
835.235	24018
835.373	24022
835.511	24022
835.65	23973
835.788	23950
835.926	23707
836.064	23752
836.202	23608
836.34	23874
836.478	24022
836.615	23786
836.753	23912
836.891	23794
837.029	23939
837.167	23767
837.305	23786
837.443	23771
837.58	23649
837.718	23836
837.856	23745
837.993	23547
838.131	23657
838.269	23535
838.406	23619
838.544	23589
838.681	23376
838.819	23197
838.956	23185
839.094	23193
839.231	23231
839.369	23345
839.506	23501
839.643	23410
839.781	23311
839.918	23014
840.055	23181
840.193	23067
840.33	22908
840.467	23155
840.604	23083
840.742	23277
840.879	22835
841.016	23014
841.153	23060
841.29	23064
841.427	23105
841.564	23075
841.701	22961
841.838	23003
841.975	23010
842.112	22896
842.249	22755
842.385	22786
842.522	23109
842.659	23018
842.796	22816
842.933	22752
843.069	22702
843.206	22930
843.343	22866
843.479	22831
843.616	22778
843.752	22679
843.889	22607
844.025	22816
844.162	22649
844.298	22611
844.435	22713
844.571	22565
844.708	22607
844.844	22713
844.98	22717
845.117	22702
845.253	22546
845.389	22424
845.525	22489
845.661	22470
845.798	22478
845.934	22291
846.07	22249
846.206	22421
846.342	22470
846.478	22253
846.614	22154
846.75	22063
846.886	22097
847.022	22234
847.158	22116
847.294	22032
847.429	22109
847.565	22010
847.701	22318
847.837	21842
847.972	21797
848.108	21842
848.244	21911
848.379	21705
848.515	21652
848.65	21625
848.786	21599
848.921	21610
849.057	21774
849.192	21595
849.328	21625
849.463	21705
849.598	21622
849.734	21526
849.869	21530
850.004	21454
850.14	21393
850.275	21488
850.41	21405
850.545	21359
850.68	21473
850.815	21443
850.95	21397
851.085	21515
851.22	21488
851.355	21443
851.49	21492
851.625	21340
851.76	21344
851.895	21363
852.03	21336
852.165	21332
852.299	21523
852.434	21534
852.569	21378
852.703	21443
852.838	21473
852.973	21519
853.107	21606
853.242	21264
853.376	21218
853.511	21112
853.645	21264
853.78	21348
853.914	21199
854.048	21207
854.183	21237
854.317	21439
854.451	21485
854.585	21252
854.72	21260
854.854	21317
854.988	21135
855.122	21256
855.256	21165
855.39	21241
855.524	21283
855.658	21127
855.792	21275
855.926	21256
856.06	21268
856.194	21287
856.327	21249
856.461	21195
856.595	21119
856.729	21268
856.862	21507
856.996	21374
857.13	21291
857.263	21370
857.397	21313
857.53	21157
857.664	21184
857.797	21180
857.931	21447
858.064	21188
858.197	21310
858.331	21180
858.464	21272
858.597	21066
858.731	21336
858.864	21351
858.997	21233
859.13	21218
859.263	21226
859.396	21302
859.529	21214
859.662	21211
859.795	21226
859.928	21085
860.061	21397
860.194	21359
860.327	21226
860.46	21264
860.592	21447
860.725	21321
860.858	21325
860.99	21222
861.123	21233
861.256	21127
861.388	21184
861.521	21812
861.653	21226
861.786	21146
861.918	21157
862.05	21192
862.183	21184
862.315	21230
862.447	21195
862.58	21161
862.712	21085
862.844	20971
862.976	20979
863.108	21047
863.24	21336
863.372	20872
863.504	20933
863.636	20979
863.768	20891
863.9	20918
864.032	20880
864.164	20960
864.296	20956
864.428	21112
864.559	20944
864.691	21013
864.823	20914
864.954	20963
865.086	21001
865.217	20990
865.349	20720
865.48	20895
865.612	20754
865.743	20948
865.875	20823
866.006	20887
866.137	20883
866.269	20777
866.4	20746
866.531	20830
866.662	20762
866.793	20693
866.924	20655
867.055	20697
867.186	20743
867.317	20739
867.448	20716
867.579	20716
867.71	20754
867.841	20727
867.972	20849
868.103	20834
868.233	20758
868.364	20796
868.495	20899
868.625	20929
868.756	21093
868.886	20910
869.017	21051
869.147	21032
869.278	21173
869.408	21047
869.539	20994
869.669	21100
869.799	21055
869.929	21135
870.06	21009
870.19	21252
870.32	21291
870.45	21397
870.58	21428
870.71	21610
870.84	21576
870.97	21344
871.1	21382
871.23	21652
871.36	21633
871.489	21523
871.619	21462
871.749	21568
871.879	21679
872.008	21618
872.138	21599
872.267	21736
872.397	21443
872.526	21477
872.656	21450
872.785	21496
872.915	21713
873.044	21648
873.173	21652
873.303	21709
873.432	21606
873.561	21690
873.69	21675
873.819	21633
873.948	21633
874.077	21713
874.206	21549
874.335	21629
874.464	21732
874.593	21873
874.722	21884
874.851	21949
874.979	21915
875.108	21838
875.237	21903
875.365	21869
875.494	21892
875.623	21911
875.751	21831
875.88	21880
876.008	22048
876.136	22097
876.265	22158
876.393	22356
876.521	22333
876.65	22360
876.778	22276
876.906	22261
877.034	22112
877.162	22070
877.29	22173
877.418	22280
877.546	22303
877.674	22139
877.802	22143
877.93	22226
878.058	22120
878.185	22006
878.313	22097
878.441	22284
878.568	21934
878.696	22169
878.824	22261
878.951	22318
879.079	22390
879.206	22580
879.333	22257
879.461	22242
879.588	22322
879.715	22287
879.842	22398
879.97	22173
880.097	22006
880.224	22040
880.351	22044
880.478	22105
880.605	21972
880.732	22025
880.859	22238
880.986	22059
881.112	22173
881.239	21945
881.366	21762
881.493	21580
881.619	21553
881.746	21614
881.872	21663
881.999	21526
882.125	21450
882.252	21610
882.378	21644
882.505	21713
882.631	21431
882.757	21355
882.883	21348
883.01	21355
883.136	21169
883.262	21138
883.388	21211
883.514	21214
883.64	21298
883.766	21252
883.892	21032
884.018	21211
884.143	21154
884.269	21302
884.395	21085
884.52	20830
884.646	21074
884.772	20788
884.897	20788
885.023	20948
885.148	20994
885.274	21089
885.399	21009
885.524	20929
885.65	21043
885.775	21013
885.9	20979
886.025	21070
886.15	21028
886.275	20876
886.4	20838
886.525	20857
886.65	20849
886.775	20845
886.9	20925
887.025	21176
887.149	20796
887.274	20804
887.399	20765
887.523	20609
887.648	20716
887.773	20651
887.897	20815
888.021	20686
888.146	20625
888.27	20773
888.395	20842
888.519	20762
888.643	20708
888.767	20731
888.891	20648
889.015	20461
889.139	20587
889.263	20621
889.387	20594
889.511	20765
889.635	20682
889.759	20606
889.883	20518
890.006	20461
890.13	20587
890.254	20514
890.377	20396
890.501	20248
890.624	20278
890.748	20351
890.871	20157
890.995	20043
891.118	19993
891.241	20031
891.364	20069
891.488	20168
891.611	20153
891.734	20142
891.857	20195
891.98	20065
892.103	20149
892.226	20138
892.349	20073
892.471	19856
892.594	19986
892.717	20050
892.839	19986
892.962	20058
893.085	20001
893.207	19959
893.33	20027
893.452	19944
893.575	20084
893.697	19925
893.819	20065
893.941	20256
894.064	20168
894.186	20001
894.308	19921
894.43	20084
894.552	20107
894.674	20081
894.796	19936
894.918	19955
895.04	19856
895.161	20153
895.283	19993
895.405	19921
895.526	19921
895.648	19944
895.769	20012
895.891	20001
896.012	20081
896.134	20016
896.255	20058
896.376	19947
896.498	20046
896.619	20100
896.74	20081
896.861	20039
896.982	20339
897.103	20473
897.224	20298
897.345	20313
897.466	20115
897.587	20195
897.708	20301
897.828	20336
897.949	20153
898.07	20016
898.19	20050
898.311	20305
898.431	20119
898.552	20240
898.672	20278
898.792	20278
898.913	20149
899.033	20180
899.153	20012
899.273	19913
899.393	20020
899.513	19883
899.633	19898
899.753	19967
899.873	20046
899.993	20050
900.113	19951
900.232	19887
900.352	19894
900.472	19856
900.591	19750
900.711	19822
900.83	19689
900.95	19940
901.069	19849
901.189	19689
901.308	19567
901.427	19308
901.546	19392
901.665	19369
901.784	19297
901.904	19365
902.023	19148
902.141	18985
902.26	18886
902.379	18901
902.498	18928
902.617	18779
902.735	18939
902.854	18848
902.973	18707
903.091	18525
903.21	18521
903.328	18456
903.446	18399
903.565	18456
903.683	18452
903.801	18228
903.919	18228
904.038	18228
904.156	18129
904.274	18197
904.392	18068
904.51	17988
904.627	18030
904.745	18197
904.863	18117
904.981	17942
905.098	17752
905.216	17783
905.334	17851
905.451	17760
905.569	17733
905.686	17760
905.803	17760
905.921	17577
906.038	17668
906.155	17646
906.272	17467
906.389	17486
906.506	17330
906.623	17269
906.74	17315
906.857	17204
906.974	17197
907.091	17284
907.208	17429
907.324	17353
907.441	17292
907.557	17113
907.674	17006
907.79	16980
907.907	16889
908.023	17041
908.139	16984
908.256	17003
908.372	17045
908.488	16908
908.604	16854
908.72	16660
908.836	16778
908.952	16653
909.068	16755
909.184	16869
909.3	16694
909.415	16816
909.531	16672
909.647	16451
909.762	16584
909.878	16265
909.993	16493
910.108	16390
910.224	16329
910.339	16466
910.454	16158
910.57	16291
910.685	16067
910.8	16500
910.915	16417
911.03	16299
911.145	16109
911.259	15934
911.374	15987
911.489	16013
911.604	15857
911.718	15739
911.833	15835
911.947	15599
912.062	15625
912.176	15751
912.291	15762
912.405	15812
912.519	16029
912.633	15937
912.748	15778
912.862	15759
912.976	15564
913.09	15454
913.204	15431
913.318	15633
913.431	15629
913.545	15679
913.659	15629
913.772	15538
913.886	15439
914	15355
914.113	15450
914.226	15511
914.34	15389
914.453	15291
914.566	15523
914.68	15260
914.793	15211
914.906	15119
915.019	14899
915.132	14944
915.245	15089
915.358	14986
915.47	14998
915.583	15001
915.696	15089
915.809	15093
915.921	15104
916.034	15055
916.146	14986
916.259	14967
916.371	14998
916.483	14960
916.595	14796
916.708	14868
916.82	14864
916.932	14811
917.044	14887
917.156	14864
917.268	14724
917.38	14621
917.491	14590
917.603	14640
917.715	14659
917.826	14765
917.938	14571
918.049	14533
918.161	14549
918.272	14708
918.384	14765
918.495	14625
918.606	14419
918.717	14320
918.828	14324
918.939	14480
919.05	14336
919.161	14423
919.272	14214
919.383	14332
919.494	14370
919.604	14629
919.715	14404
919.826	14374
919.936	14343
920.047	14366
920.157	14446
920.267	14663
920.378	14495
920.488	14408
920.598	14522
920.708	14773
920.818	14492
920.928	14579
921.038	14712
921.148	14689
921.258	14351
921.368	14347
921.477	14195
921.587	14134
921.697	13974
921.806	14107
921.916	14119
922.025	13803
922.134	13845
922.244	13784
922.353	13875
922.462	13613
922.571	13548
922.68	13483
922.789	13457
922.898	13491
923.007	13388
923.116	13476
923.224	13464
923.333	13411
923.442	13339
923.55	13354
923.659	13304
923.767	13377
923.876	13259
923.984	13259
924.092	13217
924.201	13206
924.309	13312
924.417	13221
924.525	13145
924.633	13213
924.741	13921
924.849	12962
924.956	13088
925.064	12901
925.172	12863
925.279	12886
925.387	12829
925.494	12989
925.602	12951
925.709	12966
925.816	12753
925.924	12806
926.031	12932
926.138	12795
926.245	12913
926.352	12753
926.459	12840
926.566	12894
926.673	12791
926.779	12658
926.886	12635
926.993	12486
927.099	12486
927.206	12422
927.312	12452
927.419	12429
927.525	12407
927.631	12536
927.737	12429
927.843	12311
927.95	12209
928.056	12209
928.162	12285
928.267	12239
928.373	12989
928.479	12365
928.585	12144
928.69	12163
928.796	12247
928.901	12076
929.007	11904
929.112	12060
929.218	12155
929.323	11954
929.428	12015
929.533	12152
929.638	12003
929.743	11977
929.848	11988
929.953	11927
930.058	11851
930.163	11684
930.267	11668
930.372	11809
930.477	11642
930.581	11916
930.685	11707
930.79	11577
930.894	11630
930.998	11608
931.103	11695
931.207	11345
931.311	11235
931.415	11254
931.519	10984
931.623	10927
