Data from test_V78500241_3277.txt Node
Date: Fri Mar 25 15:32:40 CST 2022
User: usil
Spectrometer: V785-0024
Trigger mode: 0
Integration Time (sec): 4.000000E-1
Scans to average: 1
Nonlinearity correction enabled: false
Boxcar width: 0
Storing dark spectrum: false
XAxis mode: Wavelengths
Number of Pixels in Spectrum: 1024
>>>>>Begin Spectral Data<<<<<
801.071	27154
801.214	27294
801.356	26933
801.499	26948
801.641	26754
801.783	26693
801.926	27039
802.068	26807
802.211	26712
802.353	26682
802.496	26537
802.638	26613
802.78	26514
802.923	26389
803.065	26317
803.208	26518
803.35	26526
803.492	26594
803.635	26701
803.777	26606
803.919	26602
804.061	27077
804.204	26655
804.346	26613
804.488	26507
804.63	26651
804.773	26488
804.915	26442
805.057	26644
805.199	26522
805.341	26689
805.483	26697
805.626	26735
805.768	26590
805.91	26670
806.052	26743
806.194	26533
806.336	26773
806.478	26815
806.62	26689
806.762	26788
806.904	26963
807.046	27169
807.188	27032
807.33	27017
807.472	27264
807.614	27047
807.756	27077
807.898	26998
808.04	27039
808.182	26902
808.324	27047
808.465	27047
808.607	27264
808.749	27298
808.891	27329
809.033	27443
809.174	27306
809.316	27389
809.458	27344
809.6	27298
809.741	27370
809.883	27450
810.025	27599
810.166	27774
810.308	27660
810.45	27431
810.591	27393
810.733	27332
810.875	27355
811.016	27329
811.158	27256
811.299	27466
811.441	27580
811.582	27431
811.724	27310
811.865	27348
812.007	27317
812.148	27332
812.29	27408
812.431	27439
812.573	27656
812.714	27739
812.855	27770
812.997	27861
813.138	28017
813.279	27926
813.421	27949
813.562	27888
813.703	27709
813.845	27504
813.986	27264
814.127	27142
814.268	27070
814.41	26944
814.551	27009
814.692	27032
814.833	26979
814.974	26876
815.115	26883
815.256	26857
815.397	27070
815.539	26823
815.68	26781
815.821	26609
815.962	26720
816.103	26674
816.244	26457
816.385	26587
816.526	26579
816.666	26377
816.807	26240
816.948	26225
817.089	26332
817.23	26244
817.371	26172
817.512	26248
817.653	26218
817.793	26267
817.934	26187
818.075	26229
818.216	26317
818.356	26214
818.497	26111
818.638	26103
818.778	26069
818.919	25913
819.06	26244
819.2	26252
819.341	26157
819.481	26126
819.622	26301
819.762	26549
819.903	26617
820.043	26362
820.184	26484
820.324	26374
820.465	26431
820.605	26259
820.746	26370
820.886	26218
821.026	26328
821.167	26271
821.307	26206
821.447	26199
821.588	26271
821.728	26134
821.868	25826
822.008	25643
822.149	25677
822.289	25757
822.429	25594
822.569	25377
822.709	25365
822.849	25171
822.99	25236
823.13	25084
823.27	25228
823.41	25133
823.55	25088
823.69	25091
823.83	25038
823.97	24958
824.11	24890
824.25	24795
824.389	24817
824.529	24924
824.669	24894
824.809	24951
824.949	24905
825.089	24760
825.228	24837
825.368	24722
825.508	24688
825.648	24726
825.787	24738
825.927	24738
826.067	24817
826.206	24772
826.346	24768
826.485	24719
826.625	24658
826.765	24856
826.904	24798
827.044	24483
827.183	24350
827.323	24475
827.462	24536
827.601	24471
827.741	24414
827.88	24452
828.02	24273
828.159	24365
828.298	24437
828.437	24502
828.577	24372
828.716	24494
828.855	24361
828.994	24239
829.134	24159
829.273	24224
829.412	24133
829.551	24015
829.69	24098
829.829	24140
829.968	24163
830.107	24201
830.246	24285
830.385	24136
830.524	24110
830.663	24053
830.802	23889
830.941	23828
831.08	23802
831.219	23836
831.357	23920
831.496	23889
831.635	23752
831.774	23665
831.913	23615
832.051	23623
832.19	23501
832.329	23665
832.467	23547
832.606	23497
832.744	23368
832.883	23368
833.022	23455
833.16	23474
833.299	23589
833.437	23395
833.576	23611
833.714	23376
833.852	23493
833.991	23433
834.129	23585
834.267	23531
834.406	23463
834.544	23596
834.682	23642
834.821	23528
834.959	23703
835.097	23490
835.235	23535
835.373	23604
835.511	23581
835.65	23372
835.788	23387
835.926	23277
836.064	23235
836.202	23227
836.34	23372
836.478	23353
836.615	23444
836.753	23459
836.891	23429
837.029	23493
837.167	23368
837.305	23341
837.443	23193
837.58	23216
837.718	23315
837.856	23288
837.993	23220
838.131	23239
838.269	22984
838.406	23212
838.544	23052
838.681	22896
838.819	22877
838.956	22748
839.094	22675
839.231	22797
839.369	22881
839.506	23235
839.643	22991
839.781	22767
839.918	22630
840.055	22664
840.193	22656
840.33	22630
840.467	22592
840.604	22668
840.742	22896
840.879	22596
841.016	22611
841.153	22516
841.29	22759
841.427	22710
841.564	22645
841.701	22641
841.838	22603
841.975	22485
842.112	22569
842.249	22580
842.385	22565
842.522	22535
842.659	22565
842.796	22409
842.933	22402
843.069	22322
843.206	22394
843.343	22337
843.479	22500
843.616	22363
843.752	22230
843.889	22219
844.025	22348
844.162	22299
844.298	22272
844.435	22120
844.571	22223
844.708	22306
844.844	22253
844.98	22234
845.117	22253
845.253	22051
845.389	22105
845.525	22112
845.661	22173
845.798	21922
845.934	21922
846.07	21816
846.206	22002
846.342	22025
846.478	21911
846.614	21682
846.75	21576
846.886	21606
847.022	21816
847.158	21762
847.294	21587
847.429	21644
847.565	21572
847.701	21941
847.837	21283
847.972	21302
848.108	21420
848.244	21458
848.379	21226
848.515	21291
848.65	21199
848.786	21336
848.921	21176
849.057	21336
849.192	21275
849.328	21218
849.463	21367
849.598	21245
849.734	21131
849.869	21047
850.004	20979
850.14	20925
850.275	20952
850.41	20979
850.545	20990
850.68	20956
850.815	21085
850.95	20963
851.085	21260
851.22	21173
851.355	20918
851.49	21077
851.625	20948
851.76	21062
851.895	20960
852.03	20948
852.165	20960
852.299	21036
852.434	21081
852.569	21051
852.703	20990
852.838	20971
852.973	21047
853.107	21096
853.242	20876
853.376	20902
853.511	20682
853.645	20807
853.78	20914
853.914	20880
854.048	20765
854.183	20781
854.317	20891
854.451	21013
854.585	20857
854.72	20918
854.854	20910
854.988	20830
855.122	20716
855.256	20815
855.39	20785
855.524	20861
855.658	20857
855.792	20819
855.926	20842
856.06	20895
856.194	20849
856.327	20883
856.461	20693
856.595	20735
856.729	20815
856.862	20853
856.996	20830
857.13	20925
857.263	20937
857.397	20895
857.53	20849
857.664	20899
857.797	20868
857.931	21085
858.064	20872
858.197	20941
858.331	20826
858.464	20777
858.597	20762
858.731	20864
858.864	20670
858.997	20815
859.13	20944
859.263	20891
859.396	20941
859.529	20792
859.662	20796
859.795	20788
859.928	20921
860.061	21017
860.194	21039
860.327	20804
860.46	20872
860.592	20899
860.725	21043
860.858	20994
860.99	20815
861.123	20686
861.256	20811
861.388	20914
861.521	21397
861.653	20708
861.786	20613
861.918	20682
862.05	20686
862.183	20769
862.315	20826
862.447	20883
862.58	20651
862.712	20598
862.844	20465
862.976	20613
863.108	20617
863.24	20971
863.372	20507
863.504	20575
863.636	20568
863.768	20594
863.9	20651
864.032	20396
864.164	20492
864.296	20454
864.428	20621
864.559	20552
864.691	20568
864.823	20484
864.954	20552
865.086	20488
865.217	20473
865.349	20328
865.48	20476
865.612	20495
865.743	20552
865.875	20412
866.006	20431
866.137	20415
866.269	20541
866.4	20381
866.531	20355
866.662	20396
866.793	20438
866.924	20358
867.055	20446
867.186	20434
867.317	20427
867.448	20362
867.579	20442
867.71	20324
867.841	20358
867.972	20381
868.103	20370
868.233	20396
868.364	20438
868.495	20377
868.625	20602
868.756	20750
868.886	20598
869.017	20552
869.147	20716
869.278	20823
869.408	20632
869.539	20701
869.669	20731
869.799	20636
869.929	20804
870.06	20743
870.19	20880
870.32	20849
870.45	21085
870.58	20971
870.71	21218
870.84	21207
870.97	20948
871.1	21100
871.23	21203
871.36	21116
871.489	20986
871.619	21233
871.749	21188
871.879	21313
872.008	21374
872.138	21287
872.267	21249
872.397	21169
872.526	21116
872.656	21085
872.785	21180
872.915	21291
873.044	21222
873.173	21256
873.303	21302
873.432	21249
873.561	21359
873.69	21313
873.819	21184
873.948	21294
874.077	21218
874.206	21138
874.335	21374
874.464	21249
874.593	21439
874.722	21370
874.851	21408
874.979	21641
875.108	21564
875.237	21469
875.365	21439
875.494	21538
875.623	21523
875.751	21401
875.88	21519
876.008	21606
876.136	21641
876.265	21873
876.393	21956
876.521	21960
876.65	21991
876.778	21865
876.906	21964
877.034	21755
877.162	21789
877.29	21895
877.418	21888
877.546	22013
877.674	21869
877.802	21850
877.93	21812
878.058	21831
878.185	21808
878.313	21854
878.441	21823
878.568	21648
878.696	21663
878.824	21956
878.951	22029
879.079	21960
879.206	22196
879.333	21949
879.461	21975
879.588	21880
879.715	22036
879.842	21972
879.97	21869
880.097	21686
880.224	21717
880.351	21747
880.478	21698
880.605	21778
880.732	21618
880.859	21922
880.986	21610
881.112	21690
881.239	21595
881.366	21450
881.493	21249
881.619	21195
881.746	21348
881.872	21184
881.999	21256
882.125	21157
882.252	21317
882.378	21195
882.505	21321
882.631	21058
882.757	20944
882.883	20982
883.01	20937
883.136	20960
883.262	20849
883.388	20868
883.514	20956
883.64	20944
883.766	20937
883.892	20701
884.018	20693
884.143	20853
884.269	21005
884.395	20807
884.52	20655
884.646	20590
884.772	20533
884.897	20533
885.023	20621
885.148	20648
885.274	20800
885.399	20689
885.524	20457
885.65	20693
885.775	20587
885.9	20530
886.025	20807
886.15	20693
886.275	20651
886.4	20507
886.525	20507
886.65	20552
886.775	20564
886.9	20724
887.025	20769
887.149	20492
887.274	20370
887.399	20328
887.523	20389
887.648	20412
887.773	20248
887.897	20473
888.021	20488
888.146	20427
888.27	20480
888.395	20499
888.519	20461
888.643	20317
888.767	20396
888.891	20256
889.015	20206
889.139	20225
889.263	20202
889.387	20324
889.511	20511
889.635	20450
889.759	20233
889.883	20157
890.006	20248
890.13	20183
890.254	20210
890.377	20073
890.501	19951
890.624	19997
890.748	20024
890.871	19925
890.995	19647
891.118	19727
891.241	19807
891.364	19704
891.488	19940
891.611	19613
891.734	19750
891.857	19833
891.98	19772
892.103	19852
892.226	19772
892.349	19715
892.471	19696
892.594	19628
892.717	19670
892.839	19655
892.962	19643
893.085	19757
893.207	19723
893.33	19575
893.452	19567
893.575	19788
893.697	19590
893.819	19772
893.941	19883
894.064	19902
894.186	19632
894.308	19651
894.43	19742
894.552	19791
894.674	19734
894.796	19624
894.918	19601
895.04	19693
895.161	19738
895.283	19712
895.405	19639
895.526	19803
895.648	19601
895.769	19742
895.891	19734
896.012	19837
896.134	19761
896.255	19696
896.376	19696
896.498	19791
896.619	19742
896.74	19704
896.861	19738
896.982	20096
897.103	20069
897.224	19967
897.345	19913
897.466	19894
897.587	19940
897.708	20119
897.828	19925
897.949	19898
898.07	19666
898.19	19811
898.311	19841
898.431	19871
898.552	19997
898.672	19978
898.792	19917
898.913	20024
899.033	19856
899.153	19811
899.273	19677
899.393	19601
899.513	19586
899.633	19616
899.753	19590
899.873	19719
899.993	19616
900.113	19624
900.232	19662
900.352	19597
900.472	19464
900.591	19324
900.711	19373
900.83	19392
900.95	19510
901.069	19582
901.189	19304
901.308	19126
901.427	19133
901.546	19012
901.665	19076
901.784	18954
901.904	18863
902.023	18840
902.141	18684
902.26	18559
902.379	18631
902.498	18544
902.617	18536
902.735	18517
902.854	18540
902.973	18521
903.091	18300
903.21	18129
903.328	18243
903.446	18254
903.565	18034
903.683	18045
903.801	17984
903.919	18152
904.038	17980
904.156	17790
904.274	17847
904.392	17824
904.51	17695
904.627	17859
904.745	17874
904.863	17843
904.981	17672
905.098	17478
905.216	17623
905.334	17558
905.451	17562
905.569	17299
905.686	17497
905.803	17376
905.921	17345
906.038	17341
906.155	17284
906.272	17132
906.389	17113
906.506	17067
906.623	17056
906.74	17060
906.857	16942
906.974	16949
907.091	17166
907.208	17200
907.324	17071
907.441	16900
907.557	16858
907.674	16805
907.79	16694
907.907	16660
908.023	16809
908.139	16774
908.256	16729
908.372	16759
908.488	16577
908.604	16607
908.72	16367
908.836	16538
908.952	16424
909.068	16519
909.184	16542
909.3	16466
909.415	16527
909.531	16417
909.647	16204
909.762	16200
909.878	16154
909.993	15983
910.108	16131
910.224	16093
910.339	16249
910.454	15994
910.57	16002
910.685	15903
910.8	16204
910.915	16158
911.03	15934
911.145	15842
911.259	15732
911.374	15861
911.489	15755
911.604	15675
911.718	15408
911.833	15576
911.947	15420
912.062	15363
912.176	15614
912.291	15557
912.405	15595
912.519	15827
912.633	15736
912.748	15553
912.862	15431
912.976	15355
913.09	15294
913.204	15382
913.318	15287
913.431	15473
913.545	15374
913.659	15454
913.772	15233
913.886	15260
914	15116
914.113	15218
914.226	15287
914.34	15188
914.453	15085
914.566	15203
914.68	15093
914.793	14982
914.906	14720
915.019	14739
915.132	14598
915.245	14743
915.358	14727
915.47	14750
915.583	14735
915.696	14804
915.809	14819
915.921	14921
916.034	14746
916.146	14632
916.259	14686
916.371	14712
916.483	14701
916.595	14636
916.708	14617
916.82	14537
916.932	14667
917.044	14560
917.156	14499
917.268	14419
917.38	14438
917.491	14457
917.603	14484
917.715	14507
917.826	14514
917.938	14389
918.049	14286
918.161	14347
918.272	14511
918.384	14541
918.495	14461
918.606	14180
918.717	14161
918.828	14210
918.939	14248
919.05	14073
919.161	14130
919.272	13871
919.383	13989
919.494	14286
919.604	14381
919.715	14187
919.826	13967
919.936	14210
920.047	14210
920.157	14145
920.267	14355
920.378	14210
920.488	14100
920.598	14320
920.708	14480
920.818	14259
920.928	14320
921.038	14412
921.148	14423
921.258	14119
921.368	14043
921.477	13898
921.587	13902
921.697	13753
921.806	13898
921.916	13769
922.025	13632
922.134	13620
922.244	13495
922.353	13571
922.462	13422
922.571	13346
922.68	13297
922.789	13141
922.898	13187
923.007	13152
923.116	13335
923.224	13152
923.333	13069
923.442	13069
923.55	13023
923.659	13114
923.767	13076
923.876	12970
923.984	13171
924.092	12886
924.201	12973
924.309	12958
924.417	12973
924.525	12916
924.633	12882
924.741	13875
924.849	12703
924.956	12764
925.064	12665
925.172	12601
925.279	12650
925.387	12719
925.494	12642
925.602	12715
925.709	12662
925.816	12506
925.924	12604
926.031	12681
926.138	12673
926.245	12696
926.352	12460
926.459	12696
926.566	12711
926.673	12601
926.779	12437
926.886	12429
926.993	12289
927.099	12190
927.206	12213
927.312	12194
927.419	12254
927.525	12216
927.631	12285
927.737	12136
927.843	12072
927.95	11992
928.056	11999
928.162	12011
928.267	12098
928.373	12692
928.479	12178
928.585	11855
928.69	12060
928.796	12079
928.901	11931
929.007	11813
929.112	11977
929.218	11912
929.323	11760
929.428	11665
929.533	11923
929.638	11680
929.743	11714
929.848	11668
929.953	11703
930.058	11619
930.163	11512
930.267	11577
930.372	11570
930.477	11440
930.581	11634
930.685	11490
930.79	11372
930.894	11387
930.998	11303
931.103	11440
931.207	11128
931.311	11067
931.415	10987
931.519	10782
931.623	10839
