Data from test_V78500241_1469.txt Node
Date: Fri Mar 25 15:20:05 CST 2022
User: usil
Spectrometer: V785-0024
Trigger mode: 0
Integration Time (sec): 4.000000E-1
Scans to average: 1
Nonlinearity correction enabled: false
Boxcar width: 0
Storing dark spectrum: false
XAxis mode: Wavelengths
Number of Pixels in Spectrum: 1024
>>>>>Begin Spectral Data<<<<<
801.071	27876
801.214	27686
801.356	27610
801.499	27466
801.641	27454
801.783	27374
801.926	27481
802.068	27538
802.211	27336
802.353	27252
802.496	27043
802.638	27058
802.78	27138
802.923	26921
803.065	26853
803.208	26777
803.35	27070
803.492	27116
803.635	27195
803.777	27116
803.919	27081
804.061	27389
804.204	27230
804.346	27081
804.488	27169
804.63	27142
804.773	27005
804.915	27279
805.057	27435
805.199	27165
805.341	27222
805.483	27424
805.626	27313
805.768	27245
805.91	27351
806.052	27302
806.194	27207
806.336	27732
806.478	27386
806.62	27454
806.762	27405
806.904	27622
807.046	27876
807.188	27846
807.33	27747
807.472	27766
807.614	27747
807.756	27724
807.898	27618
808.04	27545
808.182	27618
808.324	27564
808.465	27663
808.607	27838
808.749	27850
808.891	27994
809.033	28234
809.174	28139
809.316	27964
809.458	28002
809.6	27994
809.741	28032
809.883	28131
810.025	28249
810.166	28272
810.308	28234
810.45	28261
810.591	28207
810.733	28120
810.875	27937
811.016	27873
811.158	27888
811.299	28013
811.441	28112
811.582	28101
811.724	27998
811.865	27930
812.007	28017
812.148	27968
812.29	27960
812.431	28139
812.573	28485
812.714	28363
812.855	28542
812.997	28592
813.138	28797
813.279	28596
813.421	28580
813.562	28428
813.703	28440
813.845	28287
813.986	28078
814.127	27747
814.268	27652
814.41	27701
814.551	27675
814.692	27686
814.833	27648
814.974	27644
815.115	27663
815.256	27583
815.397	27564
815.539	27561
815.68	27466
815.821	27370
815.962	27523
816.103	27401
816.244	27306
816.385	27291
816.526	27359
816.666	27119
816.807	26944
816.948	27085
817.089	27222
817.23	27051
817.371	26883
817.512	27039
817.653	26842
817.793	26960
817.934	26944
818.075	26960
818.216	26967
818.356	26796
818.497	26838
818.638	26724
818.778	26667
818.919	26716
819.06	26724
819.2	26880
819.341	26902
819.481	26990
819.622	27241
819.762	27173
819.903	27150
820.043	27051
820.184	27077
820.324	26876
820.465	27176
820.605	27024
820.746	27089
820.886	26872
821.026	27047
821.167	26994
821.307	27055
821.447	27043
821.588	26857
821.728	26735
821.868	26621
822.008	26351
822.149	26381
822.289	26385
822.429	26374
822.569	26119
822.709	26168
822.849	25989
822.99	25887
823.13	25951
823.27	25989
823.41	25628
823.55	25746
823.69	25761
823.83	25887
823.97	25753
824.11	25499
824.25	25571
824.389	25601
824.529	25689
824.669	25609
824.809	25544
824.949	25635
825.089	25635
825.228	25597
825.368	25460
825.508	25479
825.648	25525
825.787	25441
825.927	25510
826.067	25343
826.206	25472
826.346	25510
826.485	25304
826.625	25396
826.765	25647
826.904	25506
827.044	25228
827.183	25209
827.323	25118
827.462	25232
827.601	25164
827.741	25194
827.88	25228
828.02	25114
828.159	25046
828.298	25206
828.437	25240
828.577	25080
828.716	25187
828.855	25004
828.994	24856
829.134	24973
829.273	24897
829.412	24833
829.551	24814
829.69	24875
829.829	24863
829.968	24913
830.107	24913
830.246	24863
830.385	24867
830.524	24665
830.663	24684
830.802	24566
830.941	24460
831.08	24532
831.219	24646
831.357	24627
831.496	24650
831.635	24505
831.774	24376
831.913	24384
832.051	24323
832.19	24273
832.329	24216
832.467	24205
832.606	24121
832.744	24079
832.883	24201
833.022	24152
833.16	23996
833.299	24053
833.437	24182
833.576	24258
833.714	24064
833.852	24292
833.991	24262
834.129	24285
834.267	24262
834.406	24091
834.544	24350
834.682	24224
834.821	24228
834.959	24399
835.097	24167
835.235	24270
835.373	24117
835.511	24182
835.65	24068
835.788	24114
835.926	23813
836.064	23916
836.202	23946
836.34	23931
836.478	24034
836.615	23977
836.753	24133
836.891	24140
837.029	23988
837.167	24148
837.305	24041
837.443	24007
837.58	23920
837.718	24041
837.856	23878
837.993	23699
838.131	23855
838.269	23649
838.406	23771
838.544	23710
838.681	23467
838.819	23596
838.956	23391
839.094	23402
839.231	23379
839.369	23463
839.506	23707
839.643	23467
839.781	23440
839.918	23334
840.055	23364
840.193	23356
840.33	23395
840.467	23261
840.604	23364
840.742	23493
840.879	23056
841.016	23208
841.153	23098
841.29	23379
841.427	23208
841.564	23105
841.701	23235
841.838	23303
841.975	23159
842.112	23178
842.249	23033
842.385	22946
842.522	23064
842.659	23067
842.796	22869
842.933	23052
843.069	23044
843.206	22957
843.343	23033
843.479	22995
843.616	23044
843.752	22744
843.889	22809
844.025	22976
844.162	22706
844.298	22934
844.435	22736
844.571	22835
844.708	22725
844.844	22999
844.98	22828
845.117	22995
845.253	22641
845.389	22805
845.525	22694
845.661	22698
845.798	22588
845.934	22599
846.07	22497
846.206	22546
846.342	22637
846.478	22440
846.614	22390
846.75	22272
846.886	22135
847.022	22299
847.158	22303
847.294	22329
847.429	22295
847.565	22223
847.701	22493
847.837	21956
847.972	21972
848.108	22090
848.244	22101
848.379	21956
848.515	21854
848.65	21895
848.786	21812
848.921	21873
849.057	21987
849.192	21903
849.328	21800
849.463	21774
849.598	21800
849.734	21800
849.869	21675
850.004	21705
850.14	21576
850.275	21591
850.41	21595
850.545	21424
850.68	21492
850.815	21473
850.95	21587
851.085	21675
851.22	21728
851.355	21587
851.49	21652
851.625	21568
851.76	21481
851.895	21462
852.03	21363
852.165	21618
852.299	21504
852.434	21759
852.569	21698
852.703	21568
852.838	21633
852.973	21762
853.107	21652
853.242	21694
853.376	21454
853.511	21348
853.645	21439
853.78	21504
853.914	21485
854.048	21336
854.183	21355
854.317	21359
854.451	21595
854.585	21428
854.72	21431
854.854	21526
854.988	21249
855.122	21420
855.256	21192
855.39	21435
855.524	21416
855.658	21477
855.792	21378
855.926	21428
856.06	21481
856.194	21629
856.327	21458
856.461	21367
856.595	21317
856.729	21367
856.862	21523
856.996	21507
857.13	21424
857.263	21492
857.397	21355
857.53	21389
857.664	21382
857.797	21443
857.931	21542
858.064	21511
858.197	21481
858.331	21363
858.464	21272
858.597	21363
858.731	21374
858.864	21367
858.997	21370
859.13	21306
859.263	21466
859.396	21523
859.529	21302
859.662	21340
859.795	21256
859.928	21447
860.061	21557
860.194	21572
860.327	21507
860.46	21405
860.592	21450
860.725	21679
860.858	21504
860.99	21458
861.123	21306
861.256	21336
861.388	21473
861.521	21926
861.653	21268
861.786	21131
861.918	21329
862.05	21416
862.183	21321
862.315	21291
862.447	21363
862.58	21275
862.712	21104
862.844	21195
862.976	21192
863.108	21188
863.24	21538
863.372	21074
863.504	21085
863.636	21058
863.768	21252
863.9	21100
864.032	21176
864.164	21051
864.296	21100
864.428	21260
864.559	21116
864.691	21214
864.823	21165
864.954	21233
865.086	21077
865.217	21024
865.349	20971
865.48	20925
865.612	20880
865.743	21135
865.875	20998
866.006	20853
866.137	20971
866.269	20906
866.4	20944
866.531	21058
866.662	20777
866.793	21070
866.924	20937
867.055	20899
867.186	20895
867.317	20895
867.448	20880
867.579	20967
867.71	20864
867.841	20902
867.972	20902
868.103	20857
868.233	20975
868.364	20998
868.495	21017
868.625	21195
868.756	21268
868.886	21104
869.017	21150
869.147	21386
869.278	21241
869.408	21161
869.539	21112
869.669	21230
869.799	21199
869.929	21275
870.06	21348
870.19	21466
870.32	21348
870.45	21405
870.58	21511
870.71	21644
870.84	21637
870.97	21378
871.1	21534
871.23	21751
871.36	21850
871.489	21743
871.619	21652
871.749	21823
871.879	21816
872.008	21816
872.138	21751
872.267	21709
872.397	21614
872.526	21583
872.656	21618
872.785	21671
872.915	21827
873.044	21854
873.173	21724
873.303	21778
873.432	21854
873.561	21926
873.69	21857
873.819	21736
873.948	21800
874.077	21739
874.206	21732
874.335	21652
874.464	21930
874.593	21975
874.722	21846
874.851	22029
874.979	22010
875.108	21979
875.237	21991
875.365	21987
875.494	21949
875.623	22147
875.751	22059
875.88	22147
876.008	22097
876.136	22124
876.265	22478
876.393	22455
876.521	22436
876.65	22462
876.778	22356
876.906	22436
877.034	22287
877.162	22402
877.29	22371
877.418	22466
877.546	22371
877.674	22318
877.802	22447
877.93	22299
878.058	22249
878.185	22226
878.313	22287
878.441	22287
878.568	22188
878.696	22333
878.824	22379
878.951	22352
879.079	22618
879.206	22637
879.333	22535
879.461	22459
879.588	22462
879.715	22634
879.842	22561
879.97	22428
880.097	22287
880.224	22150
880.351	22234
880.478	22257
880.605	22162
880.732	22295
880.859	22390
880.986	22246
881.112	22196
881.239	22025
881.366	21873
881.493	21907
881.619	21694
881.746	21720
881.872	21747
881.999	21846
882.125	21679
882.252	21732
882.378	21686
882.505	21781
882.631	21720
882.757	21424
882.883	21519
883.01	21538
883.136	21355
883.262	21226
883.388	21408
883.514	21488
883.64	21450
883.766	21279
883.892	21195
884.018	21275
884.143	21428
884.269	21412
884.395	21237
884.52	21127
884.646	21085
884.772	21039
884.897	20921
885.023	21070
885.148	21222
885.274	21173
885.399	21173
885.524	21089
885.65	21146
885.775	21077
885.9	21058
886.025	21256
886.15	21096
886.275	20998
886.4	20971
886.525	20982
886.65	21077
886.775	20960
886.9	21066
887.025	21218
887.149	21127
887.274	20933
887.399	20716
887.523	20941
887.648	20765
887.773	20796
887.897	20944
888.021	20876
888.146	20819
888.27	20944
888.395	20918
888.519	20830
888.643	20834
888.767	20895
888.891	20724
889.015	20625
889.139	20655
889.263	20583
889.387	20655
889.511	20845
889.635	20887
889.759	20602
889.883	20590
890.006	20701
890.13	20785
890.254	20571
890.377	20583
890.501	20492
890.624	20488
890.748	20488
890.871	20381
890.995	20248
891.118	20088
891.241	20275
891.364	20282
891.488	20317
891.611	20259
891.734	20164
891.857	20286
891.98	20294
892.103	20351
892.226	20294
892.349	20195
892.471	19902
892.594	20084
892.717	20122
892.839	20100
892.962	20054
893.085	20119
893.207	20119
893.33	20092
893.452	19997
893.575	20122
893.697	20050
893.819	20233
893.941	20282
894.064	20183
894.186	20062
894.308	19959
894.43	20145
894.552	20229
894.674	20206
894.796	20058
894.918	20130
895.04	19993
895.161	20233
895.283	20142
895.405	20046
895.526	20115
895.648	20122
895.769	20161
895.891	20081
896.012	20210
896.134	20157
896.255	20161
896.376	20088
896.498	20039
896.619	20229
896.74	20054
896.861	20172
896.982	20358
897.103	20423
897.224	20446
897.345	20434
897.466	20290
897.587	20336
897.708	20442
897.828	20377
897.949	20187
898.07	20218
898.19	20218
898.311	20366
898.431	20286
898.552	20278
898.672	20381
898.792	20446
898.913	20317
899.033	20187
899.153	20077
899.273	20077
899.393	20084
899.513	20157
899.633	20046
899.753	20092
899.873	20062
899.993	20096
900.113	20081
900.232	20084
900.352	20054
900.472	19894
900.591	19932
900.711	19932
900.83	19689
900.95	19963
901.069	19868
901.189	19681
901.308	19518
901.427	19365
901.546	19556
901.665	19468
901.784	19457
901.904	19316
902.023	19232
902.141	19126
902.26	18970
902.379	19046
902.498	19008
902.617	18890
902.735	18962
902.854	18932
902.973	18833
903.091	18627
903.21	18646
903.328	18631
903.446	18540
903.565	18506
903.683	18414
903.801	18273
903.919	18357
904.038	18285
904.156	18247
904.274	18330
904.392	18182
904.51	18216
904.627	18213
904.745	18270
904.863	18220
904.981	17965
905.098	17885
905.216	17923
905.334	17904
905.451	17889
905.569	17855
905.686	17908
905.803	17805
905.921	17657
906.038	17729
906.155	17752
906.272	17528
906.389	17630
906.506	17459
906.623	17425
906.74	17349
906.857	17299
906.974	17277
907.091	17497
907.208	17376
907.324	17505
907.441	17284
907.557	17231
907.674	17094
907.79	17037
907.907	17204
908.023	17178
908.139	17216
908.256	17086
908.372	16953
908.488	16946
908.604	16923
908.72	16805
908.836	16892
908.952	16866
909.068	16862
909.184	16965
909.3	16900
909.415	16820
909.531	16858
909.647	16546
909.762	16504
909.878	16466
909.993	16542
910.108	16470
910.224	16592
910.339	16432
910.454	16447
910.57	16409
910.685	16341
910.8	16554
910.915	16508
911.03	16417
911.145	16211
911.259	16154
911.374	16147
911.489	15983
911.604	16048
911.718	15857
911.833	15888
911.947	15918
912.062	15831
912.176	15755
912.291	15892
912.405	15892
912.519	16071
912.633	15975
912.748	15838
912.862	15880
912.976	15778
913.09	15526
913.204	15705
913.318	15705
913.431	15797
913.545	15793
913.659	15907
913.772	15584
913.886	15538
914	15534
914.113	15580
914.226	15587
914.34	15629
914.453	15466
914.566	15576
914.68	15439
914.793	15405
914.906	15173
915.019	15104
915.132	15104
915.245	15104
915.358	15154
915.47	15138
915.583	15119
915.696	15230
915.809	15146
915.921	15230
916.034	15089
916.146	15062
916.259	15024
916.371	15051
916.483	15066
916.595	14906
916.708	14944
916.82	15024
916.932	14941
917.044	14986
917.156	14819
917.268	14670
917.38	14815
917.491	14743
917.603	14796
917.715	14796
917.826	14921
917.938	14750
918.049	14644
918.161	14705
918.272	14792
918.384	14838
918.495	14724
918.606	14590
918.717	14530
918.828	14522
918.939	14632
919.05	14343
919.161	14480
919.272	14301
919.383	14396
919.494	14488
919.604	14762
919.715	14503
919.826	14374
919.936	14503
920.047	14530
920.157	14457
920.267	14549
920.378	14484
920.488	14389
920.598	14663
920.708	14724
920.818	14564
920.928	14587
921.038	14788
921.148	14655
921.258	14415
921.368	14305
921.477	14210
921.587	14176
921.697	14240
921.806	14267
921.916	14005
922.025	13997
922.134	13898
922.244	13852
922.353	13921
922.462	13734
922.571	13738
922.68	13525
922.789	13521
922.898	13537
923.007	13464
923.116	13518
923.224	13472
923.333	13457
923.442	13392
923.55	13346
923.659	13373
923.767	13324
923.876	13308
923.984	13384
924.092	13149
924.201	13202
924.309	13209
924.417	13301
924.525	13190
924.633	13285
924.741	13894
924.849	12935
924.956	13126
925.064	12894
925.172	12932
925.279	12962
925.387	12928
925.494	12897
925.602	12970
925.709	12977
925.816	12783
925.924	12943
926.031	12913
926.138	12871
926.245	12871
926.352	12863
926.459	12939
926.566	13000
926.673	12859
926.779	12654
926.886	12711
926.993	12536
927.099	12544
927.206	12388
927.312	12403
927.419	12528
927.525	12441
927.631	12479
927.737	12376
927.843	12334
927.95	12194
928.056	12334
928.162	12357
928.267	12308
928.373	12878
928.479	12399
928.585	12178
928.69	12228
928.796	12266
928.901	12068
929.007	12007
929.112	12148
929.218	12095
929.323	11999
929.428	12022
929.533	12190
929.638	11969
929.743	11969
929.848	12015
929.953	11950
930.058	11897
930.163	11764
930.267	11726
930.372	11859
930.477	11718
930.581	11923
930.685	11805
930.79	11585
930.894	11619
930.998	11619
931.103	11665
931.207	11356
931.311	11353
931.415	11204
931.519	11041
931.623	10980
