Data from test_V78500241_390.txt Node
Date: Fri Mar 25 15:12:34 CST 2022
User: usil
Spectrometer: V785-0024
Trigger mode: 0
Integration Time (sec): 4.000000E-1
Scans to average: 1
Nonlinearity correction enabled: false
Boxcar width: 0
Storing dark spectrum: false
XAxis mode: Wavelengths
Number of Pixels in Spectrum: 1024
>>>>>Begin Spectral Data<<<<<
801.071	27017
801.214	26918
801.356	26845
801.499	26686
801.641	26613
801.783	26507
801.926	26556
802.068	26450
802.211	26560
802.353	26396
802.496	26339
802.638	26252
802.78	26237
802.923	26142
803.065	25986
803.208	26309
803.35	26202
803.492	26339
803.635	26275
803.777	26282
803.919	26431
804.061	26659
804.204	26396
804.346	26351
804.488	26263
804.63	26290
804.773	26180
804.915	26301
805.057	26370
805.199	26404
805.341	26434
805.483	26480
805.626	26434
805.768	26404
805.91	26434
806.052	26442
806.194	26355
806.336	26670
806.478	26473
806.62	26328
806.762	26568
806.904	26701
807.046	26925
807.188	26807
807.33	26800
807.472	26914
807.614	26686
807.756	26967
807.898	26720
808.04	26560
808.182	26644
808.324	26701
808.465	26834
808.607	26819
808.749	26933
808.891	27108
809.033	27199
809.174	27169
809.316	27108
809.458	27047
809.6	27146
809.741	27047
809.883	27207
810.025	27264
810.166	27355
810.308	27485
810.45	27340
810.591	27188
810.733	27135
810.875	27024
811.016	26960
811.158	26830
811.299	27127
811.441	27222
811.582	27173
811.724	27093
811.865	27055
812.007	26963
812.148	26940
812.29	27074
812.431	27169
812.573	27306
812.714	27469
812.855	27675
812.997	27629
813.138	27789
813.279	27747
813.421	27576
813.562	27530
813.703	27382
813.845	27161
813.986	26960
814.127	26807
814.268	26686
814.41	26731
814.551	26735
814.692	26712
814.833	26587
814.974	26549
815.115	26807
815.256	26469
815.397	26606
815.539	26549
815.68	26552
815.821	26362
815.962	26594
816.103	26396
816.244	26221
816.385	26298
816.526	26286
816.666	26084
816.807	25989
816.948	26043
817.089	26176
817.23	26012
817.371	25978
817.512	25947
817.653	25966
817.793	25913
817.934	25909
818.075	25986
818.216	25841
818.356	25765
818.497	25940
818.638	25742
818.778	25807
818.919	25723
819.06	25723
819.2	25883
819.341	25887
819.481	25921
819.622	26046
819.762	26305
819.903	26301
820.043	26183
820.184	26134
820.324	26046
820.465	26001
820.605	26054
820.746	26092
820.886	25906
821.026	25951
821.167	26039
821.307	26081
821.447	25925
821.588	25875
821.728	25795
821.868	25582
822.008	25346
822.149	25464
822.289	25373
822.429	25118
822.569	25080
822.709	25069
822.849	24890
822.99	24886
823.13	25080
823.27	24814
823.41	24726
823.55	24525
823.69	24825
823.83	24768
823.97	24688
824.11	24528
824.25	24525
824.389	24555
824.529	24696
824.669	24631
824.809	24631
824.949	24658
825.089	24627
825.228	24635
825.368	24369
825.508	24422
825.648	24380
825.787	24441
825.927	24544
826.067	24388
826.206	24448
826.346	24475
826.485	24361
826.625	24403
826.765	24483
826.904	24388
827.044	24182
827.183	24209
827.323	24098
827.462	24254
827.601	24064
827.741	24106
827.88	24178
828.02	23969
828.159	24091
828.298	24213
828.437	24277
828.577	24011
828.716	24247
828.855	24079
828.994	23821
829.134	23828
829.273	23901
829.412	23836
829.551	23794
829.69	23901
829.829	23984
829.968	23870
830.107	23935
830.246	23958
830.385	23821
830.524	23775
830.663	23687
830.802	23691
830.941	23493
831.08	23337
831.219	23509
831.357	23452
831.496	23718
831.635	23467
831.774	23315
831.913	23406
832.051	23128
832.19	23185
832.329	23280
832.467	23212
832.606	23162
832.744	23193
832.883	23067
833.022	23083
833.16	23143
833.299	23185
833.437	23197
833.576	23315
833.714	23216
833.852	23337
833.991	23220
834.129	23288
834.267	23250
834.406	23121
834.544	23212
834.682	23178
834.821	23288
834.959	23376
835.097	23140
835.235	23307
835.373	23155
835.511	23204
835.65	23048
835.788	23117
835.926	22946
836.064	22820
836.202	22805
836.34	23037
836.478	23200
836.615	22946
836.753	23132
836.891	23151
837.029	23113
837.167	22980
837.305	23010
837.443	22968
837.58	22900
837.718	23079
837.856	23003
837.993	22843
838.131	23029
838.269	22706
838.406	22896
838.544	22752
838.681	22615
838.819	22615
838.956	22500
839.094	22314
839.231	22333
839.369	22653
839.506	22801
839.643	22603
839.781	22485
839.918	22356
840.055	22276
840.193	22341
840.33	22363
840.467	22341
840.604	22402
840.742	22527
840.879	22249
841.016	22265
841.153	22246
841.29	22512
841.427	22325
841.564	22291
841.701	22352
841.838	22299
841.975	22303
842.112	22242
842.249	22101
842.385	22070
842.522	22276
842.659	22131
842.796	22074
842.933	22246
843.069	22086
843.206	22048
843.343	22246
843.479	22093
843.616	22097
843.752	21930
843.889	21793
844.025	22063
844.162	21956
844.298	22048
844.435	21941
844.571	21899
844.708	21918
844.844	21998
844.98	21987
845.117	21987
845.253	21865
845.389	21823
845.525	21751
845.661	21755
845.798	21644
845.934	21641
846.07	21610
846.206	21580
846.342	21515
846.478	21679
846.614	21424
846.75	21397
846.886	21355
847.022	21386
847.158	21435
847.294	21420
847.429	21329
847.565	21340
847.701	21682
847.837	21043
847.972	21058
848.108	21211
848.244	21264
848.379	21017
848.515	20921
848.65	20960
848.786	20857
848.921	20941
849.057	21005
849.192	21047
849.328	21024
849.463	21074
849.598	20933
849.734	20842
849.869	20838
850.004	20724
850.14	20902
850.275	20659
850.41	20602
850.545	20693
850.68	20659
850.815	20887
850.95	20587
851.085	20914
851.22	20880
851.355	20823
851.49	20800
851.625	20648
851.76	20686
851.895	20743
852.03	20621
852.165	20636
852.299	20823
852.434	20861
852.569	20804
852.703	20655
852.838	20686
852.973	20895
853.107	20861
853.242	20667
853.376	20552
853.511	20606
853.645	20404
853.78	20701
853.914	20632
854.048	20400
854.183	20385
854.317	20526
854.451	20651
854.585	20629
854.72	20556
854.854	20587
854.988	20465
855.122	20446
855.256	20374
855.39	20552
855.524	20712
855.658	20655
855.792	20438
855.926	20488
856.06	20678
856.194	20575
856.327	20503
856.461	20495
856.595	20381
856.729	20575
856.862	20640
856.996	20636
857.13	20663
857.263	20735
857.397	20606
857.53	20507
857.664	20625
857.797	20450
857.931	20655
858.064	20575
858.197	20621
858.331	20514
858.464	20499
858.597	20484
858.731	20530
858.864	20530
858.997	20541
859.13	20533
859.263	20613
859.396	20549
859.529	20476
859.662	20632
859.795	20648
859.928	20522
860.061	20621
860.194	20830
860.327	20568
860.46	20575
860.592	20655
860.725	20598
860.858	20686
860.99	20545
861.123	20492
861.256	20526
861.388	20648
861.521	21291
861.653	20507
861.786	20298
861.918	20374
862.05	20298
862.183	20579
862.315	20514
862.447	20606
862.58	20495
862.712	20214
862.844	20183
862.976	20370
863.108	20351
863.24	20765
863.372	20298
863.504	20248
863.636	20336
863.768	20256
863.9	20298
864.032	20237
864.164	20267
864.296	20256
864.428	20415
864.559	20294
864.691	20347
864.823	20370
864.954	20218
865.086	20366
865.217	20275
865.349	20142
865.48	20218
865.612	20157
865.743	20328
865.875	20301
866.006	20054
866.137	20214
866.269	20199
866.4	20259
866.531	20039
866.662	20035
866.793	20149
866.924	20077
867.055	20206
867.186	20195
867.317	20096
867.448	20031
867.579	20077
867.71	19940
867.841	20005
867.972	20111
868.103	20149
868.233	20214
868.364	20046
868.495	20187
868.625	20389
868.756	20412
868.886	20442
869.017	20320
869.147	20438
869.278	20438
869.408	20415
869.539	20404
869.669	20636
869.799	20404
869.929	20587
870.06	20454
870.19	20693
870.32	20594
870.45	20651
870.58	20754
870.71	20872
870.84	20883
870.97	20674
871.1	20750
871.23	20960
871.36	21047
871.489	20823
871.619	20986
871.749	20967
871.879	20933
872.008	21093
872.138	20975
872.267	20902
872.397	20845
872.526	20842
872.656	20800
872.785	20792
872.915	20963
873.044	21119
873.173	20891
873.303	21036
873.432	20956
873.561	21089
873.69	21009
873.819	20979
873.948	20960
874.077	20986
874.206	20910
874.335	21017
874.464	21184
874.593	21173
874.722	21116
874.851	21230
874.979	21245
875.108	21313
875.237	21138
875.365	21184
875.494	21226
875.623	21173
875.751	21207
875.88	21408
876.008	21408
876.136	21447
876.265	21690
876.393	21778
876.521	21732
876.65	21770
876.778	21644
876.906	21504
877.034	21534
877.162	21637
877.29	21591
877.418	21564
877.546	21507
877.674	21576
877.802	21553
877.93	21595
878.058	21622
878.185	21431
878.313	21557
878.441	21500
878.568	21477
878.696	21462
878.824	21644
878.951	21671
879.079	21797
879.206	21903
879.333	21785
879.461	21564
879.588	21751
879.715	21808
879.842	21880
879.97	21667
880.097	21496
880.224	21325
880.351	21462
880.478	21420
880.605	21329
880.732	21473
880.859	21629
880.986	21431
881.112	21511
881.239	21355
881.366	21154
881.493	21081
881.619	20944
881.746	20921
881.872	21142
881.999	20998
882.125	20929
882.252	21039
882.378	21070
882.505	21077
882.631	20921
882.757	20746
882.883	20800
883.01	20667
883.136	20765
883.262	20640
883.388	20629
883.514	20788
883.64	20792
883.766	20629
883.892	20465
884.018	20495
884.143	20686
884.269	20735
884.395	20423
884.52	20385
884.646	20339
884.772	20332
884.897	20225
885.023	20339
885.148	20381
885.274	20469
885.399	20412
885.524	20461
885.65	20412
885.775	20309
885.9	20366
886.025	20454
886.15	20389
886.275	20210
886.4	20252
886.525	20301
886.65	20419
886.775	20237
886.9	20301
887.025	20415
887.149	20355
887.274	20161
887.399	20237
887.523	20157
887.648	20088
887.773	20001
887.897	20107
888.021	20138
888.146	20062
888.27	20328
888.395	20164
888.519	20153
888.643	20214
888.767	20157
888.891	20054
889.015	19951
889.139	19890
889.263	19849
889.387	20092
889.511	20180
889.635	20100
889.759	19879
889.883	19936
890.006	20043
890.13	20001
890.254	19818
890.377	19719
890.501	19670
890.624	19662
890.748	19811
890.871	19518
890.995	19411
891.118	19369
891.241	19548
891.364	19552
891.488	19613
891.611	19708
891.734	19499
891.857	19514
891.98	19601
892.103	19563
892.226	19464
892.349	19552
892.471	19301
892.594	19350
892.717	19354
892.839	19434
892.962	19460
893.085	19415
893.207	19422
893.33	19263
893.452	19403
893.575	19441
893.697	19411
893.819	19559
893.941	19609
894.064	19521
894.186	19285
894.308	19304
894.43	19464
894.552	19525
894.674	19480
894.796	19335
894.918	19445
895.04	19449
895.161	19518
895.283	19468
895.405	19320
895.526	19377
895.648	19381
895.769	19350
895.891	19419
896.012	19506
896.134	19559
896.255	19426
896.376	19384
896.498	19438
896.619	19457
896.74	19430
896.861	19518
896.982	19750
897.103	19856
897.224	19719
897.345	19658
897.466	19647
897.587	19521
897.708	19841
897.828	19609
897.949	19586
898.07	19502
898.19	19529
898.311	19753
898.431	19662
898.552	19681
898.672	19723
898.792	19674
898.913	19624
899.033	19487
899.153	19468
899.273	19346
899.393	19381
899.513	19407
899.633	19377
899.753	19476
899.873	19559
899.993	19464
900.113	19308
900.232	19449
900.352	19354
900.472	19285
900.591	19198
900.711	19190
900.83	19110
900.95	19251
901.069	19304
901.189	19004
901.308	18825
901.427	18863
901.546	18798
901.665	18878
901.784	18760
901.904	18810
902.023	18635
902.141	18353
902.26	18346
902.379	18372
902.498	18365
902.617	18330
902.735	18464
902.854	18281
902.973	18285
903.091	17973
903.21	18003
903.328	18026
903.446	17897
903.565	17817
903.683	17813
903.801	17714
903.919	17741
904.038	17775
904.156	17737
904.274	17668
904.392	17551
904.51	17596
904.627	17615
904.745	17691
904.863	17581
904.981	17345
905.098	17239
905.216	17227
905.334	17288
905.451	17311
905.569	17258
905.686	17315
905.803	17288
905.921	17083
906.038	17128
906.155	17090
906.272	16980
906.389	17136
906.506	16717
906.623	16812
906.74	16824
906.857	16698
906.974	16679
907.091	16774
907.208	16957
907.324	16797
907.441	16622
907.557	16535
907.674	16500
907.79	16535
907.907	16474
908.023	16626
908.139	16565
908.256	16398
908.372	16447
908.488	16394
908.604	16230
908.72	16223
908.836	16287
908.952	16128
909.068	16272
909.184	16402
909.3	16215
909.415	16253
909.531	16196
909.647	15960
909.762	16048
909.878	15953
909.993	15972
910.108	16013
910.224	15987
910.339	15975
910.454	15831
910.57	15808
910.685	15774
910.8	16006
910.915	15915
911.03	15736
911.145	15534
911.259	15591
911.374	15545
911.489	15443
911.604	15523
911.718	15378
911.833	15283
911.947	15237
912.062	15173
912.176	15306
912.291	15321
912.405	15287
912.519	15431
912.633	15511
912.748	15378
912.862	15157
912.976	15161
913.09	15070
913.204	15051
913.318	15116
913.431	15226
913.545	15203
913.659	15211
913.772	15192
913.886	14887
914	14842
914.113	15127
914.226	15089
914.34	15024
914.453	14777
914.566	14967
914.68	14842
914.793	14800
914.906	14724
915.019	14606
915.132	14610
915.245	14579
915.358	14602
915.47	14537
915.583	14514
915.696	14674
915.809	14682
915.921	14716
916.034	14545
916.146	14503
916.259	14450
916.371	14613
916.483	14552
916.595	14396
916.708	14560
916.82	14465
916.932	14431
917.044	14328
917.156	14332
917.268	14191
917.38	14252
917.491	14305
917.603	14343
917.715	14336
917.826	14423
917.938	14168
918.049	14191
918.161	14237
918.272	14442
918.384	14229
918.495	14115
918.606	14031
918.717	13978
918.828	14054
918.939	14088
919.05	13909
919.161	13921
919.272	13814
919.383	13928
919.494	14016
919.604	14282
919.715	14020
919.826	13955
919.936	13997
920.047	14039
920.157	13986
920.267	14134
920.378	14043
920.488	13871
920.598	14081
920.708	14290
920.818	14088
920.928	14130
921.038	14290
921.148	14286
921.258	14062
921.368	13883
921.477	13788
921.587	13696
921.697	13647
921.806	13731
921.916	13575
922.025	13388
922.134	13358
922.244	13365
922.353	13365
922.462	13304
922.571	13251
922.68	13042
922.789	13072
922.898	13038
923.007	12935
923.116	13038
923.224	13019
923.333	13076
923.442	12878
923.55	12913
923.659	12856
923.767	13012
923.876	12863
923.984	12859
924.092	12859
924.201	12772
924.309	12825
924.417	12829
924.525	12859
924.633	12768
924.741	13495
924.849	12517
924.956	12753
925.064	12498
925.172	12429
925.279	12471
925.387	12452
925.494	12483
925.602	12631
925.709	12578
925.816	12426
925.924	12391
926.031	12574
926.138	12410
926.245	12433
926.352	12311
926.459	12418
926.566	12452
926.673	12407
926.779	12285
926.886	12136
926.993	12083
927.099	12152
927.206	12159
927.312	11969
927.419	12072
927.525	12114
927.631	12030
927.737	11980
927.843	11969
927.95	11809
928.056	11916
928.162	11901
928.267	11901
928.373	12574
928.479	11996
928.585	11764
928.69	11821
928.796	11923
928.901	11817
929.007	11596
929.112	11786
929.218	11672
929.323	11604
929.428	11649
929.533	11832
929.638	11577
929.743	11554
929.848	11566
929.953	11665
930.058	11512
930.163	11376
930.267	11341
930.372	11509
930.477	11292
930.581	11471
930.685	11334
930.79	11231
930.894	11197
930.998	11189
931.103	11402
931.207	10976
931.311	10927
931.415	10828
931.519	10615
931.623	10558
