Data from test_V78500241_1822.txt Node
Date: Fri Mar 25 15:22:32 CST 2022
User: usil
Spectrometer: V785-0024
Trigger mode: 0
Integration Time (sec): 4.000000E-1
Scans to average: 1
Nonlinearity correction enabled: false
Boxcar width: 0
Storing dark spectrum: false
XAxis mode: Wavelengths
Number of Pixels in Spectrum: 1024
>>>>>Begin Spectral Data<<<<<
801.071	27838
801.214	27838
801.356	27724
801.499	27530
801.641	27310
801.783	27454
801.926	27587
802.068	27310
802.211	27214
802.353	27146
802.496	27043
802.638	26960
802.78	27062
802.923	26864
803.065	26834
803.208	26986
803.35	27081
803.492	27062
803.635	27329
803.777	26960
803.919	27214
804.061	27496
804.204	27351
804.346	27188
804.488	27169
804.63	27184
804.773	27100
804.915	27237
805.057	27340
805.199	27367
805.341	27283
805.483	27348
805.626	27359
805.768	27336
805.91	27424
806.052	27260
806.194	27192
806.336	27557
806.478	27389
806.62	27370
806.762	27492
806.904	27580
807.046	27857
807.188	27880
807.33	27660
807.472	27797
807.614	27671
807.756	27694
807.898	27644
808.04	27572
808.182	27682
808.324	27709
808.465	27667
808.607	27854
808.749	28029
808.891	28021
809.033	28044
809.174	28017
809.316	28013
809.458	27975
809.6	28002
809.741	28032
809.883	28086
810.025	28147
810.166	28219
810.308	28162
810.45	28188
810.591	28078
810.733	27941
810.875	27926
811.016	27835
811.158	27850
811.299	27991
811.441	28074
811.582	28059
811.724	28036
811.865	27838
812.007	27895
812.148	27861
812.29	27914
812.431	28006
812.573	28223
812.714	28310
812.855	28440
812.997	28500
813.138	28611
813.279	28641
813.421	28459
813.562	28512
813.703	28344
813.845	28211
813.986	27934
814.127	27831
814.268	27690
814.41	27690
814.551	27595
814.692	27720
814.833	27504
814.974	27553
815.115	27759
815.256	27458
815.397	27496
815.539	27591
815.68	27591
815.821	27450
815.962	27538
816.103	27568
816.244	27245
816.385	27370
816.526	27211
816.666	26982
816.807	26967
816.948	26967
817.089	27047
817.23	26880
817.371	26804
817.512	26918
817.653	26956
817.793	26876
817.934	26902
818.075	26895
818.216	26849
818.356	26906
818.497	26621
818.638	26674
818.778	26712
818.919	26754
819.06	26937
819.2	26838
819.341	26982
819.481	26971
819.622	27039
819.762	27173
819.903	27230
820.043	27043
820.184	27169
820.324	27150
820.465	27039
820.605	26994
820.746	27024
820.886	26864
821.026	27089
821.167	27020
821.307	27112
821.447	26834
821.588	26876
821.728	26743
821.868	26495
822.008	26419
822.149	26381
822.289	26442
822.429	26191
822.569	26035
822.709	26084
822.849	25852
822.99	25989
823.13	25951
823.27	25913
823.41	25856
823.55	25677
823.69	25586
823.83	25700
823.97	25685
824.11	25548
824.25	25578
824.389	25472
824.529	25708
824.669	25487
824.809	25731
824.949	25655
825.089	25506
825.228	25582
825.368	25468
825.508	25327
825.648	25419
825.787	25407
825.927	25438
826.067	25304
826.206	25407
826.346	25457
826.485	25384
826.625	25453
826.765	25613
826.904	25426
827.044	25160
827.183	25236
827.323	25050
827.462	25266
827.601	25266
827.741	25076
827.88	25206
828.02	25110
828.159	25099
828.298	25114
828.437	25259
828.577	24951
828.716	25141
828.855	25008
828.994	24890
829.134	24916
829.273	24928
829.412	24707
829.551	24791
829.69	24738
829.829	24840
829.968	25031
830.107	24848
830.246	24848
830.385	24738
830.524	24753
830.663	24627
830.802	24540
830.941	24452
831.08	24414
831.219	24578
831.357	24566
831.496	24669
831.635	24574
831.774	24547
831.913	24350
832.051	24174
832.19	24300
832.329	24350
832.467	24213
832.606	24144
832.744	24095
832.883	24152
833.022	24053
833.16	24216
833.299	24243
833.437	24125
833.576	24258
833.714	24194
833.852	24281
833.991	24243
834.129	24235
834.267	24353
834.406	24220
834.544	24289
834.682	24194
834.821	24159
834.959	24311
835.097	24136
835.235	24235
835.373	24224
835.511	24159
835.65	24045
835.788	24194
835.926	24045
836.064	23779
836.202	23847
836.34	24026
836.478	24228
836.615	24049
836.753	24095
836.891	24125
837.029	24136
837.167	24079
837.305	23950
837.443	23885
837.58	23802
837.718	24015
837.856	23843
837.993	23828
838.131	23912
838.269	23840
838.406	23817
838.544	23783
838.681	23619
838.819	23486
838.956	23353
839.094	23376
839.231	23391
839.369	23497
839.506	23893
839.643	23733
839.781	23429
839.918	23284
840.055	23482
840.193	23353
840.33	23383
840.467	23189
840.604	23398
840.742	23600
840.879	23162
841.016	23025
841.153	23086
841.29	23303
841.427	23326
841.564	23322
841.701	23322
841.838	23185
841.975	23189
842.112	23170
842.249	23086
842.385	22991
842.522	23254
842.659	23086
842.796	23098
842.933	23117
843.069	22927
843.206	23010
843.343	23048
843.479	23140
843.616	23117
843.752	22850
843.889	22877
844.025	23033
844.162	22904
844.298	23083
844.435	22721
844.571	22812
844.708	22850
844.844	22984
844.98	22873
845.117	22911
845.253	22713
845.389	22752
845.525	22771
845.661	22717
845.798	22504
845.934	22675
846.07	22550
846.206	22557
846.342	22630
846.478	22546
846.614	22341
846.75	22268
846.886	22356
847.022	22409
847.158	22325
847.294	22360
847.429	22417
847.565	22360
847.701	22531
847.837	22006
847.972	22078
848.108	22086
848.244	22116
848.379	21892
848.515	21880
848.65	21960
848.786	21869
848.921	21983
849.057	22055
849.192	21960
849.328	21892
849.463	21785
849.598	21869
849.734	21895
849.869	21793
850.004	21591
850.14	21625
850.275	21694
850.41	21496
850.545	21542
850.68	21637
850.815	21743
850.95	21660
851.085	21766
851.22	21770
851.355	21682
851.49	21629
851.625	21622
851.76	21660
851.895	21530
852.03	21561
852.165	21610
852.299	21629
852.434	21717
852.569	21709
852.703	21686
852.838	21644
852.973	21736
853.107	21819
853.242	21572
853.376	21462
853.511	21450
853.645	21450
853.78	21557
853.914	21511
854.048	21458
854.183	21511
854.317	21469
854.451	21641
854.585	21572
854.72	21424
854.854	21576
854.988	21428
855.122	21549
855.256	21351
855.39	21481
855.524	21618
855.658	21504
855.792	21622
855.926	21519
856.06	21504
856.194	21561
856.327	21473
856.461	21412
856.595	21481
856.729	21416
856.862	21629
856.996	21431
857.13	21462
857.263	21660
857.397	21637
857.53	21336
857.664	21523
857.797	21622
857.931	21622
858.064	21534
858.197	21515
858.331	21500
858.464	21447
858.597	21424
858.731	21462
858.864	21367
858.997	21443
859.13	21416
859.263	21492
859.396	21610
859.529	21526
859.662	21408
859.795	21367
859.928	21591
860.061	21580
860.194	21633
860.327	21530
860.46	21591
860.592	21599
860.725	21656
860.858	21580
860.99	21466
861.123	21431
861.256	21462
861.388	21351
861.521	22025
861.653	21382
861.786	21279
861.918	21374
862.05	21317
862.183	21450
862.315	21428
862.447	21557
862.58	21302
862.712	21241
862.844	21116
862.976	21310
863.108	21275
863.24	21599
863.372	21127
863.504	21214
863.636	21150
863.768	21233
863.9	21203
864.032	21085
864.164	21154
864.296	21199
864.428	21294
864.559	21146
864.691	21245
864.823	21211
864.954	21138
865.086	21203
865.217	21123
865.349	21043
865.48	20967
865.612	21100
865.743	21150
865.875	21081
866.006	20994
866.137	21108
866.269	21024
866.4	21100
866.531	20868
866.662	21017
866.793	20971
866.924	21043
867.055	21047
867.186	21108
867.317	21058
867.448	20842
867.579	20880
867.71	20880
867.841	20830
867.972	21093
868.103	21119
868.233	20967
868.364	21005
868.495	21043
868.625	21287
868.756	21424
868.886	21135
869.017	21233
869.147	21264
869.278	21294
869.408	21230
869.539	21275
869.669	21332
869.799	21325
869.929	21386
870.06	21313
870.19	21568
870.32	21625
870.45	21591
870.58	21644
870.71	21759
870.84	21724
870.97	21595
871.1	21667
871.23	21876
871.36	21899
871.489	21861
871.619	21785
871.749	21812
871.879	21956
872.008	21888
872.138	21808
872.267	21854
872.397	21637
872.526	21641
872.656	21690
872.785	21610
872.915	21770
873.044	21960
873.173	21846
873.303	21892
873.432	21941
873.561	21949
873.69	21907
873.819	21899
873.948	21975
874.077	21816
874.206	21835
874.335	21945
874.464	22074
874.593	22093
874.722	21854
874.851	22192
874.979	22166
875.108	22025
875.237	22017
875.365	22135
875.494	21956
875.623	22051
875.751	22013
875.88	22013
876.008	22204
876.136	22246
876.265	22451
876.393	22603
876.521	22550
876.65	22607
876.778	22440
876.906	22436
877.034	22542
877.162	22432
877.29	22386
877.418	22504
877.546	22409
877.674	22367
877.802	22478
877.93	22360
878.058	22440
878.185	22303
878.313	22440
878.441	22413
878.568	22139
878.696	22470
878.824	22485
878.951	22417
879.079	22504
879.206	22721
879.333	22618
879.461	22542
879.588	22500
879.715	22687
879.842	22740
879.97	22432
880.097	22325
880.224	22306
880.351	22371
880.478	22291
880.605	22268
880.732	22181
880.859	22485
880.986	22394
881.112	22303
881.239	22230
881.366	21968
881.493	21953
881.619	21816
881.746	21861
881.872	21800
881.999	21819
882.125	21698
882.252	21778
882.378	21698
882.505	21873
882.631	21686
882.757	21561
882.883	21526
883.01	21561
883.136	21466
883.262	21431
883.388	21408
883.514	21519
883.64	21526
883.766	21431
883.892	21203
884.018	21310
884.143	21428
884.269	21496
884.395	21230
884.52	21192
884.646	21127
884.772	21062
884.897	21024
885.023	21226
885.148	21230
885.274	21401
885.399	21218
885.524	21161
885.65	21173
885.775	21241
885.9	21165
886.025	21329
886.15	21321
886.275	21157
886.4	21100
886.525	21028
886.65	21146
886.775	21024
886.9	21344
887.025	21439
887.149	21245
887.274	20982
887.399	20948
887.523	21009
887.648	20899
887.773	20895
887.897	21036
888.021	21013
888.146	20910
888.27	21112
888.395	20998
888.519	20975
888.643	20975
888.767	21028
888.891	20982
889.015	20743
889.139	20838
889.263	20777
889.387	20811
889.511	20883
889.635	20735
889.759	20727
889.883	20655
890.006	20716
890.13	20765
890.254	20754
890.377	20583
890.501	20609
890.624	20480
890.748	20549
890.871	20427
890.995	20355
891.118	20256
891.241	20252
891.364	20282
891.488	20450
891.611	20282
891.734	20282
891.857	20320
891.98	20358
892.103	20339
892.226	20393
892.349	20267
892.471	20092
892.594	20446
892.717	20298
892.839	20145
892.962	20256
893.085	20374
893.207	20153
893.33	20096
893.452	20027
893.575	20214
893.697	20210
893.819	20332
893.941	20358
894.064	20252
894.186	20138
894.308	20039
894.43	20351
894.552	20332
894.674	20317
894.796	20046
894.918	20214
895.04	20206
895.161	20199
895.283	20172
895.405	20069
895.526	20149
895.648	20145
895.769	20157
895.891	20290
896.012	20362
896.134	20221
896.255	20168
896.376	20126
896.498	20210
896.619	20267
896.74	20248
896.861	20278
896.982	20537
897.103	20606
897.224	20438
897.345	20362
897.466	20275
897.587	20530
897.708	20564
897.828	20404
897.949	20294
898.07	20370
898.19	20419
898.311	20400
898.431	20301
898.552	20320
898.672	20537
898.792	20415
898.913	20412
899.033	20252
899.153	20221
899.273	20130
899.393	20290
899.513	20275
899.633	20031
899.753	20100
899.873	20073
899.993	20164
900.113	20103
900.232	20084
900.352	20058
900.472	19967
900.591	19811
900.711	19868
900.83	19826
900.95	19906
901.069	20031
901.189	19890
901.308	19575
901.427	19476
901.546	19514
901.665	19575
901.784	19483
901.904	19381
902.023	19236
902.141	19023
902.26	19050
902.379	19145
902.498	19057
902.617	19027
902.735	19187
902.854	19057
902.973	19099
903.091	18711
903.21	18681
903.328	18772
903.446	18681
903.565	18403
903.683	18403
903.801	18350
903.919	18494
904.038	18502
904.156	18311
904.274	18410
904.392	18273
904.51	18292
904.627	18254
904.745	18251
904.863	18243
904.981	18110
905.098	17863
905.216	17946
905.334	18022
905.451	17996
905.569	17866
905.686	18045
905.803	17923
905.921	17707
906.038	17805
906.155	17661
906.272	17528
906.389	17691
906.506	17414
906.623	17581
906.74	17490
906.857	17364
906.974	17379
907.091	17547
907.208	17535
907.324	17493
907.441	17379
907.557	17250
907.674	17197
907.79	17227
907.907	17220
908.023	17269
908.139	17269
908.256	17261
908.372	17079
908.488	17045
908.604	16980
908.72	16839
908.836	16938
908.952	16869
909.068	16881
909.184	17045
909.3	16885
909.415	16938
909.531	16938
909.647	16698
909.762	16630
909.878	16599
909.993	16649
910.108	16569
910.224	16516
910.339	16603
910.454	16360
910.57	16546
910.685	16421
910.8	16702
910.915	16561
911.03	16386
911.145	16226
911.259	16207
911.374	16116
911.489	16128
911.604	16131
911.718	15903
911.833	15850
911.947	15899
912.062	15739
912.176	15937
912.291	15903
912.405	15903
912.519	16032
912.633	16101
912.748	15968
912.862	15899
912.976	15675
913.09	15667
913.204	15705
913.318	15819
913.431	15823
913.545	15701
913.659	15884
913.772	15766
913.886	15568
914	15587
914.113	15705
914.226	15679
914.34	15709
914.453	15382
914.566	15633
914.68	15401
914.793	15469
914.906	15329
915.019	15150
915.132	15184
915.245	15089
915.358	15237
915.47	15157
915.583	15165
915.696	15138
915.809	15207
915.921	15329
916.034	15116
916.146	15051
916.259	15127
916.371	15135
916.483	15161
916.595	15051
916.708	14971
916.82	15077
916.932	14918
917.044	14963
917.156	14963
917.268	14849
917.38	14804
917.491	14842
917.603	14902
917.715	14921
917.826	14906
917.938	14716
918.049	14720
918.161	14804
918.272	14838
918.384	14823
918.495	14735
918.606	14613
918.717	14575
918.828	14530
918.939	14549
919.05	14495
919.161	14495
919.272	14343
919.383	14469
919.494	14492
919.604	14773
919.715	14670
919.826	14556
919.936	14507
920.047	14583
920.157	14511
920.267	14769
920.378	14552
920.488	14537
920.598	14644
920.708	14788
920.818	14667
920.928	14727
921.038	14842
921.148	14781
921.258	14438
921.368	14339
921.477	14396
921.587	14244
921.697	14084
921.806	14294
921.916	14157
922.025	14046
922.134	13822
922.244	13883
922.353	13970
922.462	13799
922.571	13852
922.68	13624
922.789	13552
922.898	13647
923.007	13529
923.116	13624
923.224	13544
923.333	13537
923.442	13415
923.55	13362
923.659	13388
923.767	13449
923.876	13403
923.984	13396
924.092	13247
924.201	13346
924.309	13316
924.417	13308
924.525	13164
924.633	13232
924.741	14206
924.849	13061
924.956	13110
925.064	13019
925.172	12890
925.279	12989
925.387	13046
925.494	12985
925.602	13133
925.709	12981
925.816	12878
925.924	12958
926.031	13015
926.138	12863
926.245	12859
926.352	12802
926.459	12947
926.566	12989
926.673	12897
926.779	12726
926.886	12779
926.993	12555
927.099	12494
927.206	12486
927.312	12486
927.419	12608
927.525	12486
927.631	12566
927.737	12445
927.843	12308
927.95	12235
928.056	12357
928.162	12350
928.267	12380
928.373	13038
928.479	12456
928.585	12201
928.69	12311
928.796	12357
928.901	12148
929.007	12045
929.112	12243
929.218	12114
929.323	12076
929.428	12121
929.533	12216
929.638	12022
929.743	12117
929.848	12152
929.953	12072
930.058	11832
930.163	11855
930.267	11859
930.372	11866
930.477	11764
930.581	11958
930.685	11832
930.79	11661
930.894	11627
930.998	11611
931.103	11786
931.207	11330
931.311	11326
931.415	11231
931.519	11041
931.623	10968
