Data from test_V78500241_3006.txt Node
Date: Fri Mar 25 15:30:47 CST 2022
User: usil
Spectrometer: V785-0024
Trigger mode: 0
Integration Time (sec): 4.000000E-1
Scans to average: 1
Nonlinearity correction enabled: false
Boxcar width: 0
Storing dark spectrum: false
XAxis mode: Wavelengths
Number of Pixels in Spectrum: 1024
>>>>>Begin Spectral Data<<<<<
801.071	27298
801.214	27058
801.356	27047
801.499	26830
801.641	26929
801.783	26769
801.926	26994
802.068	26800
802.211	26754
802.353	26556
802.496	26476
802.638	26473
802.78	26431
802.923	26370
803.065	26107
803.208	26343
803.35	26393
803.492	26621
803.635	26667
803.777	26423
803.919	26606
804.061	26876
804.204	26613
804.346	26499
804.488	26400
804.63	26598
804.773	26400
804.915	26556
805.057	26708
805.199	26514
805.341	26697
805.483	26720
805.626	26667
805.768	26602
805.91	26632
806.052	26697
806.194	26606
806.336	26750
806.478	26743
806.62	26602
806.762	26686
806.904	26918
807.046	27085
807.188	27051
807.33	27043
807.472	27165
807.614	26994
807.756	26979
807.898	26963
808.04	26902
808.182	26758
808.324	26929
808.465	26883
808.607	27062
808.749	27226
808.891	27386
809.033	27393
809.174	27378
809.316	27306
809.458	27188
809.6	27249
809.741	27458
809.883	27447
810.025	27504
810.166	27450
810.308	27511
810.45	27492
810.591	27443
810.733	27367
810.875	27203
811.016	27108
811.158	27066
811.299	27370
811.441	27302
811.582	27401
811.724	27302
811.865	27264
812.007	27268
812.148	27226
812.29	27355
812.431	27473
812.573	27561
812.714	27656
812.855	27686
812.997	27914
813.138	28032
813.279	27865
813.421	27717
813.562	27701
813.703	27557
813.845	27488
813.986	27089
814.127	26937
814.268	26929
814.41	26956
814.551	26925
814.692	26899
814.833	26796
814.974	26777
815.115	26982
815.256	26758
815.397	26899
815.539	26788
815.68	26678
815.821	26499
815.962	26556
816.103	26712
816.244	26518
816.385	26389
816.526	26564
816.666	26282
816.807	26043
816.948	26244
817.089	26355
817.23	26252
817.371	26309
817.512	26084
817.653	26050
817.793	26115
817.934	26176
818.075	26229
818.216	26195
818.356	26183
818.497	26069
818.638	25841
818.778	25902
818.919	25818
819.06	26005
819.2	26115
819.341	26183
819.481	26103
819.622	26263
819.762	26476
819.903	26434
820.043	26317
820.184	26332
820.324	26282
820.465	26370
820.605	26286
820.746	26339
820.886	26046
821.026	26138
821.167	26183
821.307	26294
821.447	26168
821.588	26054
821.728	25959
821.868	25845
822.008	25662
822.149	25731
822.289	25582
822.429	25358
822.569	25499
822.709	25335
822.849	25350
822.99	25312
823.13	25103
823.27	25015
823.41	24928
823.55	24916
823.69	25023
823.83	24928
823.97	24871
824.11	24745
824.25	24627
824.389	24779
824.529	24859
824.669	24856
824.809	24992
824.949	24878
825.089	24802
825.228	24833
825.368	24795
825.508	24612
825.648	24700
825.787	24700
825.927	24707
826.067	24559
826.206	24544
826.346	24749
826.485	24703
826.625	24646
826.765	24798
826.904	24631
827.044	24502
827.183	24490
827.323	24429
827.462	24330
827.601	24418
827.741	24254
827.88	24258
828.02	24239
828.159	24342
828.298	24456
828.437	24437
828.577	24243
828.716	24437
828.855	24254
828.994	24114
829.134	24018
829.273	24140
829.412	24045
829.551	23946
829.69	24171
829.829	24121
829.968	24235
830.107	24190
830.246	24155
830.385	23942
830.524	23999
830.663	23977
830.802	23699
830.941	23733
831.08	23547
831.219	23824
831.357	23798
831.496	23847
831.635	23726
831.774	23528
831.913	23512
832.051	23448
832.19	23429
832.329	23395
832.467	23326
832.606	23299
832.744	23292
832.883	23181
833.022	23220
833.16	23296
833.299	23383
833.437	23395
833.576	23406
833.714	23372
833.852	23356
833.991	23520
834.129	23520
834.267	23455
834.406	23402
834.544	23425
834.682	23372
834.821	23452
834.959	23402
835.097	23360
835.235	23474
835.373	23486
835.511	23474
835.65	23060
835.788	23216
835.926	23006
836.064	22995
836.202	23025
836.34	23185
836.478	23292
836.615	23060
836.753	23189
836.891	23220
837.029	23277
837.167	23265
837.305	23121
837.443	23124
837.58	23090
837.718	23178
837.856	23033
837.993	23006
838.131	23067
838.269	23018
838.406	23052
838.544	22835
838.681	22679
838.819	22721
838.956	22618
839.094	22584
839.231	22531
839.369	22824
839.506	22862
839.643	22782
839.781	22462
839.918	22508
840.055	22615
840.193	22519
840.33	22470
840.467	22542
840.604	22557
840.742	22782
840.879	22451
841.016	22322
841.153	22306
841.29	22470
841.427	22489
841.564	22474
841.701	22371
841.838	22428
841.975	22382
842.112	22352
842.249	22318
842.385	22215
842.522	22421
842.659	22348
842.796	22284
842.933	22246
843.069	22196
843.206	22150
843.343	22287
843.479	22063
843.616	22226
843.752	22101
843.889	22029
844.025	22006
844.162	22036
844.298	21975
844.435	22067
844.571	21934
844.708	22021
844.844	22116
844.98	22082
845.117	22150
845.253	21846
845.389	21934
845.525	21888
845.661	21934
845.798	21519
845.934	21800
846.07	21717
846.206	21846
846.342	21934
846.478	21625
846.614	21576
846.75	21443
846.886	21287
847.022	21458
847.158	21644
847.294	21431
847.429	21348
847.565	21477
847.701	21743
847.837	21211
847.972	21249
848.108	21332
848.244	21233
848.379	21123
848.515	21055
848.65	21024
848.786	21081
848.921	21165
849.057	21142
849.192	21237
849.328	21093
849.463	21055
849.598	20990
849.734	20883
849.869	20937
850.004	20845
850.14	20910
850.275	20823
850.41	20708
850.545	20689
850.68	20773
850.815	20876
850.95	20819
851.085	20952
851.22	20975
851.355	20849
851.49	20838
851.625	20807
851.76	20880
851.895	20807
852.03	20788
852.165	20883
852.299	20868
852.434	20990
852.569	20807
852.703	20845
852.838	20918
852.973	20914
853.107	20963
853.242	20819
853.376	20583
853.511	20473
853.645	20571
853.78	20632
853.914	20682
854.048	20583
854.183	20697
854.317	20667
854.451	20876
854.585	20712
854.72	20701
854.854	20712
854.988	20530
855.122	20674
855.256	20670
855.39	20670
855.524	20804
855.658	20746
855.792	20777
855.926	20670
856.06	20693
856.194	20731
856.327	20727
856.461	20568
856.595	20514
856.729	20564
856.862	20792
856.996	20682
857.13	20708
857.263	20655
857.397	20804
857.53	20629
857.664	20629
857.797	20670
857.931	20857
858.064	20689
858.197	20788
858.331	20682
858.464	20686
858.597	20636
858.731	20678
858.864	20693
858.997	20537
859.13	20701
859.263	20746
859.396	20693
859.529	20651
859.662	20533
859.795	20636
859.928	20750
860.061	20838
860.194	20686
860.327	20758
860.46	20598
860.592	20754
860.725	20762
860.858	20743
860.99	20758
861.123	20625
861.256	20579
861.388	20644
861.521	21226
861.653	20549
861.786	20526
861.918	20492
862.05	20507
862.183	20533
862.315	20598
862.447	20541
862.58	20541
862.712	20454
862.844	20286
862.976	20564
863.108	20503
863.24	20853
863.372	20313
863.504	20400
863.636	20347
863.768	20400
863.9	20419
864.032	20240
864.164	20431
864.296	20343
864.428	20442
864.559	20556
864.691	20396
864.823	20450
864.954	20336
865.086	20381
865.217	20370
865.349	20195
865.48	20248
865.612	20294
865.743	20438
865.875	20275
866.006	20309
866.137	20366
866.269	20206
866.4	20339
866.531	20259
866.662	20062
866.793	20233
866.924	20199
867.055	20336
867.186	20229
867.317	20313
867.448	20126
867.579	20172
867.71	20168
867.841	20176
867.972	20328
868.103	20244
868.233	20199
868.364	20252
868.495	20301
868.625	20454
868.756	20625
868.886	20381
869.017	20450
869.147	20533
869.278	20583
869.408	20560
869.539	20465
869.669	20469
869.799	20526
869.929	20541
870.06	20545
870.19	20777
870.32	20724
870.45	20773
870.58	20842
870.71	20944
870.84	20838
870.97	20868
871.1	20895
871.23	21157
871.36	21047
871.489	20948
871.619	20975
871.749	21039
871.879	21028
872.008	21146
872.138	21043
872.267	21028
872.397	21028
872.526	20880
872.656	20941
872.785	20849
872.915	21009
873.044	21104
873.173	21142
873.303	21055
873.432	21123
873.561	21287
873.69	21096
873.819	21058
873.948	21146
874.077	21169
874.206	20944
874.335	21100
874.464	21081
874.593	21424
874.722	21241
874.851	21340
874.979	21378
875.108	21302
875.237	21173
875.365	21176
875.494	21393
875.623	21492
875.751	21237
875.88	21340
876.008	21549
876.136	21466
876.265	21682
876.393	21819
876.521	21778
876.65	21686
876.778	21709
876.906	21709
877.034	21709
877.162	21656
877.29	21625
877.418	21637
877.546	21606
877.674	21663
877.802	21682
877.93	21622
878.058	21599
878.185	21519
878.313	21675
878.441	21663
878.568	21378
878.696	21606
878.824	21774
878.951	21846
879.079	21835
879.206	21911
879.333	21797
879.461	21595
879.588	21728
879.715	21698
879.842	21895
879.97	21770
880.097	21557
880.224	21435
880.351	21538
880.478	21462
880.605	21424
880.732	21504
880.859	21660
880.986	21473
881.112	21507
881.239	21408
881.366	21188
881.493	21093
881.619	21081
881.746	21047
881.872	21051
881.999	21013
882.125	21062
882.252	21100
882.378	20975
882.505	21100
882.631	20826
882.757	20781
882.883	20861
883.01	20853
883.136	20701
883.262	20648
883.388	20590
883.514	20785
883.64	20864
883.766	20708
883.892	20499
884.018	20533
884.143	20773
884.269	20800
884.395	20568
884.52	20343
884.646	20503
884.772	20324
884.897	20366
885.023	20351
885.148	20549
885.274	20678
885.399	20488
885.524	20454
885.65	20400
885.775	20499
885.9	20419
886.025	20541
886.15	20389
886.275	20374
886.4	20358
886.525	20499
886.65	20358
886.775	20385
886.9	20526
887.025	20648
887.149	20377
887.274	20240
887.399	20183
887.523	20221
887.648	20172
887.773	20024
887.897	20271
888.021	20286
888.146	20046
888.27	20366
888.395	20267
888.519	20111
888.643	20290
888.767	20210
888.891	20031
889.015	20020
889.139	20221
889.263	19959
889.387	20240
889.511	20180
889.635	20199
889.759	19890
889.883	19841
890.006	20031
890.13	19989
890.254	19997
890.377	19890
890.501	19818
890.624	19776
890.748	19814
890.871	19666
890.995	19563
891.118	19464
891.241	19575
891.364	19586
891.488	19590
891.611	19487
891.734	19506
891.857	19712
891.98	19719
892.103	19567
892.226	19529
892.349	19521
892.471	19464
892.594	19540
892.717	19430
892.839	19457
892.962	19445
893.085	19567
893.207	19483
893.33	19438
893.452	19419
893.575	19563
893.697	19502
893.819	19708
893.941	19731
894.064	19628
894.186	19434
894.308	19502
894.43	19578
894.552	19807
894.674	19647
894.796	19392
894.918	19525
895.04	19403
895.161	19616
895.283	19521
895.405	19373
895.526	19499
895.648	19441
895.769	19525
895.891	19597
896.012	19525
896.134	19681
896.255	19540
896.376	19529
896.498	19480
896.619	19628
896.74	19441
896.861	19559
896.982	19856
897.103	20039
897.224	19814
897.345	19731
897.466	19723
897.587	19681
897.708	19742
897.828	19742
897.949	19613
898.07	19567
898.19	19731
898.311	19734
898.431	19658
898.552	19845
898.672	19780
898.792	19849
898.913	19772
899.033	19658
899.153	19613
899.273	19563
899.393	19544
899.513	19620
899.633	19571
899.753	19476
899.873	19422
899.993	19521
900.113	19491
900.232	19460
900.352	19544
900.472	19270
900.591	19259
900.711	19373
900.83	19240
900.95	19381
901.069	19343
901.189	19152
901.308	19012
901.427	18833
901.546	18894
901.665	18943
901.784	18764
901.904	18734
902.023	18642
902.141	18498
902.26	18467
902.379	18494
902.498	18391
902.617	18323
902.735	18494
902.854	18384
902.973	18353
903.091	18129
903.21	18091
903.328	18072
903.446	18057
903.565	17920
903.683	17973
903.801	17794
903.919	17771
904.038	17802
904.156	17710
904.274	17783
904.392	17627
904.51	17710
904.627	17680
904.745	17661
904.863	17767
904.981	17497
905.098	17353
905.216	17368
905.334	17414
905.451	17360
905.569	17273
905.686	17448
905.803	17280
905.921	17193
906.038	17227
906.155	17143
906.272	16999
906.389	17064
906.506	16866
906.623	16968
906.74	16934
906.857	16763
906.974	16820
907.091	16927
907.208	16900
907.324	16866
907.441	16774
907.557	16554
907.674	16710
907.79	16504
907.907	16538
908.023	16584
908.139	16664
908.256	16512
908.372	16538
908.488	16554
908.604	16417
908.72	16322
908.836	16246
908.952	16246
909.068	16310
909.184	16386
909.3	16363
909.415	16367
909.531	16219
909.647	15987
909.762	15949
909.878	16002
909.993	16010
910.108	15945
910.224	15956
910.339	16063
910.454	15903
910.57	15884
910.685	15800
910.8	16059
910.915	15998
911.03	15869
911.145	15603
911.259	15614
911.374	15576
911.489	15686
911.604	15473
911.718	15336
911.833	15424
911.947	15260
912.062	15298
912.176	15458
912.291	15519
912.405	15439
912.519	15526
912.633	15557
912.748	15431
912.862	15397
912.976	15275
913.09	15108
913.204	15123
913.318	15287
913.431	15264
913.545	15233
913.659	15325
913.772	15131
913.886	15024
914	15009
914.113	15085
914.226	15176
914.34	15097
914.453	14895
914.566	15066
914.68	14861
914.793	14800
914.906	14636
915.019	14606
915.132	14545
915.245	14503
915.358	14689
915.47	14568
915.583	14655
915.696	14644
915.809	14678
915.921	14750
916.034	14564
916.146	14522
916.259	14526
916.371	14613
916.483	14640
916.595	14590
916.708	14457
916.82	14427
916.932	14511
917.044	14442
917.156	14396
917.268	14275
917.38	14336
917.491	14210
917.603	14343
917.715	14385
917.826	14393
917.938	14267
918.049	14081
918.161	14206
918.272	14415
918.384	14328
918.495	14183
918.606	14039
918.717	13928
918.828	14046
918.939	14130
919.05	13970
919.161	14103
919.272	13947
919.383	13875
919.494	14107
919.604	14278
919.715	13978
919.826	13932
919.936	14065
920.047	14168
920.157	13967
920.267	14206
920.378	14069
920.488	14012
920.598	14267
920.708	14423
920.818	14172
920.928	14130
921.038	14351
921.148	14256
921.258	13993
921.368	13849
921.477	13753
921.587	13761
921.697	13632
921.806	13757
921.916	13590
922.025	13464
922.134	13384
922.244	13403
922.353	13514
922.462	13289
922.571	13266
922.68	13110
922.789	13088
922.898	13065
923.007	13042
923.116	13110
923.224	13031
923.333	13061
923.442	13015
923.55	12932
923.659	12871
923.767	13015
923.876	12890
923.984	13000
924.092	12795
924.201	12783
924.309	12954
924.417	12886
924.525	12810
924.633	12783
924.741	13499
924.849	12547
924.956	12696
925.064	12547
925.172	12490
925.279	12464
925.387	12528
925.494	12498
925.602	12551
925.709	12585
925.816	12467
925.924	12418
926.031	12601
926.138	12384
926.245	12509
926.352	12388
926.459	12566
926.566	12604
926.673	12403
926.779	12285
926.886	12213
926.993	12186
927.099	12136
927.206	12095
927.312	12049
927.419	12136
927.525	12091
927.631	12133
927.737	11958
927.843	11927
927.95	11958
928.056	11840
928.162	11920
928.267	12030
928.373	12608
928.479	11977
928.585	11760
928.69	11859
928.796	11950
928.901	11851
929.007	11657
929.112	11805
929.218	11737
929.323	11718
929.428	11733
929.533	11752
929.638	11699
929.743	11604
929.848	11672
929.953	11600
930.058	11543
930.163	11356
930.267	11410
930.372	11570
930.477	11273
930.581	11623
930.685	11349
930.79	11265
930.894	11296
930.998	11227
931.103	11421
931.207	11029
931.311	10904
931.415	10892
931.519	10607
931.623	10588
