Data from test_V78500241_536.txt Node
Date: Fri Mar 25 15:13:35 CST 2022
User: usil
Spectrometer: V785-0024
Trigger mode: 0
Integration Time (sec): 4.000000E-1
Scans to average: 1
Nonlinearity correction enabled: false
Boxcar width: 0
Storing dark spectrum: false
XAxis mode: Wavelengths
Number of Pixels in Spectrum: 1024
>>>>>Begin Spectral Data<<<<<
801.071	27252
801.214	27294
801.356	27127
801.499	26994
801.641	26918
801.783	26857
801.926	26921
802.068	26785
802.211	26853
802.353	26617
802.496	26674
802.638	26583
802.78	26590
802.923	26442
803.065	26442
803.208	26663
803.35	26590
803.492	26708
803.635	26621
803.777	26609
803.919	26686
804.061	26998
804.204	26629
804.346	26682
804.488	26632
804.63	26632
804.773	26583
804.915	26625
805.057	26807
805.199	26746
805.341	26678
805.483	26804
805.626	26838
805.768	26606
805.91	26724
806.052	26781
806.194	26826
806.336	26921
806.478	26765
806.62	26849
806.762	26891
806.904	27047
807.046	27275
807.188	27344
807.33	27195
807.472	27226
807.614	27093
807.756	27226
807.898	26929
808.04	26963
808.182	26872
808.324	26975
808.465	27123
808.607	27142
808.749	27397
808.891	27447
809.033	27603
809.174	27348
809.316	27427
809.458	27473
809.6	27359
809.741	27694
809.883	27477
810.025	27671
810.166	27755
810.308	27842
810.45	27568
810.591	27701
810.733	27496
810.875	27393
811.016	27245
811.158	27180
811.299	27458
811.441	27542
811.582	27549
811.724	27325
811.865	27260
812.007	27412
812.148	27279
812.29	27363
812.431	27412
812.573	27743
812.714	27800
812.855	27888
812.997	27831
813.138	28105
813.279	28124
813.421	27964
813.562	27911
813.703	27793
813.845	27637
813.986	27264
814.127	27264
814.268	27165
814.41	27123
814.551	26986
814.692	27039
814.833	26868
814.974	27047
815.115	26986
815.256	26864
815.397	26952
815.539	27096
815.68	26910
815.821	26823
815.962	26876
816.103	26868
816.244	26667
816.385	26621
816.526	26587
816.666	26484
816.807	26431
816.948	26427
817.089	26533
817.23	26362
817.371	26450
817.512	26389
817.653	26271
817.793	26294
817.934	26282
818.075	26389
818.216	26381
818.356	26309
818.497	26187
818.638	26157
818.778	26069
818.919	26024
819.06	26122
819.2	26362
819.341	26355
819.481	26237
819.622	26453
819.762	26686
819.903	26560
820.043	26461
820.184	26522
820.324	26393
820.465	26530
820.605	26419
820.746	26442
820.886	26271
821.026	26381
821.167	26541
821.307	26499
821.447	26366
821.588	26164
821.728	26214
821.868	25966
822.008	25803
822.149	25814
822.289	25769
822.429	25548
822.569	25495
822.709	25533
822.849	25502
822.99	25327
823.13	25270
823.27	25244
823.41	25114
823.55	25008
823.69	25061
823.83	25179
823.97	25114
824.11	24935
824.25	24848
824.389	24905
824.529	24989
824.669	24924
824.809	25057
824.949	24939
825.089	25004
825.228	24920
825.368	24749
825.508	24760
825.648	24768
825.787	24867
825.927	24779
826.067	24863
826.206	24745
826.346	24745
826.485	24852
826.625	24939
826.765	24882
826.904	24829
827.044	24627
827.183	24597
827.323	24445
827.462	24654
827.601	24494
827.741	24490
827.88	24551
828.02	24327
828.159	24494
828.298	24429
828.437	24665
828.577	24437
828.716	24566
828.855	24433
828.994	24174
829.134	24338
829.273	24266
829.412	24224
829.551	24163
829.69	24182
829.829	24292
829.968	24376
830.107	24270
830.246	24258
830.385	24114
830.524	24216
830.663	24072
830.802	23992
830.941	23870
831.08	23794
831.219	23813
831.357	23942
831.496	23999
831.635	23851
831.774	23764
831.913	23668
832.051	23554
832.19	23779
832.329	23627
832.467	23490
832.606	23528
832.744	23524
832.883	23478
833.022	23570
833.16	23547
833.299	23531
833.437	23562
833.576	23642
833.714	23577
833.852	23589
833.991	23668
834.129	23764
834.267	23733
834.406	23657
834.544	23729
834.682	23642
834.821	23710
834.959	23779
835.097	23429
835.235	23611
835.373	23600
835.511	23611
835.65	23577
835.788	23364
835.926	23372
836.064	23311
836.202	23337
836.34	23429
836.478	23501
836.615	23493
836.753	23425
836.891	23501
837.029	23467
837.167	23368
837.305	23387
837.443	23318
837.58	23299
837.718	23288
837.856	23284
837.993	23239
838.131	23425
838.269	23155
838.406	23212
838.544	23197
838.681	22904
838.819	22835
838.956	22847
839.094	22630
839.231	22828
839.369	22847
839.506	23189
839.643	22984
839.781	22809
839.918	22736
840.055	22793
840.193	22767
840.33	22687
840.467	22820
840.604	22733
840.742	22930
840.879	22561
841.016	22664
841.153	22683
841.29	22694
841.427	22683
841.564	22668
841.701	22660
841.838	22546
841.975	22607
842.112	22527
842.249	22489
842.385	22470
842.522	22516
842.659	22405
842.796	22413
842.933	22455
843.069	22306
843.206	22405
843.343	22443
843.479	22424
843.616	22474
843.752	22295
843.889	22322
844.025	22280
844.162	22284
844.298	22314
844.435	22196
844.571	22204
844.708	22303
844.844	22447
844.98	22379
845.117	22318
845.253	22188
845.389	22109
845.525	22135
845.661	22135
845.798	21937
845.934	21964
846.07	21994
846.206	22093
846.342	22074
846.478	21850
846.614	21838
846.75	21641
846.886	21652
847.022	21762
847.158	21705
847.294	21766
847.429	21797
847.565	21743
847.701	21743
847.837	21450
847.972	21466
848.108	21523
848.244	21386
848.379	21420
848.515	21294
848.65	21344
848.786	21412
848.921	21306
849.057	21526
849.192	21507
849.328	21336
849.463	21367
849.598	21310
849.734	21199
849.869	21252
850.004	21127
850.14	21214
850.275	21138
850.41	20887
850.545	21055
850.68	21039
850.815	21013
850.95	21085
851.085	21131
851.22	21085
851.355	21058
851.49	21096
851.625	21009
851.76	21024
851.895	20986
852.03	21013
852.165	20982
852.299	20933
852.434	21176
852.569	21093
852.703	21070
852.838	21138
852.973	21188
853.107	21192
853.242	21036
853.376	20986
853.511	20838
853.645	20899
853.78	21028
853.914	20868
854.048	20876
854.183	20887
854.317	20899
854.451	21074
854.585	20834
854.72	20895
854.854	20986
854.988	20975
855.122	20834
855.256	20682
855.39	20857
855.524	20914
855.658	20899
855.792	20830
855.926	20872
856.06	20944
856.194	21085
856.327	20857
856.461	20807
856.595	20834
856.729	20944
856.862	20979
856.996	20944
857.13	20937
857.263	21017
857.397	20872
857.53	20891
857.664	20918
857.797	20986
857.931	21119
858.064	21005
858.197	20956
858.331	20883
858.464	20781
858.597	20800
858.731	20899
858.864	20838
858.997	20796
859.13	20872
859.263	20941
859.396	20929
859.529	20758
859.662	20758
859.795	20899
859.928	20823
860.061	21108
860.194	21104
860.327	20948
860.46	20864
860.592	21005
860.725	21009
860.858	21043
860.99	20883
861.123	20754
861.256	20849
861.388	20830
861.521	21629
861.653	20834
861.786	20716
861.918	20670
862.05	20853
862.183	20838
862.315	20906
862.447	20960
862.58	20842
862.712	20716
862.844	20480
862.976	20651
863.108	20762
863.24	21066
863.372	20564
863.504	20571
863.636	20541
863.768	20564
863.9	20594
864.032	20526
864.164	20571
864.296	20613
864.428	20826
864.559	20613
864.691	20640
864.823	20609
864.954	20720
865.086	20655
865.217	20457
865.349	20488
865.48	20552
865.612	20590
865.743	20644
865.875	20537
866.006	20552
866.137	20450
866.269	20400
866.4	20492
866.531	20438
866.662	20415
866.793	20423
866.924	20324
867.055	20518
867.186	20351
867.317	20450
867.448	20347
867.579	20332
867.71	20343
867.841	20446
867.972	20476
868.103	20324
868.233	20473
868.364	20457
868.495	20389
868.625	20606
868.756	20743
868.886	20594
869.017	20579
869.147	20815
869.278	20807
869.408	20537
869.539	20746
869.669	20667
869.799	20670
869.929	20804
870.06	20811
870.19	21009
870.32	21062
870.45	21005
870.58	21161
870.71	21047
870.84	21131
870.97	21093
871.1	21093
871.23	21272
871.36	21298
871.489	21112
871.619	21325
871.749	21268
871.879	21344
872.008	21340
872.138	21211
872.267	21150
872.397	21096
872.526	21062
872.656	21104
872.785	21218
872.915	21272
873.044	21351
873.173	21249
873.303	21275
873.432	21310
873.561	21424
873.69	21176
873.819	21321
873.948	21348
874.077	21298
874.206	21237
874.335	21382
874.464	21355
874.593	21583
874.722	21526
874.851	21561
874.979	21515
875.108	21477
875.237	21466
875.365	21344
875.494	21443
875.623	21564
875.751	21553
875.88	21477
876.008	21599
876.136	21671
876.265	22010
876.393	22051
876.521	21975
876.65	21972
876.778	21934
876.906	21934
877.034	21808
877.162	21915
877.29	21827
877.418	21884
877.546	21857
877.674	21766
877.802	21949
877.93	21911
878.058	21785
878.185	21709
878.313	21873
878.441	21831
878.568	21633
878.696	21922
878.824	21865
878.951	21869
879.079	22131
879.206	22135
879.333	22105
879.461	21911
879.588	22006
879.715	22006
879.842	22059
879.97	21899
880.097	21762
880.224	21732
880.351	21785
880.478	21671
880.605	21599
880.732	21713
880.859	21968
880.986	21766
881.112	21701
881.239	21568
881.366	21424
881.493	21431
881.619	21199
881.746	21302
881.872	21275
881.999	21294
882.125	21165
882.252	21367
882.378	21313
882.505	21405
882.631	21214
882.757	20906
882.883	21233
883.01	21043
883.136	20982
883.262	20868
883.388	20906
883.514	21089
883.64	20963
883.766	20899
883.892	20590
884.018	20857
884.143	20883
884.269	21001
884.395	20716
884.52	20659
884.646	20739
884.772	20579
884.897	20644
885.023	20590
885.148	20819
885.274	20754
885.399	20697
885.524	20663
885.65	20651
885.775	20758
885.9	20609
886.025	20773
886.15	20678
886.275	20598
886.4	20503
886.525	20667
886.65	20651
886.775	20587
886.9	20746
887.025	20807
887.149	20575
887.274	20530
887.399	20415
887.523	20454
887.648	20415
887.773	20271
887.897	20579
888.021	20457
888.146	20324
888.27	20450
888.395	20606
888.519	20351
888.643	20389
888.767	20465
888.891	20351
889.015	20244
889.139	20263
889.263	20202
889.387	20187
889.511	20309
889.635	20415
889.759	20180
889.883	20221
890.006	20278
890.13	20385
890.254	20199
890.377	20119
890.501	19997
890.624	19936
890.748	19864
890.871	19803
890.995	19746
891.118	19715
891.241	19723
891.364	19784
891.488	19772
891.611	19757
891.734	19837
891.857	19902
891.98	19860
892.103	19826
892.226	19845
892.349	19731
892.471	19590
892.594	19742
892.717	19605
892.839	19628
892.962	19772
893.085	19852
893.207	19605
893.33	19567
893.452	19632
893.575	19693
893.697	19769
893.819	19879
893.941	19879
894.064	19883
894.186	19635
894.308	19666
894.43	19772
894.552	19772
894.674	19674
894.796	19548
894.918	19613
895.04	19677
895.161	19788
895.283	19807
895.405	19613
895.526	19784
895.648	19677
895.769	19742
895.891	19738
896.012	19925
896.134	19727
896.255	19765
896.376	19624
896.498	19719
896.619	19742
896.74	19609
896.861	19655
896.982	20008
897.103	20187
897.224	20069
897.345	19845
897.466	19826
897.587	19925
897.708	20077
897.828	19944
897.949	19830
898.07	19719
898.19	19879
898.311	19993
898.431	19830
898.552	19902
898.672	19925
898.792	20012
898.913	19902
899.033	19689
899.153	19662
899.273	19567
899.393	19693
899.513	19780
899.633	19666
899.753	19632
899.873	19559
899.993	19575
900.113	19582
900.232	19613
900.352	19616
900.472	19533
900.591	19354
900.711	19506
900.83	19441
900.95	19559
901.069	19464
901.189	19354
901.308	19122
901.427	19042
901.546	19061
901.665	19065
901.784	19072
901.904	18802
902.023	18798
902.141	18555
902.26	18631
902.379	18612
902.498	18585
902.617	18525
902.735	18616
902.854	18464
902.973	18456
903.091	18213
903.21	18171
903.328	18247
903.446	18114
903.565	18041
903.683	18034
903.801	17813
903.919	17969
904.038	17920
904.156	17878
904.274	17950
904.392	17863
904.51	17779
904.627	17695
904.745	17882
904.863	17942
904.981	17627
905.098	17615
905.216	17474
905.334	17630
905.451	17493
905.569	17474
905.686	17493
905.803	17421
905.921	17269
906.038	17532
906.155	17292
906.272	17132
906.389	17174
906.506	17067
906.623	17006
906.74	17045
906.857	16843
906.974	16980
907.091	17109
907.208	17166
907.324	17025
907.441	16984
907.557	16839
907.674	16866
907.79	16721
907.907	16786
908.023	16774
908.139	16752
908.256	16698
908.372	16637
908.488	16683
908.604	16615
908.72	16405
908.836	16561
908.952	16500
909.068	16596
909.184	16546
909.3	16443
909.415	16413
909.531	16512
909.647	16249
909.762	16246
909.878	16226
909.993	16188
910.108	16105
910.224	16185
910.339	16200
910.454	16036
910.57	16021
910.685	15941
910.8	16246
910.915	16158
911.03	15911
911.145	15941
911.259	15705
911.374	15842
911.489	15720
911.604	15667
911.718	15568
911.833	15496
911.947	15462
912.062	15332
912.176	15466
912.291	15473
912.405	15591
912.519	15614
912.633	15656
912.748	15572
912.862	15488
912.976	15355
913.09	15275
913.204	15306
913.318	15382
913.431	15511
913.545	15439
913.659	15473
913.772	15317
913.886	15233
914	15252
914.113	15176
914.226	15325
914.34	15188
914.453	15047
914.566	15131
914.68	15127
914.793	15062
914.906	14853
915.019	14777
915.132	14720
915.245	14815
915.358	14765
915.47	14765
915.583	14758
915.696	14762
915.809	14952
915.921	15013
916.034	14785
916.146	14644
916.259	14663
916.371	14796
916.483	14697
916.595	14670
916.708	14617
916.82	14629
916.932	14522
917.044	14579
917.156	14606
917.268	14549
917.38	14579
917.491	14438
917.603	14469
917.715	14533
917.826	14621
917.938	14381
918.049	14454
918.161	14343
918.272	14530
918.384	14564
918.495	14328
918.606	14309
918.717	14115
918.828	14233
918.939	14233
919.05	14164
919.161	14168
919.272	13982
919.383	14077
919.494	14275
919.604	14457
919.715	14214
919.826	14172
919.936	14142
920.047	14259
920.157	14248
920.267	14381
920.378	14214
920.488	14149
920.598	14434
920.708	14476
920.818	14351
920.928	14332
921.038	14393
921.148	14396
921.258	14130
921.368	14069
921.477	14031
921.587	13921
921.697	13803
921.806	14005
921.916	13734
922.025	13643
922.134	13620
922.244	13533
922.353	13540
922.462	13400
922.571	13415
922.68	13327
922.789	13251
922.898	13228
923.007	13232
923.116	13129
923.224	13225
923.333	13126
923.442	12966
923.55	13034
923.659	13091
923.767	13175
923.876	12977
923.984	13061
924.092	12916
924.201	13034
924.309	12932
924.417	13000
924.525	13023
924.633	12882
924.741	13734
924.849	12719
924.956	12863
925.064	12681
925.172	12551
925.279	12681
925.387	12623
925.494	12665
925.602	12726
925.709	12730
925.816	12509
925.924	12654
926.031	12585
926.138	12555
926.245	12677
926.352	12506
926.459	12620
926.566	12719
926.673	12574
926.779	12437
926.886	12410
926.993	12243
927.099	12251
927.206	12175
927.312	12251
927.419	12216
927.525	12247
927.631	12277
927.737	12194
927.843	12057
927.95	12003
928.056	12072
928.162	12178
928.267	12102
928.373	12631
928.479	12114
928.585	11870
928.69	12057
928.796	12064
928.901	11931
929.007	11866
929.112	11878
929.218	11855
929.323	11809
929.428	11843
929.533	11866
929.638	11756
929.743	11638
929.848	11794
929.953	11748
930.058	11630
930.163	11524
930.267	11501
930.372	11634
930.477	11505
930.581	11653
930.685	11505
930.79	11398
930.894	11376
930.998	11315
931.103	11463
931.207	11258
931.311	11075
931.415	10953
931.519	10782
931.623	10782
