Data from test_V78500241_3420.txt Node
Date: Fri Mar 25 15:33:40 CST 2022
User: usil
Spectrometer: V785-0024
Trigger mode: 0
Integration Time (sec): 4.000000E-1
Scans to average: 1
Nonlinearity correction enabled: false
Boxcar width: 0
Storing dark spectrum: false
XAxis mode: Wavelengths
Number of Pixels in Spectrum: 1024
>>>>>Begin Spectral Data<<<<<
801.071	27237
801.214	27268
801.356	26921
801.499	27047
801.641	26868
801.783	26769
801.926	26918
802.068	26754
802.211	26670
802.353	26807
802.496	26408
802.638	26469
802.78	26480
802.923	26256
803.065	26153
803.208	26336
803.35	26453
803.492	26526
803.635	26629
803.777	26396
803.919	26659
804.061	26876
804.204	26606
804.346	26465
804.488	26495
804.63	26492
804.773	26370
804.915	26503
805.057	26571
805.199	26613
805.341	26735
805.483	26785
805.626	26587
805.768	26571
805.91	26602
806.052	26617
806.194	26541
806.336	26868
806.478	26651
806.62	26651
806.762	26731
806.904	26815
807.046	27169
807.188	27203
807.33	27089
807.472	27058
807.614	26982
807.756	27024
807.898	26963
808.04	26864
808.182	26967
808.324	26948
808.465	26986
808.607	27123
808.749	27169
808.891	27329
809.033	27500
809.174	27397
809.316	27291
809.458	27321
809.6	27252
809.741	27336
809.883	27241
810.025	27530
810.166	27454
810.308	27542
810.45	27511
810.591	27496
810.733	27302
810.875	27256
811.016	27066
811.158	27302
811.299	27218
811.441	27447
811.582	27473
811.724	27237
811.865	27150
812.007	27093
812.148	27226
812.29	27245
812.431	27336
812.573	27462
812.714	27671
812.855	27717
812.997	27808
813.138	27865
813.279	27831
813.421	27732
813.562	27610
813.703	27675
813.845	27431
813.986	27135
814.127	26960
814.268	27112
814.41	27055
814.551	26800
814.692	26857
814.833	26788
814.974	26952
815.115	26815
815.256	26720
815.397	26883
815.539	26834
815.68	26670
815.821	26537
815.962	26697
816.103	26537
816.244	26374
816.385	26514
816.526	26507
816.666	26317
816.807	26278
816.948	26286
817.089	26187
817.23	26180
817.371	26199
817.512	26145
817.653	26206
817.793	26130
817.934	26183
818.075	26210
818.216	26111
818.356	26237
818.497	25925
818.638	25936
818.778	25925
818.919	25944
819.06	25966
819.2	26016
819.341	26046
819.481	26103
819.622	26332
819.762	26362
819.903	26427
820.043	26305
820.184	26199
820.324	26271
820.465	26343
820.605	26301
820.746	26218
820.886	26111
821.026	26202
821.167	26199
821.307	26320
821.447	26358
821.588	26142
821.728	26001
821.868	25780
822.008	25609
822.149	25639
822.289	25590
822.429	25312
822.569	25285
822.709	25160
822.849	25190
822.99	25148
823.13	25088
823.27	25057
823.41	24863
823.55	24844
823.69	25008
823.83	24951
823.97	24916
824.11	24844
824.25	24574
824.389	24692
824.529	24913
824.669	24817
824.809	24844
824.949	24783
825.089	24825
825.228	24787
825.368	24726
825.508	24608
825.648	24738
825.787	24669
825.927	24696
826.067	24517
826.206	24627
826.346	24715
826.485	24707
826.625	24654
826.765	24677
826.904	24597
827.044	24376
827.183	24327
827.323	24247
827.462	24448
827.601	24296
827.741	24262
827.88	24414
828.02	24273
828.159	24289
828.298	24391
828.437	24437
828.577	24224
828.716	24566
828.855	24224
828.994	24239
829.134	24133
829.273	24117
829.412	23958
829.551	24068
829.69	24114
829.829	24117
829.968	24125
830.107	24186
830.246	24095
830.385	24186
830.524	23988
830.663	23897
830.802	23813
830.941	23813
831.08	23695
831.219	23798
831.357	23745
831.496	23813
831.635	23752
831.774	23516
831.913	23589
832.051	23463
832.19	23414
832.329	23440
832.467	23459
832.606	23334
832.744	23391
832.883	23398
833.022	23227
833.16	23356
833.299	23376
833.437	23425
833.576	23379
833.714	23414
833.852	23497
833.991	23402
834.129	23638
834.267	23535
834.406	23505
834.544	23551
834.682	23516
834.821	23410
834.959	23630
835.097	23436
835.235	23505
835.373	23414
835.511	23425
835.65	23216
835.788	23334
835.926	23212
836.064	23018
836.202	23189
836.34	23356
836.478	23345
836.615	23288
836.753	23174
836.891	23269
837.029	23231
837.167	23242
837.305	23296
837.443	23292
837.58	23121
837.718	23280
837.856	23227
837.993	23117
838.131	23254
838.269	23067
838.406	23041
838.544	23052
838.681	22847
838.819	22805
838.956	22615
839.094	22516
839.231	22752
839.369	22668
839.506	22915
839.643	22771
839.781	22569
839.918	22607
840.055	22656
840.193	22538
840.33	22512
840.467	22519
840.604	22561
840.742	22839
840.879	22531
841.016	22462
841.153	22493
841.29	22637
841.427	22523
841.564	22565
841.701	22459
841.838	22531
841.975	22382
842.112	22493
842.249	22447
842.385	22295
842.522	22565
842.659	22440
842.796	22295
842.933	22341
843.069	22329
843.206	22276
843.343	22314
843.479	22379
843.616	22344
843.752	22143
843.889	22112
844.025	22219
844.162	21941
844.298	22101
844.435	22059
844.571	22101
844.708	22040
844.844	22314
844.98	22242
845.117	22143
845.253	22112
845.389	21895
845.525	21934
845.661	22025
845.798	21937
845.934	21831
846.07	21907
846.206	21778
846.342	22051
846.478	21823
846.614	21633
846.75	21466
846.886	21568
847.022	21648
847.158	21648
847.294	21469
847.429	21561
847.565	21564
847.701	21785
847.837	21355
847.972	21302
848.108	21359
848.244	21332
848.379	21241
848.515	21112
848.65	21096
848.786	21184
848.921	21096
849.057	21245
849.192	21302
849.328	21211
849.463	21188
849.598	21089
849.734	21100
849.869	21070
850.004	20891
850.14	20937
850.275	20849
850.41	20910
850.545	20944
850.68	20853
850.815	20883
850.95	20891
851.085	21081
851.22	21074
851.355	20967
851.49	20845
851.625	20788
851.76	20800
851.895	20956
852.03	20712
852.165	20925
852.299	20864
852.434	21047
852.569	20948
852.703	20910
852.838	20948
852.973	21043
853.107	21074
853.242	20887
853.376	20648
853.511	20545
853.645	20739
853.78	20906
853.914	20720
854.048	20678
854.183	20807
854.317	20838
854.451	20921
854.585	20823
854.72	20724
854.854	20883
854.988	20697
855.122	20834
855.256	20796
855.39	20853
855.524	20864
855.658	20773
855.792	20724
855.926	20792
856.06	20815
856.194	20902
856.327	20727
856.461	20727
856.595	20773
856.729	20731
856.862	20895
856.996	20785
857.13	20796
857.263	20868
857.397	20823
857.53	20758
857.664	20777
857.797	20788
857.931	20872
858.064	20746
858.197	20842
858.331	20731
858.464	20750
858.597	20587
858.731	20743
858.864	20724
858.997	20773
859.13	20769
859.263	20857
859.396	20819
859.529	20792
859.662	20788
859.795	20777
859.928	20705
860.061	20781
860.194	20861
860.327	20883
860.46	20712
860.592	20857
860.725	20906
860.858	20872
860.99	20705
861.123	20735
861.256	20667
861.388	20674
861.521	21481
861.653	20655
861.786	20431
861.918	20629
862.05	20640
862.183	20712
862.315	20746
862.447	20754
862.58	20678
862.712	20473
862.844	20484
862.976	20545
863.108	20511
863.24	20811
863.372	20393
863.504	20556
863.636	20465
863.768	20511
863.9	20492
864.032	20324
864.164	20415
864.296	20495
864.428	20571
864.559	20552
864.691	20625
864.823	20495
864.954	20533
865.086	20511
865.217	20396
865.349	20332
865.48	20366
865.612	20393
865.743	20450
865.875	20374
866.006	20290
866.137	20320
866.269	20366
866.4	20320
866.531	20355
866.662	20290
866.793	20294
866.924	20317
867.055	20324
867.186	20389
867.317	20320
867.448	20183
867.579	20351
867.71	20206
867.841	20263
867.972	20339
868.103	20355
868.233	20351
868.364	20396
868.495	20309
868.625	20522
868.756	20629
868.886	20499
869.017	20518
869.147	20560
869.278	20606
869.408	20640
869.539	20454
869.669	20575
869.799	20571
869.929	20552
870.06	20739
870.19	20906
870.32	20800
870.45	20826
870.58	20994
870.71	21013
870.84	20929
870.97	20971
871.1	20982
871.23	21138
871.36	21119
871.489	20990
871.619	21176
871.749	21161
871.879	21226
872.008	21268
872.138	21268
872.267	21188
872.397	20960
872.526	21043
872.656	20979
872.785	20948
872.915	21272
873.044	21256
873.173	21245
873.303	21260
873.432	21161
873.561	21211
873.69	21275
873.819	21192
873.948	21169
874.077	21203
874.206	21055
874.335	21226
874.464	21291
874.593	21317
874.722	21325
874.851	21504
874.979	21378
875.108	21424
875.237	21355
875.365	21310
875.494	21252
875.623	21416
875.751	21450
875.88	21500
876.008	21606
876.136	21701
876.265	21861
876.393	21945
876.521	21816
876.65	21953
876.778	21880
876.906	21785
877.034	21774
877.162	21865
877.29	21808
877.418	21789
877.546	21724
877.674	21793
877.802	21797
877.93	21823
878.058	21690
878.185	21728
878.313	21724
878.441	21713
878.568	21644
878.696	21717
878.824	21717
878.951	21797
879.079	21873
879.206	21975
879.333	21953
879.461	21804
879.588	21964
879.715	21945
879.842	22097
879.97	21800
880.097	21599
880.224	21591
880.351	21477
880.478	21599
880.605	21614
880.732	21614
880.859	21854
880.986	21587
881.112	21610
881.239	21466
881.366	21291
881.493	21237
881.619	21112
881.746	21252
881.872	21165
881.999	21138
882.125	21081
882.252	21241
882.378	21173
882.505	21287
882.631	21138
882.757	20876
882.883	21036
883.01	20937
883.136	20819
883.262	20811
883.388	20880
883.514	20868
883.64	20933
883.766	20754
883.892	20701
884.018	20731
884.143	20796
884.269	20853
884.395	20644
884.52	20522
884.646	20602
884.772	20503
884.897	20408
885.023	20609
885.148	20697
885.274	20750
885.399	20739
885.524	20518
885.65	20549
885.775	20514
885.9	20454
886.025	20629
886.15	20583
886.275	20579
886.4	20381
886.525	20461
886.65	20431
886.775	20530
886.9	20632
887.025	20708
887.149	20434
887.274	20393
887.399	20320
887.523	20267
887.648	20168
887.773	20210
887.897	20393
888.021	20461
888.146	20206
888.27	20438
888.395	20431
888.519	20324
888.643	20305
888.767	20313
888.891	20305
889.015	20172
889.139	20183
889.263	20084
889.387	20157
889.511	20419
889.635	20309
889.759	20122
889.883	20164
890.006	20046
890.13	20214
890.254	20039
890.377	20008
890.501	19852
890.624	19803
890.748	19887
890.871	19822
890.995	19681
891.118	19624
891.241	19700
891.364	19613
891.488	19826
891.611	19731
891.734	19662
891.857	19742
891.98	19609
892.103	19742
892.226	19818
892.349	19613
892.471	19457
892.594	19704
892.717	19681
892.839	19575
892.962	19518
893.085	19655
893.207	19643
893.33	19506
893.452	19487
893.575	19670
893.697	19605
893.819	19712
893.941	19712
894.064	19780
894.186	19586
894.308	19556
894.43	19700
894.552	19727
894.674	19609
894.796	19441
894.918	19708
895.04	19590
895.161	19639
895.283	19700
895.405	19578
895.526	19609
895.648	19499
895.769	19601
895.891	19601
896.012	19624
896.134	19799
896.255	19510
896.376	19597
896.498	19628
896.619	19807
896.74	19685
896.861	19651
896.982	19944
897.103	20050
897.224	19791
897.345	19791
897.466	19761
897.587	19902
897.708	19951
897.828	19856
897.949	19765
898.07	19746
898.19	19750
898.311	19890
898.431	19776
898.552	19753
898.672	19970
898.792	19986
898.913	19837
899.033	19731
899.153	19616
899.273	19556
899.393	19681
899.513	19712
899.633	19658
899.753	19594
899.873	19635
899.993	19776
900.113	19651
900.232	19620
900.352	19426
900.472	19369
900.591	19308
900.711	19449
900.83	19335
900.95	19518
901.069	19609
901.189	19213
901.308	19050
901.427	18993
901.546	19008
901.665	18920
901.784	18962
901.904	18776
902.023	18764
902.141	18570
902.26	18448
902.379	18620
902.498	18536
902.617	18483
902.735	18574
902.854	18414
902.973	18456
903.091	18224
903.21	18152
903.328	18163
903.446	18045
903.565	18026
903.683	18045
903.801	17942
903.919	17912
904.038	17923
904.156	17779
904.274	17813
904.392	17794
904.51	17657
904.627	17623
904.745	17805
904.863	17779
904.981	17646
905.098	17474
905.216	17448
905.334	17471
905.451	17440
905.569	17334
905.686	17425
905.803	17372
905.921	17239
906.038	17307
906.155	17315
906.272	17216
906.389	17204
906.506	16915
906.623	16995
906.74	16995
906.857	16854
906.974	16835
907.091	16915
907.208	17128
907.324	17006
907.441	16782
907.557	16790
907.674	16733
907.79	16653
907.907	16702
908.023	16698
908.139	16653
908.256	16523
908.372	16584
908.488	16535
908.604	16462
908.72	16390
908.836	16478
908.952	16382
909.068	16352
909.184	16535
909.3	16379
909.415	16466
909.531	16360
909.647	16185
909.762	16131
909.878	16109
909.993	16173
910.108	16196
910.224	16105
910.339	16105
910.454	15941
910.57	15937
910.685	15781
910.8	16169
910.915	16131
911.03	15953
911.145	15823
911.259	15652
911.374	15641
911.489	15606
911.604	15538
911.718	15408
911.833	15591
911.947	15340
912.062	15336
912.176	15496
912.291	15507
912.405	15496
912.519	15641
912.633	15641
912.748	15576
912.862	15488
912.976	15405
913.09	15169
913.204	15287
913.318	15332
913.431	15424
913.545	15374
913.659	15374
913.772	15173
913.886	15135
914	15013
914.113	15207
914.226	15207
914.34	15085
914.453	15013
914.566	15142
914.68	15024
914.793	14952
914.906	14807
915.019	14659
915.132	14575
915.245	14667
915.358	14735
915.47	14712
915.583	14773
915.696	14735
915.809	14811
915.921	14845
916.034	14556
916.146	14617
916.259	14636
916.371	14632
916.483	14625
916.595	14667
916.708	14579
916.82	14488
916.932	14492
917.044	14457
917.156	14499
917.268	14423
917.38	14419
917.491	14389
917.603	14431
917.715	14438
917.826	14366
917.938	14298
918.049	14301
918.161	14404
918.272	14465
918.384	14404
918.495	14347
918.606	14126
918.717	14134
918.828	14134
918.939	14168
919.05	14126
919.161	14077
919.272	13989
919.383	13894
919.494	14107
919.604	14282
919.715	14229
919.826	14012
919.936	14043
920.047	14180
920.157	14096
920.267	14358
920.378	14191
920.488	14039
920.598	14191
920.708	14313
920.818	14282
920.928	14286
921.038	14305
921.148	14328
921.258	14024
921.368	13974
921.477	13868
921.587	13887
921.697	13696
921.806	13887
921.916	13765
922.025	13639
922.134	13548
922.244	13483
922.353	13518
922.462	13430
922.571	13350
922.68	13183
922.789	13133
922.898	13194
923.007	13065
923.116	13175
923.224	13225
923.333	13031
923.442	12924
923.55	12943
923.659	12932
923.767	13042
923.876	12951
923.984	13095
924.092	12913
924.201	12947
924.309	12939
924.417	12920
924.525	12768
924.633	12863
924.741	13788
924.849	12566
924.956	12791
925.064	12555
925.172	12555
925.279	12509
925.387	12658
925.494	12574
925.602	12665
925.709	12669
925.816	12509
925.924	12467
926.031	12612
926.138	12490
926.245	12627
926.352	12544
926.459	12608
926.566	12635
926.673	12551
926.779	12308
926.886	12315
926.993	12228
927.099	12159
927.206	12182
927.312	12152
927.419	12197
927.525	12178
927.631	12159
927.737	12068
927.843	11988
927.95	11904
928.056	12015
928.162	12015
928.267	12022
928.373	12563
928.479	12117
928.585	11885
928.69	11992
928.796	12057
928.901	11882
929.007	11710
929.112	11866
929.218	11836
929.323	11760
929.428	11707
929.533	11874
929.638	11748
929.743	11764
929.848	11726
929.953	11615
930.058	11596
930.163	11455
930.267	11387
930.372	11512
930.477	11318
930.581	11665
930.685	11539
930.79	11376
930.894	11372
930.998	11353
931.103	11360
931.207	11014
931.311	10976
931.415	10923
931.519	10729
931.623	10736
