Data from test_V78500241_2057.txt Node
Date: Fri Mar 25 15:24:10 CST 2022
User: usil
Spectrometer: V785-0024
Trigger mode: 0
Integration Time (sec): 4.000000E-1
Scans to average: 1
Nonlinearity correction enabled: false
Boxcar width: 0
Storing dark spectrum: false
XAxis mode: Wavelengths
Number of Pixels in Spectrum: 1024
>>>>>Begin Spectral Data<<<<<
801.071	27701
801.214	27576
801.356	27313
801.499	27222
801.641	27226
801.783	27123
801.926	27233
802.068	27203
802.211	27085
802.353	27188
802.496	26838
802.638	26716
802.78	26693
802.923	26727
803.065	26648
803.208	26804
803.35	26815
803.492	26899
803.635	27047
803.777	26895
803.919	26952
804.061	27268
804.204	27081
804.346	26891
804.488	26902
804.63	26914
804.773	26883
804.915	26925
805.057	27131
805.199	26979
805.341	27161
805.483	27135
805.626	27157
805.768	26982
805.91	27173
806.052	27165
806.194	27055
806.336	27424
806.478	27108
806.62	27150
806.762	27283
806.904	27534
807.046	27724
807.188	27469
807.33	27500
807.472	27561
807.614	27450
807.756	27500
807.898	27389
808.04	27370
808.182	27351
808.324	27313
808.465	27507
808.607	27709
808.749	27819
808.891	27869
809.033	28025
809.174	27869
809.316	27755
809.458	27641
809.6	27644
809.741	27953
809.883	27827
810.025	28082
810.166	27964
810.308	27960
810.45	28051
810.591	27987
810.733	27857
810.875	27686
811.016	27648
811.158	27564
811.299	27766
811.441	27827
811.582	27759
811.724	27690
811.865	27656
812.007	27842
812.148	27667
812.29	27759
812.431	28006
812.573	28025
812.714	28105
812.855	28109
812.997	28371
813.138	28500
813.279	28177
813.421	28211
813.562	28188
813.703	28025
813.845	27911
813.986	27720
814.127	27462
814.268	27317
814.41	27534
814.551	27416
814.692	27473
814.833	27283
814.974	27427
815.115	27374
815.256	27359
815.397	27344
815.539	27237
815.68	27169
815.821	27100
815.962	27180
816.103	27199
816.244	27009
816.385	26861
816.526	26944
816.666	26868
816.807	26773
816.948	26746
817.089	26663
817.23	26765
817.371	26678
817.512	26552
817.653	26682
817.793	26571
817.934	26754
818.075	26667
818.216	26716
818.356	26659
818.497	26629
818.638	26271
818.778	26488
818.919	26282
819.06	26518
819.2	26621
819.341	26602
819.481	26769
819.622	26815
819.762	27058
819.903	26880
820.043	26807
820.184	26883
820.324	26819
820.465	27001
820.605	26887
820.746	26682
820.886	26667
821.026	26769
821.167	26777
821.307	26792
821.447	26648
821.588	26533
821.728	26484
821.868	26362
822.008	26096
822.149	26202
822.289	26092
822.429	25890
822.569	25883
822.709	25849
822.849	25700
822.99	25658
823.13	25620
823.27	25540
823.41	25464
823.55	25327
823.69	25594
823.83	25457
823.97	25438
824.11	25190
824.25	25293
824.389	25240
824.529	25320
824.669	25426
824.809	25552
824.949	25400
825.089	25396
825.228	25217
825.368	25107
825.508	25259
825.648	25050
825.787	25141
825.927	25221
826.067	25171
826.206	25213
826.346	25263
826.485	25114
826.625	25133
826.765	25202
826.904	25141
827.044	24943
827.183	24966
827.323	24897
827.462	24890
827.601	24932
827.741	24875
827.88	24844
828.02	24726
828.159	24871
828.298	24878
828.437	25000
828.577	24894
828.716	24924
828.855	24776
828.994	24559
829.134	24555
829.273	24612
829.412	24441
829.551	24574
829.69	24517
829.829	24589
829.968	24639
830.107	24688
830.246	24490
830.385	24471
830.524	24513
830.663	24308
830.802	24361
830.941	24186
831.08	24205
831.219	24289
831.357	24262
831.496	24467
831.635	24060
831.774	24079
831.913	24003
832.051	23904
832.19	23958
832.329	24011
832.467	23786
832.606	23950
832.744	23813
832.883	23920
833.022	23745
833.16	23847
833.299	23912
833.437	23878
833.576	23920
833.714	23897
833.852	23897
833.991	23950
834.129	23996
834.267	24060
834.406	23939
834.544	23939
834.682	23992
834.821	23809
834.959	24091
835.097	23939
835.235	23790
835.373	23847
835.511	24034
835.65	23813
835.788	23680
835.926	23680
836.064	23505
836.202	23611
836.34	23714
836.478	23889
836.615	23657
836.753	23790
836.891	23824
837.029	23737
837.167	23627
837.305	23577
837.443	23543
837.58	23566
837.718	23642
837.856	23665
837.993	23570
838.131	23520
838.269	23444
838.406	23440
838.544	23433
838.681	23220
838.819	23372
838.956	23067
839.094	23052
839.231	22991
839.369	23292
839.506	23486
839.643	23273
839.781	23136
839.918	22984
840.055	23014
840.193	23064
840.33	23010
840.467	22976
840.604	23033
840.742	23124
840.879	22778
841.016	22942
841.153	22949
841.29	23044
841.427	23033
841.564	23071
841.701	22949
841.838	22877
841.975	22896
842.112	22889
842.249	22694
842.385	22702
842.522	22980
842.659	22831
842.796	22622
842.933	22649
843.069	22626
843.206	22725
843.343	22790
843.479	22706
843.616	22805
843.752	22535
843.889	22531
844.025	22538
844.162	22500
844.298	22622
844.435	22535
844.571	22428
844.708	22596
844.844	22618
844.98	22721
845.117	22516
845.253	22519
845.389	22413
845.525	22306
845.661	22360
845.798	22257
845.934	22310
846.07	22246
846.206	22284
846.342	22451
846.478	22105
846.614	21949
846.75	21922
846.886	21926
847.022	21983
847.158	22002
847.294	22048
847.429	21983
847.565	21911
847.701	22257
847.837	21739
847.972	21785
848.108	21679
848.244	21766
848.379	21671
848.515	21553
848.65	21538
848.786	21485
848.921	21435
849.057	21629
849.192	21724
849.328	21599
849.463	21526
849.598	21519
849.734	21405
849.869	21348
850.004	21462
850.14	21344
850.275	21389
850.41	21260
850.545	21279
850.68	21283
850.815	21298
850.95	21428
851.085	21496
851.22	21382
851.355	21370
851.49	21310
851.625	21291
851.76	21294
851.895	21249
852.03	21222
852.165	21310
852.299	21359
852.434	21458
852.569	21340
852.703	21294
852.838	21344
852.973	21431
853.107	21378
853.242	21154
853.376	21214
853.511	21146
853.645	21058
853.78	21283
853.914	21173
854.048	21131
854.183	21104
854.317	21093
854.451	21317
854.585	21154
854.72	21195
854.854	21165
854.988	21066
855.122	21096
855.256	21028
855.39	21218
855.524	21310
855.658	21089
855.792	21017
855.926	21264
856.06	21146
856.194	21211
856.327	21096
856.461	21051
856.595	21154
856.729	21119
856.862	21203
856.996	21062
857.13	21241
857.263	21218
857.397	21272
857.53	21199
857.664	21108
857.797	21173
857.931	21264
858.064	21157
858.197	21405
858.331	21119
858.464	21154
858.597	20986
858.731	21017
858.864	21093
858.997	21081
859.13	21047
859.263	21138
859.396	21214
859.529	21131
859.662	21119
859.795	21108
859.928	21154
860.061	21321
860.194	21325
860.327	21157
860.46	21112
860.592	21268
860.725	21279
860.858	21226
860.99	21142
861.123	21131
861.256	21058
861.388	21096
861.521	21713
861.653	21104
861.786	20891
861.918	20986
862.05	20994
862.183	21028
862.315	21043
862.447	21108
862.58	21024
862.712	21024
862.844	20887
862.976	20963
863.108	21005
863.24	21237
863.372	20842
863.504	20861
863.636	20982
863.768	20929
863.9	20754
864.032	20914
864.164	20750
864.296	20948
864.428	20975
864.559	20918
864.691	20910
864.823	20956
864.954	20815
865.086	20861
865.217	20807
865.349	20785
865.48	20739
865.612	20636
865.743	20910
865.875	20861
866.006	20750
866.137	20777
866.269	20777
866.4	20708
866.531	20708
866.662	20663
866.793	20621
866.924	20785
867.055	20781
867.186	20773
867.317	20754
867.448	20640
867.579	20727
867.71	20712
867.841	20571
867.972	20602
868.103	20648
868.233	20621
868.364	20731
868.495	20876
868.625	20986
868.756	21119
868.886	20845
869.017	20960
869.147	20944
869.278	21039
869.408	21039
869.539	20967
869.669	21077
869.799	21028
869.929	21077
870.06	21127
870.19	21252
870.32	21123
870.45	21355
870.58	21367
870.71	21488
870.84	21408
870.97	21268
871.1	21222
871.23	21599
871.36	21606
871.489	21348
871.619	21481
871.749	21504
871.879	21538
872.008	21606
872.138	21435
872.267	21507
872.397	21351
872.526	21249
872.656	21420
872.785	21279
872.915	21595
873.044	21545
873.173	21629
873.303	21648
873.432	21553
873.561	21557
873.69	21534
873.819	21580
873.948	21606
874.077	21526
874.206	21492
874.335	21564
874.464	21682
874.593	21797
874.722	21739
874.851	21895
874.979	21675
875.108	21800
875.237	21717
875.365	21637
875.494	21876
875.623	21816
875.751	21625
875.88	21812
876.008	21915
876.136	21861
876.265	22207
876.393	22344
876.521	22169
876.65	22394
876.778	22128
876.906	22044
877.034	22150
877.162	22112
877.29	22055
877.418	22196
877.546	22166
877.674	22048
877.802	22219
877.93	22230
878.058	22032
878.185	22025
878.313	22097
878.441	22162
878.568	21972
878.696	21975
878.824	22173
878.951	22249
879.079	22348
879.206	22413
879.333	22287
879.461	22173
879.588	22181
879.715	22303
879.842	22474
879.97	22147
880.097	21941
880.224	22021
880.351	21907
880.478	21895
880.605	21823
880.732	21915
880.859	22135
880.986	22025
881.112	22010
881.239	21846
881.366	21804
881.493	21610
881.619	21564
881.746	21660
881.872	21519
881.999	21492
882.125	21439
882.252	21515
882.378	21622
882.505	21583
882.631	21405
882.757	21294
882.883	21313
883.01	21298
883.136	21237
883.262	21135
883.388	21020
883.514	21203
883.64	21291
883.766	21062
883.892	20944
884.018	21066
884.143	21245
884.269	21222
884.395	20963
884.52	20921
884.646	20769
884.772	20838
884.897	20708
885.023	20937
885.148	20986
885.274	20876
885.399	21013
885.524	20853
885.65	20823
885.775	20895
885.9	20739
886.025	20937
886.15	20952
886.275	20899
886.4	20807
886.525	20739
886.65	20807
886.775	20868
886.9	21093
887.025	21058
887.149	20743
887.274	20716
887.399	20579
887.523	20625
887.648	20670
887.773	20560
887.897	20670
888.021	20811
888.146	20571
888.27	20682
888.395	20781
888.519	20575
888.643	20537
888.767	20788
888.891	20503
889.015	20465
889.139	20393
889.263	20415
889.387	20541
889.511	20682
889.635	20545
889.759	20423
889.883	20324
890.006	20442
890.13	20632
890.254	20358
890.377	20275
890.501	20153
890.624	20176
890.748	20343
890.871	19993
890.995	20081
891.118	19928
891.241	20024
891.364	20008
891.488	20122
891.611	19989
891.734	20103
891.857	19989
891.98	20084
892.103	20005
892.226	20031
892.349	19890
892.471	19845
892.594	19932
892.717	19974
892.839	19871
892.962	19955
893.085	20020
893.207	19875
893.33	19780
893.452	19925
893.575	20005
893.697	19772
893.819	19982
893.941	20107
894.064	20073
894.186	19784
894.308	19925
894.43	19959
894.552	20012
894.674	19944
894.796	19868
894.918	19879
895.04	19788
895.161	20046
895.283	19959
895.405	19811
895.526	19898
895.648	19951
895.769	20043
895.891	20039
896.012	20035
896.134	19909
896.255	19921
896.376	19814
896.498	19852
896.619	19936
896.74	19852
896.861	19967
896.982	20286
897.103	20381
897.224	20107
897.345	20168
897.466	20062
897.587	20206
897.708	20256
897.828	20199
897.949	20027
898.07	19970
898.19	20058
898.311	20229
898.431	20031
898.552	20157
898.672	20176
898.792	20202
898.913	20240
899.033	20065
899.153	20012
899.273	19837
899.393	19811
899.513	19890
899.633	20024
899.753	19864
899.873	19822
899.993	19791
900.113	19879
900.232	19894
900.352	19757
900.472	19799
900.591	19742
900.711	19769
900.83	19575
900.95	19811
901.069	19765
901.189	19563
901.308	19289
901.427	19202
901.546	19255
901.665	19335
901.784	19285
901.904	19027
902.023	19061
902.141	18920
902.26	18852
902.379	18856
902.498	18776
902.617	18783
902.735	18924
902.854	18696
902.973	18715
903.091	18342
903.21	18509
903.328	18540
903.446	18506
903.565	18205
903.683	18350
903.801	18060
903.919	18235
904.038	18224
904.156	18254
904.274	18209
904.392	17969
904.51	18049
904.627	18095
904.745	18030
904.863	18102
904.981	17798
905.098	17733
905.216	17634
905.334	17748
905.451	17672
905.569	17665
905.686	17771
905.803	17737
905.921	17478
906.038	17524
906.155	17539
906.272	17391
906.389	17421
906.506	17231
906.623	17303
906.74	17143
906.857	17117
906.974	17136
907.091	17242
907.208	17395
907.324	17197
907.441	16987
907.557	16976
907.674	16889
907.79	16900
907.907	16812
908.023	16987
908.139	16919
908.256	16927
908.372	16790
908.488	16790
908.604	16634
908.72	16713
908.836	16607
908.952	16603
909.068	16672
909.184	16797
909.3	16702
909.415	16637
909.531	16649
909.647	16432
909.762	16436
909.878	16367
909.993	16398
910.108	16428
910.224	16341
910.339	16413
910.454	16280
910.57	16120
910.685	16135
910.8	16379
910.915	16272
911.03	16246
911.145	16013
911.259	16032
911.374	15945
911.489	16010
911.604	15895
911.718	15679
911.833	15701
911.947	15591
912.062	15599
912.176	15781
912.291	15660
912.405	15667
912.519	15949
912.633	15846
912.748	15736
912.862	15614
912.976	15538
913.09	15469
913.204	15504
913.318	15564
913.431	15633
913.545	15587
913.659	15652
913.772	15443
913.886	15344
914	15317
914.113	15500
914.226	15431
914.34	15355
914.453	15230
914.566	15340
914.68	15207
914.793	15116
914.906	15013
915.019	14967
915.132	14929
915.245	14990
915.358	15013
915.47	15020
915.583	14952
915.696	14921
915.809	15017
915.921	15146
916.034	14800
916.146	14842
916.259	14842
916.371	14956
916.483	14960
916.595	14811
916.708	14914
916.82	14792
916.932	14655
917.044	14712
917.156	14606
917.268	14556
917.38	14686
917.491	14598
917.603	14571
917.715	14701
917.826	14754
917.938	14579
918.049	14423
918.161	14522
918.272	14758
918.384	14674
918.495	14499
918.606	14461
918.717	14404
918.828	14438
918.939	14305
919.05	14313
919.161	14336
919.272	14069
919.383	14237
919.494	14317
919.604	14484
919.715	14320
919.826	14278
919.936	14210
920.047	14377
920.157	14309
920.267	14533
920.378	14385
920.488	14389
920.598	14541
920.708	14659
920.818	14450
920.928	14461
921.038	14629
921.148	14579
921.258	14206
921.368	14138
921.477	14103
921.587	14054
921.697	14016
921.806	14054
921.916	13852
922.025	13734
922.134	13689
922.244	13681
922.353	13734
922.462	13658
922.571	13499
922.68	13396
922.789	13434
922.898	13449
923.007	13343
923.116	13419
923.224	13350
923.333	13335
923.442	13247
923.55	13209
923.659	13244
923.767	13274
923.876	13133
923.984	13320
924.092	13171
924.201	13141
924.309	13038
924.417	13156
924.525	13012
924.633	13031
924.741	13826
924.849	12897
924.956	12920
925.064	12875
925.172	12760
925.279	12707
925.387	12806
925.494	12745
925.602	12909
925.709	12783
925.816	12623
925.924	12703
926.031	12791
926.138	12703
926.245	12806
926.352	12635
926.459	12703
926.566	12810
926.673	12627
926.779	12486
926.886	12563
926.993	12395
927.099	12441
927.206	12315
927.312	12315
927.419	12369
927.525	12422
927.631	12357
927.737	12319
927.843	12209
927.95	12045
928.056	12117
928.162	12201
928.267	12262
928.373	12814
928.479	12235
928.585	12030
928.69	12117
928.796	12186
928.901	12049
929.007	11939
929.112	11988
929.218	12030
929.323	11977
929.428	11950
929.533	12030
929.638	11817
929.743	11897
929.848	11897
929.953	11802
930.058	11745
930.163	11562
930.267	11630
930.372	11710
930.477	11490
930.581	11878
930.685	11710
930.79	11471
930.894	11532
930.998	11467
931.103	11585
931.207	11269
931.311	11174
931.415	11132
931.519	10889
931.623	10961
