Data from test_V78500241_636.txt Node
Date: Fri Mar 25 15:14:17 CST 2022
User: usil
Spectrometer: V785-0024
Trigger mode: 0
Integration Time (sec): 4.000000E-1
Scans to average: 1
Nonlinearity correction enabled: false
Boxcar width: 0
Storing dark spectrum: false
XAxis mode: Wavelengths
Number of Pixels in Spectrum: 1024
>>>>>Begin Spectral Data<<<<<
801.071	27606
801.214	27667
801.356	27401
801.499	27408
801.641	27233
801.783	27332
801.926	27321
802.068	27211
802.211	27176
802.353	27062
802.496	26861
802.638	26830
802.78	26940
802.923	26769
803.065	26743
803.208	26781
803.35	26826
803.492	27055
803.635	27043
803.777	26902
803.919	27020
804.061	27256
804.204	27066
804.346	26990
804.488	26921
804.63	27020
804.773	26887
804.915	27013
805.057	27199
805.199	26857
805.341	27127
805.483	27089
805.626	27142
805.768	27051
805.91	27096
806.052	27256
806.194	27188
806.336	27287
806.478	27131
806.62	27268
806.762	27336
806.904	27447
807.046	27595
807.188	27610
807.33	27511
807.472	27724
807.614	27515
807.756	27557
807.898	27420
808.04	27526
808.182	27344
808.324	27405
808.465	27389
808.607	27625
808.749	27667
808.891	27766
809.033	27865
809.174	27983
809.316	27895
809.458	27888
809.6	27732
809.741	27930
809.883	27953
810.025	28059
810.166	28021
810.308	28021
810.45	28040
810.591	28036
810.733	27873
810.875	27694
811.016	27759
811.158	27656
811.299	27816
811.441	27854
811.582	27994
811.724	27789
811.865	27686
812.007	27770
812.148	27755
812.29	27903
812.431	28055
812.573	28112
812.714	28280
812.855	28462
812.997	28489
813.138	28569
813.279	28516
813.421	28409
813.562	28341
813.703	28265
813.845	28048
813.986	27759
814.127	27629
814.268	27504
814.41	27439
814.551	27416
814.692	27568
814.833	27466
814.974	27477
815.115	27606
815.256	27363
815.397	27412
815.539	27382
815.68	27260
815.821	27291
815.962	27325
816.103	27363
816.244	27104
816.385	27070
816.526	27032
816.666	26830
816.807	26857
816.948	26796
817.089	26944
817.23	26800
817.371	26788
817.512	26864
817.653	26971
817.793	26682
817.934	26769
818.075	26918
818.216	26872
818.356	26659
818.497	26716
818.638	26575
818.778	26530
818.919	26629
819.06	26632
819.2	26648
819.341	26842
819.481	26754
819.622	27039
819.762	27138
819.903	27024
820.043	26986
820.184	26834
820.324	26921
820.465	27020
820.605	26880
820.746	26773
820.886	26811
821.026	26979
821.167	26933
821.307	27005
821.447	26788
821.588	26765
821.728	26541
821.868	26423
822.008	26202
822.149	26229
822.289	26157
822.429	25959
822.569	26008
822.709	25841
822.849	25803
822.99	25723
823.13	25841
823.27	25742
823.41	25483
823.55	25548
823.69	25632
823.83	25571
823.97	25670
824.11	25293
824.25	25228
824.389	25320
824.529	25510
824.669	25487
824.809	25521
824.949	25548
825.089	25487
825.228	25445
825.368	25285
825.508	25156
825.648	25209
825.787	25327
825.927	25339
826.067	25164
826.206	25236
826.346	25297
826.485	25304
826.625	25145
826.765	25354
826.904	25358
827.044	25042
827.183	25046
827.323	24966
827.462	25057
827.601	24913
827.741	25103
827.88	25110
828.02	24802
828.159	24913
828.298	24973
828.437	24954
828.577	24920
828.716	25000
828.855	24810
828.994	24642
829.134	24677
829.273	24749
829.412	24711
829.551	24661
829.69	24715
829.829	24730
829.968	24734
830.107	24738
830.246	24757
830.385	24692
830.524	24540
830.663	24403
830.802	24445
830.941	24239
831.08	24281
831.219	24445
831.357	24388
831.496	24525
831.635	24422
831.774	24285
831.913	24136
832.051	24003
832.19	24117
832.329	24136
832.467	24060
832.606	23889
832.744	23897
832.883	23969
833.022	23973
833.16	23992
833.299	24015
833.437	23992
833.576	24011
833.714	24087
833.852	24095
833.991	24155
834.129	24129
834.267	24194
834.406	24136
834.544	24152
834.682	24091
834.821	24026
834.959	24277
835.097	23973
835.235	24011
835.373	24045
835.511	24087
835.65	23999
835.788	23923
835.926	23988
836.064	23684
836.202	23733
836.34	23908
836.478	23958
836.615	23817
836.753	23920
836.891	23908
837.029	23786
837.167	23779
837.305	23821
837.443	23691
837.58	23745
837.718	23794
837.856	23726
837.993	23657
838.131	23710
838.269	23573
838.406	23680
838.544	23589
838.681	23337
838.819	23326
838.956	23121
839.094	23216
839.231	23094
839.369	23497
839.506	23630
839.643	23539
839.781	23349
839.918	23094
840.055	23086
840.193	23197
840.33	23128
840.467	23086
840.604	23102
840.742	23425
840.879	22904
841.016	23018
841.153	23037
841.29	23147
841.427	23132
841.564	23060
841.701	23094
841.838	22995
841.975	22991
842.112	23117
842.249	22896
842.385	22877
842.522	23048
842.659	22961
842.796	22873
842.933	22793
843.069	22748
843.206	22729
843.343	22881
843.479	22957
843.616	22965
843.752	22611
843.889	22706
844.025	22869
844.162	22645
844.298	22828
844.435	22687
844.571	22546
844.708	22645
844.844	22755
844.98	22793
845.117	22679
845.253	22557
845.389	22489
845.525	22516
845.661	22523
845.798	22356
845.934	22447
846.07	22318
846.206	22413
846.342	22413
846.478	22409
846.614	22143
846.75	22082
846.886	22181
847.022	22154
847.158	22025
847.294	22158
847.429	22074
847.565	22013
847.701	22276
847.837	21880
847.972	21846
848.108	21998
848.244	21774
848.379	21759
848.515	21759
848.65	21587
848.786	21720
848.921	21675
849.057	21899
849.192	21850
849.328	21747
849.463	21720
849.598	21781
849.734	21492
849.869	21633
850.004	21500
850.14	21523
850.275	21553
850.41	21477
850.545	21367
850.68	21363
850.815	21557
850.95	21462
851.085	21648
851.22	21519
851.355	21435
851.49	21424
851.625	21526
851.76	21367
851.895	21382
852.03	21420
852.165	21416
852.299	21466
852.434	21542
852.569	21488
852.703	21462
852.838	21515
852.973	21618
853.107	21485
853.242	21431
853.376	21287
853.511	21279
853.645	21214
853.78	21443
853.914	21214
854.048	21184
854.183	21279
854.317	21298
854.451	21477
854.585	21252
854.72	21340
854.854	21393
854.988	21203
855.122	21317
855.256	21256
855.39	21176
855.524	21241
855.658	21393
855.792	21340
855.926	21370
856.06	21306
856.194	21298
856.327	21291
856.461	21321
856.595	21203
856.729	21275
856.862	21401
856.996	21386
857.13	21321
857.263	21325
857.397	21367
857.53	21268
857.664	21374
857.797	21393
857.931	21420
858.064	21336
858.197	21405
858.331	21230
858.464	21275
858.597	21199
858.731	21245
858.864	21313
858.997	21264
859.13	21435
859.263	21283
859.396	21401
859.529	21222
859.662	21211
859.795	21135
859.928	21420
860.061	21405
860.194	21420
860.327	21340
860.46	21291
860.592	21431
860.725	21428
860.858	21435
860.99	21291
861.123	21161
861.256	21355
861.388	21294
861.521	22040
861.653	21218
861.786	21169
861.918	21135
862.05	21233
862.183	21256
862.315	21268
862.447	21336
862.58	21207
862.712	21009
862.844	20994
862.976	21070
863.108	21043
863.24	21439
863.372	20967
863.504	20967
863.636	20986
863.768	21119
863.9	21005
864.032	20883
864.164	21001
864.296	21085
864.428	21180
864.559	20990
864.691	21043
864.823	21066
864.954	20971
865.086	20857
865.217	20815
865.349	20899
865.48	20823
865.612	20952
865.743	21123
865.875	20883
866.006	20895
866.137	20963
866.269	20918
866.4	20883
866.531	20815
866.662	20697
866.793	20800
866.924	20921
867.055	20826
867.186	20834
867.317	20746
867.448	20731
867.579	20834
867.71	20613
867.841	20815
867.972	20899
868.103	20876
868.233	20933
868.364	20811
868.495	20921
868.625	21070
868.756	21165
868.886	20986
869.017	21043
869.147	21085
869.278	21150
869.408	21169
869.539	21100
869.669	21112
869.799	21157
869.929	21249
870.06	21260
870.19	21275
870.32	21298
870.45	21428
870.58	21477
870.71	21667
870.84	21530
870.97	21500
871.1	21435
871.23	21606
871.36	21698
871.489	21534
871.619	21606
871.749	21603
871.879	21739
872.008	21679
872.138	21606
872.267	21660
872.397	21477
872.526	21374
872.656	21378
872.785	21542
872.915	21660
873.044	21732
873.173	21759
873.303	21644
873.432	21861
873.561	21736
873.69	21728
873.819	21739
873.948	21831
874.077	21599
874.206	21553
874.335	21743
874.464	21937
874.593	21953
874.722	21743
874.851	21865
874.979	21888
875.108	21945
875.237	21808
875.365	21831
875.494	21911
875.623	22036
875.751	21892
875.88	21892
876.008	22093
876.136	22147
876.265	22314
876.393	22379
876.521	22478
876.65	22272
876.778	22223
876.906	22242
877.034	22257
877.162	22325
877.29	22249
877.418	22314
877.546	22402
877.674	22276
877.802	22196
877.93	22200
878.058	22181
878.185	22097
878.313	22116
878.441	22333
878.568	21998
878.696	22158
878.824	22173
878.951	22215
879.079	22481
879.206	22565
879.333	22443
879.461	22257
879.588	22341
879.715	22443
879.842	22519
879.97	22360
880.097	22002
880.224	22070
880.351	22078
880.478	22013
880.605	22101
880.732	22006
880.859	22287
880.986	22006
881.112	22124
881.239	21846
881.366	21747
881.493	21614
881.619	21641
881.746	21724
881.872	21686
881.999	21682
882.125	21519
882.252	21717
882.378	21667
882.505	21568
882.631	21561
882.757	21389
882.883	21485
883.01	21317
883.136	21313
883.262	21245
883.388	21218
883.514	21279
883.64	21420
883.766	21363
883.892	21131
884.018	21104
884.143	21389
884.269	21378
884.395	21161
884.52	20990
884.646	21077
884.772	20975
884.897	20925
885.023	20918
885.148	21127
885.274	21207
885.399	21161
885.524	20963
885.65	21017
885.775	21017
885.9	20960
886.025	21214
886.15	21055
886.275	20895
886.4	20876
886.525	20887
886.65	20960
886.775	20929
886.9	21108
887.025	21173
887.149	20876
887.274	20895
887.399	20727
887.523	20826
887.648	20587
887.773	20625
887.897	20872
888.021	20716
888.146	20648
888.27	20746
888.395	20853
888.519	20804
888.643	20682
888.767	20868
888.891	20735
889.015	20625
889.139	20644
889.263	20636
889.387	20731
889.511	20670
889.635	20686
889.759	20598
889.883	20522
890.006	20530
890.13	20659
890.254	20511
890.377	20556
890.501	20366
890.624	20256
890.748	20309
890.871	20210
890.995	20210
891.118	20096
891.241	20248
891.364	20142
891.488	20282
891.611	20157
891.734	20149
891.857	20180
891.98	20138
892.103	20202
892.226	20157
892.349	20020
892.471	19818
892.594	20096
892.717	20073
892.839	20084
892.962	20069
893.085	20176
893.207	20043
893.33	20027
893.452	20046
893.575	20130
893.697	19974
893.819	20259
893.941	20195
894.064	20145
894.186	19928
894.308	19940
894.43	20145
894.552	20168
894.674	20176
894.796	19963
894.918	20020
895.04	20046
895.161	20050
895.283	20077
895.405	19909
895.526	20100
895.648	20016
895.769	20088
895.891	20107
896.012	20161
896.134	20111
896.255	20111
896.376	20012
896.498	20058
896.619	19986
896.74	20149
896.861	19997
896.982	20366
897.103	20507
897.224	20317
897.345	20324
897.466	20115
897.587	20210
897.708	20370
897.828	20358
897.949	20138
898.07	20016
898.19	20195
898.311	20320
898.431	20069
898.552	20256
898.672	20370
898.792	20400
898.913	20305
899.033	20024
899.153	20077
899.273	19921
899.393	19925
899.513	20001
899.633	20035
899.753	20081
899.873	19947
899.993	20088
900.113	19951
900.232	19978
900.352	19879
900.472	19852
900.591	19696
900.711	19746
900.83	19719
900.95	19955
901.069	19860
901.189	19658
901.308	19510
901.427	19377
901.546	19403
901.665	19388
901.784	19476
901.904	19202
902.023	19031
902.141	18985
902.26	18814
902.379	18947
902.498	18973
902.617	18825
902.735	18852
902.854	18837
902.973	18840
903.091	18532
903.21	18551
903.328	18597
903.446	18426
903.565	18399
903.683	18467
903.801	18273
903.919	18357
904.038	18281
904.156	18095
904.274	18216
904.392	18102
904.51	18064
904.627	18106
904.745	18201
904.863	18072
904.981	18049
905.098	17840
905.216	17832
905.334	17893
905.451	17775
905.569	17824
905.686	17783
905.803	17832
905.921	17573
906.038	17729
906.155	17619
906.272	17497
906.389	17547
906.506	17193
906.623	17356
906.74	17307
906.857	17170
906.974	17246
907.091	17414
907.208	17444
907.324	17387
907.441	17273
907.557	17189
907.674	17166
907.79	17022
907.907	17041
908.023	17025
908.139	17090
908.256	17029
908.372	16953
908.488	16889
908.604	16915
908.72	16729
908.836	16793
908.952	16850
909.068	16702
909.184	16873
909.3	16744
909.415	16672
909.531	16706
909.647	16440
909.762	16508
909.878	16459
909.993	16512
910.108	16424
910.224	16390
910.339	16455
910.454	16436
910.57	16421
910.685	16246
910.8	16561
910.915	16424
911.03	16303
911.145	16200
911.259	16139
911.374	16029
911.489	15998
911.604	15994
911.718	15800
911.833	15895
911.947	15774
912.062	15667
912.176	15857
912.291	15736
912.405	15759
912.519	15922
912.633	15968
912.748	15854
912.862	15819
912.976	15663
913.09	15648
913.204	15580
913.318	15603
913.431	15701
913.545	15701
913.659	15800
913.772	15545
913.886	15454
914	15424
914.113	15454
914.226	15576
914.34	15515
914.453	15344
914.566	15599
914.68	15310
914.793	15233
914.906	15112
915.019	15192
915.132	14994
915.245	15051
915.358	15043
915.47	15047
915.583	15108
915.696	15024
915.809	15218
915.921	15180
916.034	15028
916.146	14994
916.259	14880
916.371	15081
916.483	15039
916.595	14883
916.708	14876
916.82	14918
916.932	14777
917.044	14807
917.156	14754
917.268	14834
917.38	14743
917.491	14651
917.603	14705
917.715	14762
917.826	14800
917.938	14693
918.049	14568
918.161	14629
918.272	14823
918.384	14773
918.495	14667
918.606	14537
918.717	14419
918.828	14495
918.939	14556
919.05	14495
919.161	14423
919.272	14290
919.383	14317
919.494	14423
919.604	14636
919.715	14488
919.826	14381
919.936	14469
920.047	14469
920.157	14434
920.267	14587
920.378	14374
920.488	14332
920.598	14594
920.708	14640
920.818	14568
920.928	14606
921.038	14731
921.148	14575
921.258	14419
921.368	14298
921.477	14187
921.587	14218
921.697	14065
921.806	14111
921.916	13997
922.025	13951
922.134	13795
922.244	13791
922.353	13887
922.462	13765
922.571	13613
922.68	13468
922.789	13384
922.898	13510
923.007	13373
923.116	13495
923.224	13434
923.333	13426
923.442	13362
923.55	13365
923.659	13266
923.767	13411
923.876	13221
923.984	13384
924.092	13206
924.201	13217
924.309	13240
924.417	13255
924.525	13160
924.633	13069
924.741	13879
924.849	12981
924.956	12970
925.064	12837
925.172	12764
925.279	12920
925.387	12897
925.494	12897
925.602	13057
925.709	12947
925.816	12817
925.924	12814
926.031	12928
926.138	12814
926.245	12848
926.352	12783
926.459	12867
926.566	12890
926.673	12772
926.779	12654
926.886	12593
926.993	12498
927.099	12422
927.206	12460
927.312	12388
927.419	12464
927.525	12437
927.631	12441
927.737	12445
927.843	12300
927.95	12194
928.056	12304
928.162	12273
928.267	12319
928.373	12859
928.479	12334
928.585	12182
928.69	12361
928.796	12296
928.901	12155
929.007	11999
929.112	12209
929.218	12072
929.323	12026
929.428	12041
929.533	12159
929.638	11923
929.743	11889
929.848	12026
929.953	12015
930.058	11901
930.163	11554
930.267	11775
930.372	11885
930.477	11707
930.581	11874
930.685	11627
930.79	11653
930.894	11653
930.998	11474
931.103	11642
931.207	11296
931.311	11231
931.415	11178
931.519	10961
931.623	11003
