Data from test_V78500241_2364.txt Node
Date: Fri Mar 25 15:26:19 CST 2022
User: usil
Spectrometer: V785-0024
Trigger mode: 0
Integration Time (sec): 4.000000E-1
Scans to average: 1
Nonlinearity correction enabled: false
Boxcar width: 0
Storing dark spectrum: false
XAxis mode: Wavelengths
Number of Pixels in Spectrum: 1024
>>>>>Begin Spectral Data<<<<<
801.071	27439
801.214	27348
801.356	27119
801.499	27047
801.641	26857
801.783	26963
801.926	26944
802.068	26910
802.211	26956
802.353	26773
802.496	26663
802.638	26503
802.78	26636
802.923	26545
803.065	26385
803.208	26587
803.35	26594
803.492	26735
803.635	26640
803.777	26583
803.919	26762
804.061	27047
804.204	26796
804.346	26678
804.488	26590
804.63	26674
804.773	26667
804.915	26705
805.057	26883
805.199	26617
805.341	26857
805.483	26979
805.626	26807
805.768	26750
805.91	26914
806.052	26933
806.194	26632
806.336	26883
806.478	26842
806.62	26804
806.762	26845
806.904	27108
807.046	27310
807.188	27233
807.33	27241
807.472	27195
807.614	27252
807.756	27275
807.898	27157
808.04	27104
808.182	27112
808.324	27104
808.465	27180
808.607	27370
808.749	27690
808.891	27572
809.033	27492
809.174	27424
809.316	27355
809.458	27435
809.6	27382
809.741	27530
809.883	27690
810.025	27705
810.166	27698
810.308	27629
810.45	27599
810.591	27603
810.733	27386
810.875	27454
811.016	27249
811.158	27317
811.299	27485
811.441	27538
811.582	27610
811.724	27279
811.865	27477
812.007	27233
812.148	27367
812.29	27374
812.431	27564
812.573	27739
812.714	27800
812.855	27960
812.997	28143
813.138	28169
813.279	28040
813.421	27774
813.562	27869
813.703	27663
813.845	27717
813.986	27211
814.127	27192
814.268	27062
814.41	27241
814.551	27066
814.692	27127
814.833	27055
814.974	27142
815.115	27081
815.256	27055
815.397	26914
815.539	27024
815.68	26807
815.821	26804
815.962	26838
816.103	26982
816.244	26632
816.385	26724
816.526	26712
816.666	26476
816.807	26317
816.948	26453
817.089	26606
817.23	26408
817.371	26476
817.512	26396
817.653	26301
817.793	26339
817.934	26298
818.075	26453
818.216	26374
818.356	26286
818.497	26161
818.638	26035
818.778	26054
818.919	26100
819.06	26054
819.2	26149
819.341	26252
819.481	26389
819.622	26495
819.762	26754
819.903	26507
820.043	26488
820.184	26309
820.324	26408
820.465	26480
820.605	26336
820.746	26499
820.886	26229
821.026	26370
821.167	26457
821.307	26385
821.447	26355
821.588	26225
821.728	26180
821.868	26103
822.008	25871
822.149	25940
822.289	25742
822.429	25479
822.569	25403
822.709	25457
822.849	25365
822.99	25415
823.13	25343
823.27	25304
823.41	25213
823.55	25103
823.69	25247
823.83	25171
823.97	25103
824.11	24932
824.25	24859
824.389	24935
824.529	25091
824.669	25023
824.809	25042
824.949	25141
825.089	25114
825.228	25072
825.368	24772
825.508	24791
825.648	24741
825.787	24947
825.927	24802
826.067	24665
826.206	24760
826.346	24939
826.485	24791
826.625	24738
826.765	24909
826.904	24890
827.044	24631
827.183	24540
827.323	24433
827.462	24513
827.601	24578
827.741	24532
827.88	24505
828.02	24338
828.159	24547
828.298	24494
828.437	24563
828.577	24384
828.716	24631
828.855	24513
828.994	24239
829.134	24045
829.273	24186
829.412	24266
829.551	24136
829.69	24197
829.829	24289
829.968	24296
830.107	24209
830.246	24224
830.385	24110
830.524	24079
830.663	24106
830.802	23950
830.941	23798
831.08	23741
831.219	23980
831.357	23920
831.496	24064
831.635	23783
831.774	23798
831.913	23695
832.051	23646
832.19	23687
832.329	23687
832.467	23577
832.606	23604
832.744	23452
832.883	23429
833.022	23482
833.16	23531
833.299	23471
833.437	23611
833.576	23543
833.714	23528
833.852	23646
833.991	23615
834.129	23657
834.267	23710
834.406	23543
834.544	23649
834.682	23562
834.821	23615
834.959	23741
835.097	23604
835.235	23627
835.373	23627
835.511	23512
835.65	23463
835.788	23433
835.926	23341
836.064	23349
836.202	23216
836.34	23455
836.478	23493
836.615	23368
836.753	23303
836.891	23486
837.029	23368
837.167	23307
837.305	23265
837.443	23254
837.58	23296
837.718	23410
837.856	23208
837.993	23174
838.131	23265
838.269	23193
838.406	23235
838.544	23071
838.681	22869
838.819	22809
838.956	22653
839.094	22717
839.231	22828
839.369	22991
839.506	23083
839.643	22915
839.781	22691
839.918	22596
840.055	22938
840.193	22580
840.33	22577
840.467	22573
840.604	22611
840.742	22908
840.879	22409
841.016	22615
841.153	22618
841.29	22790
841.427	22698
841.564	22835
841.701	22630
841.838	22641
841.975	22462
842.112	22421
842.249	22451
842.385	22432
842.522	22607
842.659	22512
842.796	22402
842.933	22310
843.069	22398
843.206	22325
843.343	22447
843.479	22363
843.616	22417
843.752	22166
843.889	22204
844.025	22421
844.162	22226
844.298	22295
844.435	22150
844.571	22112
844.708	22185
844.844	22360
844.98	22352
845.117	22226
845.253	22101
845.389	22116
845.525	22059
845.661	22025
845.798	21930
845.934	22025
846.07	21850
846.206	21991
846.342	22006
846.478	21945
846.614	21690
846.75	21637
846.886	21778
847.022	21743
847.158	21736
847.294	21686
847.429	21717
847.565	21644
847.701	21983
847.837	21344
847.972	21397
848.108	21458
848.244	21564
848.379	21310
848.515	21230
848.65	21317
848.786	21241
848.921	21310
849.057	21233
849.192	21370
849.328	21222
849.463	21370
849.598	21096
849.734	21161
849.869	21192
850.004	21039
850.14	21047
850.275	20948
850.41	20956
850.545	20883
850.68	21013
850.815	21051
850.95	21070
851.085	21173
851.22	21017
851.355	21100
851.49	21009
851.625	20941
851.76	20925
851.895	20899
852.03	20883
852.165	21039
852.299	21005
852.434	21024
852.569	20994
852.703	21047
852.838	20963
852.973	21294
853.107	21119
853.242	21051
853.376	20746
853.511	20674
853.645	20849
853.78	20960
853.914	20929
854.048	20800
854.183	20883
854.317	20834
854.451	21020
854.585	20838
854.72	20773
854.854	20887
854.988	20716
855.122	20701
855.256	20800
855.39	20800
855.524	20739
855.658	20868
855.792	20830
855.926	20842
856.06	20796
856.194	20876
856.327	20811
856.461	20788
856.595	20773
856.729	20880
856.862	20914
856.996	20857
857.13	20944
857.263	20982
857.397	21013
857.53	20845
857.664	20902
857.797	20944
857.931	20967
858.064	20899
858.197	20864
858.331	20838
858.464	20804
858.597	20720
858.731	20880
858.864	20716
858.997	20773
859.13	20948
859.263	20872
859.396	20845
859.529	20758
859.662	20777
859.795	20838
859.928	20785
860.061	20967
860.194	21039
860.327	20910
860.46	20895
860.592	20948
860.725	21036
860.858	20887
860.99	20792
861.123	20861
861.256	20758
861.388	20880
861.521	21363
861.653	20769
861.786	20750
861.918	20663
862.05	20716
862.183	20807
862.315	20861
862.447	20838
862.58	20708
862.712	20526
862.844	20514
862.976	20629
863.108	20629
863.24	21154
863.372	20469
863.504	20362
863.636	20507
863.768	20545
863.9	20446
864.032	20568
864.164	20526
864.296	20651
864.428	20602
864.559	20632
864.691	20629
864.823	20552
864.954	20522
865.086	20575
865.217	20530
865.349	20317
865.48	20434
865.612	20480
865.743	20541
865.875	20545
866.006	20476
866.137	20465
866.269	20393
866.4	20358
866.531	20450
866.662	20415
866.793	20343
866.924	20400
867.055	20530
867.186	20393
867.317	20355
867.448	20229
867.579	20358
867.71	20263
867.841	20286
867.972	20396
868.103	20377
868.233	20366
868.364	20438
868.495	20701
868.625	20587
868.756	20739
868.886	20526
869.017	20518
869.147	20625
869.278	20743
869.408	20735
869.539	20632
869.669	20659
869.799	20697
869.929	20697
870.06	20701
870.19	20861
870.32	20929
870.45	20986
870.58	21142
870.71	21074
870.84	21150
870.97	21036
871.1	20998
871.23	21123
871.36	21165
871.489	21127
871.619	21146
871.749	21108
871.879	21287
872.008	21401
872.138	21199
872.267	21173
872.397	21108
872.526	21081
872.656	21058
872.785	21127
872.915	21367
873.044	21211
873.173	21199
873.303	21294
873.432	21291
873.561	21363
873.69	21302
873.819	21283
873.948	21351
874.077	21291
874.206	21199
874.335	21268
874.464	21283
874.593	21538
874.722	21462
874.851	21481
874.979	21644
875.108	21652
875.237	21454
875.365	21424
875.494	21477
875.623	21591
875.751	21473
875.88	21500
876.008	21576
876.136	21743
876.265	21831
876.393	22074
876.521	21964
876.65	21888
876.778	21998
876.906	21842
877.034	21827
877.162	21869
877.29	21747
877.418	21850
877.546	21880
877.674	21953
877.802	21789
877.93	21861
878.058	21705
878.185	21648
878.313	21793
878.441	21873
878.568	21701
878.696	21747
878.824	21892
878.951	21857
879.079	22059
879.206	22006
879.333	21953
879.461	21854
879.588	21922
879.715	22051
879.842	22070
879.97	21816
880.097	21625
880.224	21667
880.351	21770
880.478	21774
880.605	21728
880.732	21610
880.859	21876
880.986	21671
881.112	21663
881.239	21526
881.366	21321
881.493	21313
881.619	21268
881.746	21157
881.872	21325
881.999	21161
882.125	21264
882.252	21458
882.378	21237
882.505	21412
882.631	21104
882.757	21028
882.883	21032
883.01	21066
883.136	20819
883.262	20891
883.388	20804
883.514	20921
883.64	21009
883.766	20864
883.892	20708
884.018	20758
884.143	20944
884.269	20967
884.395	20636
884.52	20746
884.646	20632
884.772	20609
884.897	20640
885.023	20545
885.148	20705
885.274	20731
885.399	20667
885.524	20579
885.65	20716
885.775	20594
885.9	20568
886.025	20644
886.15	20556
886.275	20598
886.4	20579
886.525	20484
886.65	20636
886.775	20377
886.9	20697
887.025	20735
887.149	20556
887.274	20332
887.399	20396
887.523	20442
887.648	20434
887.773	20286
887.897	20381
888.021	20400
888.146	20362
888.27	20476
888.395	20511
888.519	20339
888.643	20393
888.767	20358
888.891	20320
889.015	20225
889.139	20320
889.263	20039
889.387	20298
889.511	20336
889.635	20370
889.759	20100
889.883	20176
890.006	20168
890.13	20301
890.254	20027
890.377	20084
890.501	19967
890.624	19890
890.748	19993
890.871	19841
890.995	19738
891.118	19689
891.241	19700
891.364	19635
891.488	19841
891.611	19761
891.734	19700
891.857	19750
891.98	19719
892.103	19814
892.226	19753
892.349	19651
892.471	19510
892.594	19647
892.717	19719
892.839	19666
892.962	19738
893.085	19731
893.207	19681
893.33	19620
893.452	19590
893.575	19719
893.697	19712
893.819	19776
893.941	19879
894.064	19750
894.186	19677
894.308	19609
894.43	19685
894.552	19814
894.674	19772
894.796	19571
894.918	19609
895.04	19708
895.161	19708
895.283	19700
895.405	19643
895.526	19643
895.648	19609
895.769	19738
895.891	19632
896.012	19769
896.134	19677
896.255	19731
896.376	19639
896.498	19757
896.619	19635
896.74	19704
896.861	19803
896.982	20008
897.103	20187
897.224	19967
897.345	19925
897.466	19753
897.587	19909
897.708	19982
897.828	19913
897.949	19814
898.07	19715
898.19	19738
898.311	19993
898.431	19849
898.552	19936
898.672	19978
898.792	19951
898.913	19906
899.033	19814
899.153	19788
899.273	19677
899.393	19674
899.513	19734
899.633	19712
899.753	19719
899.873	19540
899.993	19712
900.113	19567
900.232	19670
900.352	19594
900.472	19438
900.591	19343
900.711	19510
900.83	19308
900.95	19544
901.069	19480
901.189	19209
901.308	19065
901.427	19065
901.546	19023
901.665	19065
901.784	19072
901.904	18840
902.023	18791
902.141	18635
902.26	18578
902.379	18639
902.498	18536
902.617	18517
902.735	18532
902.854	18525
902.973	18426
903.091	18270
903.21	18155
903.328	18224
903.446	18144
903.565	18064
903.683	18064
903.801	17996
903.919	18019
904.038	18015
904.156	17775
904.274	17843
904.392	17726
904.51	17775
904.627	17779
904.745	17885
904.863	17897
904.981	17585
905.098	17573
905.216	17516
905.334	17471
905.451	17570
905.569	17471
905.686	17516
905.803	17433
905.921	17341
906.038	17406
906.155	17254
906.272	17151
906.389	17136
906.506	16953
906.623	16965
906.74	17029
906.857	16896
906.974	16984
907.091	17003
907.208	17155
907.324	17147
907.441	16866
907.557	16862
907.674	16763
907.79	16653
907.907	16675
908.023	16668
908.139	16706
908.256	16698
908.372	16542
908.488	16580
908.604	16542
908.72	16493
908.836	16538
908.952	16428
909.068	16390
909.184	16538
909.3	16519
909.415	16462
909.531	16390
909.647	16173
909.762	16215
909.878	16181
909.993	16116
910.108	16086
910.224	16112
910.339	16188
910.454	16036
910.57	15991
910.685	15888
910.8	16162
910.915	16044
911.03	15907
911.145	15816
911.259	15656
911.374	15739
911.489	15747
911.604	15660
911.718	15485
911.833	15523
911.947	15370
912.062	15401
912.176	15458
912.291	15458
912.405	15568
912.519	15698
912.633	15747
912.748	15633
912.862	15507
912.976	15408
913.09	15195
913.204	15173
913.318	15355
913.431	15519
913.545	15469
913.659	15363
913.772	15207
913.886	15237
914	15100
914.113	15184
914.226	15245
914.34	15199
914.453	14960
914.566	15237
914.68	15070
914.793	14979
914.906	14811
915.019	14705
915.132	14777
915.245	14731
915.358	14807
915.47	14762
915.583	14674
915.696	14735
915.809	14777
915.921	14876
916.034	14701
916.146	14689
916.259	14636
916.371	14777
916.483	14644
916.595	14533
916.708	14598
916.82	14583
916.932	14568
917.044	14537
917.156	14533
917.268	14317
917.38	14518
917.491	14446
917.603	14434
917.715	14556
917.826	14564
917.938	14393
918.049	14191
918.161	14313
918.272	14492
918.384	14450
918.495	14461
918.606	14202
918.717	14176
918.828	14298
918.939	14210
919.05	14107
919.161	14107
919.272	13936
919.383	14016
919.494	14218
919.604	14358
919.715	14096
919.826	13986
919.936	14138
920.047	14202
920.157	14199
920.267	14320
920.378	14111
920.488	14065
920.598	14237
920.708	14442
920.818	14324
920.928	14366
921.038	14503
921.148	14446
921.258	14134
921.368	14054
921.477	13906
921.587	13852
921.697	13807
921.806	13947
921.916	13791
922.025	13582
922.134	13597
922.244	13464
922.353	13632
922.462	13419
922.571	13350
922.68	13240
922.789	13145
922.898	13251
923.007	13126
923.116	13164
923.224	13156
923.333	13152
923.442	13103
923.55	13042
923.659	13053
923.767	13103
923.876	12996
923.984	13126
924.092	12928
924.201	12981
924.309	12932
924.417	12951
924.525	12894
924.633	12939
924.741	13753
924.849	12730
924.956	12848
925.064	12669
925.172	12563
925.279	12677
925.387	12665
925.494	12593
925.602	12677
925.709	12673
925.816	12517
925.924	12574
926.031	12703
926.138	12506
926.245	12665
926.352	12403
926.459	12582
926.566	12707
926.673	12513
926.779	12346
926.886	12346
926.993	12281
927.099	12129
927.206	12125
927.312	12197
927.419	12251
927.525	12110
927.631	12213
927.737	12114
927.843	12117
927.95	12015
928.056	11958
928.162	12022
928.267	12110
928.373	12623
928.479	12121
928.585	11904
928.69	12026
928.796	12019
928.901	11920
929.007	11756
929.112	11912
929.218	11859
929.323	11859
929.428	11745
929.533	11923
929.638	11646
929.743	11767
929.848	11729
929.953	11718
930.058	11535
930.163	11543
930.267	11471
930.372	11688
930.477	11379
930.581	11688
930.685	11573
930.79	11353
930.894	11318
930.998	11410
931.103	11417
931.207	11105
931.311	11075
931.415	10930
931.519	10729
931.623	10782
