Data from test_V78500241_2339.txt Node
Date: Fri Mar 25 15:26:08 CST 2022
User: usil
Spectrometer: V785-0024
Trigger mode: 0
Integration Time (sec): 4.000000E-1
Scans to average: 1
Nonlinearity correction enabled: false
Boxcar width: 0
Storing dark spectrum: false
XAxis mode: Wavelengths
Number of Pixels in Spectrum: 1024
>>>>>Begin Spectral Data<<<<<
801.071	27614
801.214	27416
801.356	27268
801.499	27165
801.641	27135
801.783	27062
801.926	27146
802.068	27081
802.211	26944
802.353	26819
802.496	26560
802.638	26663
802.78	26613
802.923	26453
803.065	26545
803.208	26522
803.35	26686
803.492	26754
803.635	26853
803.777	26804
803.919	26876
804.061	27138
804.204	26918
804.346	26735
804.488	26819
804.63	26872
804.773	26735
804.915	26906
805.057	26891
805.199	26785
805.341	27036
805.483	26823
805.626	26944
805.768	26933
805.91	26982
806.052	26925
806.194	26895
806.336	27020
806.478	27039
806.62	26902
806.762	27051
806.904	27249
807.046	27386
807.188	27317
807.33	27416
807.472	27485
807.614	27287
807.756	27317
807.898	27310
808.04	27192
808.182	27100
808.324	27272
808.465	27252
808.607	27420
808.749	27618
808.891	27724
809.033	27709
809.174	27690
809.316	27511
809.458	27614
809.6	27519
809.741	27637
809.883	27618
810.025	27842
810.166	27701
810.308	27793
810.45	27812
810.591	27622
810.733	27538
810.875	27564
811.016	27408
811.158	27340
811.299	27568
811.441	27595
811.582	27819
811.724	27625
811.865	27473
812.007	27568
812.148	27538
812.29	27622
812.431	27633
812.573	27895
812.714	28025
812.855	28017
812.997	28097
813.138	28306
813.279	28306
813.421	28116
813.562	27998
813.703	27911
813.845	27850
813.986	27557
814.127	27275
814.268	27325
814.41	27252
814.551	27230
814.692	27256
814.833	27283
814.974	27070
815.115	27176
815.256	26990
815.397	27173
815.539	27192
815.68	27074
815.821	26902
815.962	26975
816.103	26910
816.244	26842
816.385	26815
816.526	26815
816.666	26617
816.807	26533
816.948	26613
817.089	26594
817.23	26556
817.371	26518
817.512	26484
817.653	26541
817.793	26370
817.934	26511
818.075	26499
818.216	26480
818.356	26366
818.497	26286
818.638	26317
818.778	26115
818.919	26351
819.06	26145
819.2	26431
819.341	26457
819.481	26404
819.622	26716
819.762	26739
819.903	26754
820.043	26758
820.184	26518
820.324	26636
820.465	26667
820.605	26579
820.746	26594
820.886	26457
821.026	26609
821.167	26617
821.307	26712
821.447	26465
821.588	26514
821.728	26419
821.868	26126
822.008	25993
822.149	26008
822.289	26065
822.429	25734
822.569	25582
822.709	25639
822.849	25506
822.99	25468
823.13	25373
823.27	25434
823.41	25400
823.55	25160
823.69	25247
823.83	25392
823.97	25308
824.11	25042
824.25	25050
824.389	25190
824.529	25164
824.669	25133
824.809	25297
824.949	25179
825.089	25274
825.228	25190
825.368	24897
825.508	25015
825.648	24913
825.787	25091
825.927	25164
826.067	24943
826.206	25152
826.346	25000
826.485	25012
826.625	25042
826.765	25099
826.904	25156
827.044	24753
827.183	24738
827.323	24646
827.462	24688
827.601	24825
827.741	24620
827.88	24757
828.02	24604
828.159	24681
828.298	24635
828.437	24806
828.577	24593
828.716	24871
828.855	24582
828.994	24395
829.134	24414
829.273	24365
829.412	24350
829.551	24429
829.69	24338
829.829	24460
829.968	24612
830.107	24437
830.246	24490
830.385	24467
830.524	24391
830.663	24232
830.802	24095
830.941	23897
831.08	23958
831.219	24167
831.357	24190
831.496	24251
831.635	24095
831.774	23996
831.913	23923
832.051	23661
832.19	23741
832.329	23714
832.467	23733
832.606	23634
832.744	23691
832.883	23676
833.022	23676
833.16	23642
833.299	23661
833.437	23722
833.576	23745
833.714	23589
833.852	23798
833.991	23733
834.129	23851
834.267	23813
834.406	23691
834.544	23897
834.682	23687
834.821	23767
834.959	24026
835.097	23596
835.235	23870
835.373	23745
835.511	23722
835.65	23653
835.788	23627
835.926	23414
836.064	23482
836.202	23482
836.34	23589
836.478	23634
836.615	23482
836.753	23558
836.891	23668
837.029	23642
837.167	23520
837.305	23429
837.443	23391
837.58	23459
837.718	23356
837.856	23471
837.993	23414
838.131	23261
838.269	23258
838.406	23341
838.544	23292
838.681	23094
838.819	22995
838.956	22812
839.094	22976
839.231	22968
839.369	23014
839.506	23315
839.643	23166
839.781	22778
839.918	22820
840.055	22968
840.193	22877
840.33	22816
840.467	22839
840.604	22771
840.742	23010
840.879	22691
841.016	22801
841.153	22733
841.29	23022
841.427	22748
841.564	22809
841.701	22774
841.838	22706
841.975	22683
842.112	22797
842.249	22573
842.385	22626
842.522	22660
842.659	22694
842.796	22710
842.933	22519
843.069	22565
843.206	22577
843.343	22596
843.479	22599
843.616	22607
843.752	22276
843.889	22428
844.025	22402
844.162	22246
844.298	22386
844.435	22325
844.571	22341
844.708	22348
844.844	22519
844.98	22363
845.117	22398
845.253	22272
845.389	22230
845.525	22181
845.661	22131
845.798	22017
845.934	22093
846.07	21994
846.206	22162
846.342	22150
846.478	22021
846.614	21857
846.75	21717
846.886	21751
847.022	21755
847.158	21880
847.294	21785
847.429	21884
847.565	21819
847.701	22093
847.837	21545
847.972	21473
848.108	21682
848.244	21526
848.379	21519
848.515	21355
848.65	21329
848.786	21473
848.921	21359
849.057	21504
849.192	21477
849.328	21401
849.463	21348
849.598	21374
849.734	21329
849.869	21169
850.004	21100
850.14	21203
850.275	21199
850.41	21108
850.545	21146
850.68	21192
850.815	21146
850.95	21275
851.085	21306
851.22	21279
851.355	21256
851.49	21119
851.625	21226
851.76	21283
851.895	21036
852.03	21077
852.165	21081
852.299	21184
852.434	21207
852.569	21203
852.703	21119
852.838	21264
852.973	21226
853.107	21325
853.242	21024
853.376	21039
853.511	20876
853.645	21085
853.78	21028
853.914	20994
854.048	20975
854.183	20929
854.317	21005
854.451	21127
854.585	21024
854.72	21070
854.854	21058
854.988	20883
855.122	21017
855.256	20933
855.39	20880
855.524	21005
855.658	20982
855.792	21055
855.926	21100
856.06	21051
856.194	21051
856.327	20952
856.461	20906
856.595	20918
856.729	20937
856.862	21039
856.996	21161
857.13	21112
857.263	21119
857.397	21081
857.53	20982
857.664	21005
857.797	20975
857.931	21108
858.064	21005
858.197	21157
858.331	20975
858.464	21017
858.597	20838
858.731	20880
858.864	20872
858.997	20925
859.13	21009
859.263	20876
859.396	21123
859.529	20986
859.662	21036
859.795	21070
859.928	21176
860.061	21089
860.194	21138
860.327	20963
860.46	21001
860.592	20971
860.725	21066
860.858	21070
860.99	20872
861.123	20861
861.256	20910
861.388	21055
861.521	21462
861.653	20914
861.786	20811
861.918	20834
862.05	20762
862.183	20956
862.315	20883
862.447	20994
862.58	20963
862.712	20678
862.844	20606
862.976	20750
863.108	20800
863.24	21116
863.372	20640
863.504	20788
863.636	20731
863.768	20777
863.9	20674
864.032	20708
864.164	20720
864.296	20682
864.428	20769
864.559	20754
864.691	20777
864.823	20731
864.954	20697
865.086	20689
865.217	20613
865.349	20522
865.48	20431
865.612	20701
865.743	20826
865.875	20663
866.006	20571
866.137	20545
866.269	20575
866.4	20629
866.531	20454
866.662	20465
866.793	20526
866.924	20541
867.055	20625
867.186	20530
867.317	20480
867.448	20404
867.579	20533
867.71	20446
867.841	20484
867.972	20602
868.103	20655
868.233	20541
868.364	20507
868.495	20674
868.625	20682
868.756	20838
868.886	20689
869.017	20750
869.147	20891
869.278	20868
869.408	20788
869.539	20804
869.669	20952
869.799	20849
869.929	20883
870.06	20944
870.19	21062
870.32	21013
870.45	21100
870.58	21218
870.71	21496
870.84	21241
870.97	21165
871.1	21222
871.23	21287
871.36	21340
871.489	21268
871.619	21249
871.749	21401
871.879	21389
872.008	21488
872.138	21370
872.267	21351
872.397	21237
872.526	21203
872.656	21249
872.785	21199
872.915	21428
873.044	21382
873.173	21469
873.303	21462
873.432	21515
873.561	21553
873.69	21363
873.819	21367
873.948	21477
874.077	21389
874.206	21344
874.335	21397
874.464	21534
874.593	21473
874.722	21564
874.851	21660
874.979	21705
875.108	21530
875.237	21515
875.365	21568
875.494	21534
875.623	21614
875.751	21606
875.88	21538
876.008	21804
876.136	21766
876.265	22010
876.393	22147
876.521	22086
876.65	21953
876.778	22055
876.906	22044
877.034	21979
877.162	22059
877.29	21941
877.418	22002
877.546	22002
877.674	22048
877.802	21968
877.93	21888
878.058	21911
878.185	21884
878.313	21888
878.441	21972
878.568	21701
878.696	21865
878.824	21953
878.951	22101
879.079	22120
879.206	22341
879.333	22067
879.461	21998
879.588	22006
879.715	22181
879.842	22173
879.97	22177
880.097	21850
880.224	21804
880.351	21804
880.478	21682
880.605	21751
880.732	21812
880.859	21964
880.986	21797
881.112	21793
881.239	21698
881.366	21466
881.493	21477
881.619	21416
881.746	21424
881.872	21245
881.999	21325
882.125	21351
882.252	21454
882.378	21340
882.505	21477
882.631	21222
882.757	21112
882.883	21211
883.01	21142
883.136	21043
883.262	21024
883.388	20979
883.514	21043
883.64	21138
883.766	21017
883.892	20872
884.018	20899
884.143	21017
884.269	21131
884.395	20857
884.52	20746
884.646	20777
884.772	20594
884.897	20575
885.023	20716
885.148	20762
885.274	20819
885.399	20724
885.524	20708
885.65	20800
885.775	20674
885.9	20800
886.025	20785
886.15	20746
886.275	20632
886.4	20758
886.525	20708
886.65	20663
886.775	20667
886.9	20838
887.025	21043
887.149	20701
887.274	20575
887.399	20518
887.523	20552
887.648	20412
887.773	20400
887.897	20625
888.021	20473
888.146	20427
888.27	20518
888.395	20556
888.519	20518
888.643	20488
888.767	20446
888.891	20404
889.015	20301
889.139	20320
889.263	20298
889.387	20454
889.511	20480
889.635	20377
889.759	20301
889.883	20427
890.006	20351
890.13	20423
890.254	20214
890.377	20126
890.501	20077
890.624	20039
890.748	20210
890.871	20039
890.995	19890
891.118	19833
891.241	19932
891.364	19894
891.488	19917
891.611	19769
891.734	19928
891.857	19898
891.98	19940
892.103	19875
892.226	19890
892.349	19818
892.471	19704
892.594	19715
892.717	19890
892.839	19845
892.962	19822
893.085	19860
893.207	19776
893.33	19715
893.452	19746
893.575	19818
893.697	19704
893.819	19860
893.941	19837
894.064	19879
894.186	19765
894.308	19639
894.43	19913
894.552	19947
894.674	19791
894.796	19715
894.918	19769
895.04	19830
895.161	19830
895.283	19913
895.405	19689
895.526	19753
895.648	19696
895.769	19799
895.891	19791
896.012	19757
896.134	19769
896.255	19746
896.376	19811
896.498	19757
896.619	19944
896.74	19894
896.861	19715
896.982	20096
897.103	20256
897.224	20065
897.345	20058
897.466	20024
897.587	19947
897.708	20145
897.828	20020
897.949	20062
898.07	19791
898.19	19970
898.311	20084
898.431	19928
898.552	19951
898.672	20050
898.792	20031
898.913	19944
899.033	19845
899.153	19750
899.273	19685
899.393	19704
899.513	19852
899.633	19708
899.753	19799
899.873	19685
899.993	19864
900.113	19734
900.232	19860
900.352	19655
900.472	19605
900.591	19571
900.711	19620
900.83	19533
900.95	19681
901.069	19582
901.189	19495
901.308	19209
901.427	19126
901.546	19034
901.665	19057
901.784	19145
901.904	19000
902.023	18905
902.141	18700
902.26	18692
902.379	18795
902.498	18719
902.617	18623
902.735	18688
902.854	18589
902.973	18597
903.091	18448
903.21	18388
903.328	18353
903.446	18254
903.565	18232
903.683	18121
903.801	17950
903.919	18083
904.038	18038
904.156	17935
904.274	17920
904.392	17851
904.51	17824
904.627	17893
904.745	17889
904.863	17889
904.981	17684
905.098	17509
905.216	17608
905.334	17699
905.451	17528
905.569	17627
905.686	17566
905.803	17509
905.921	17402
906.038	17493
906.155	17440
906.272	17296
906.389	17288
906.506	17147
906.623	17151
906.74	17098
906.857	16980
906.974	17025
907.091	17193
907.208	17193
907.324	17212
907.441	16987
907.557	16847
907.674	16862
907.79	16786
907.907	16786
908.023	16965
908.139	16820
908.256	16911
908.372	16664
908.488	16721
908.604	16694
908.72	16523
908.836	16577
908.952	16523
909.068	16599
909.184	16580
909.3	16489
909.415	16611
909.531	16554
909.647	16284
909.762	16329
909.878	16314
909.993	16276
910.108	16181
910.224	16200
910.339	16207
910.454	16162
910.57	16143
910.685	15915
910.8	16223
910.915	16211
911.03	16048
911.145	15838
911.259	15835
911.374	15800
911.489	15778
911.604	15701
911.718	15599
911.833	15523
911.947	15477
912.062	15374
912.176	15580
912.291	15584
912.405	15511
912.519	15709
912.633	15873
912.748	15587
912.862	15618
912.976	15450
913.09	15275
913.204	15424
913.318	15416
913.431	15454
913.545	15587
913.659	15542
913.772	15336
913.886	15310
914	15272
914.113	15222
914.226	15374
914.34	15313
914.453	15283
914.566	15199
914.68	15138
914.793	15150
914.906	14826
915.019	14895
915.132	14773
915.245	14838
915.358	14880
915.47	14743
915.583	14861
915.696	14861
915.809	14921
915.921	14975
916.034	14800
916.146	14724
916.259	14712
916.371	14906
916.483	14914
916.595	14754
916.708	14674
916.82	14674
916.932	14606
917.044	14659
917.156	14651
917.268	14579
917.38	14560
917.491	14499
917.603	14533
917.715	14598
917.826	14648
917.938	14469
918.049	14362
918.161	14492
918.272	14564
918.384	14575
918.495	14457
918.606	14423
918.717	14202
918.828	14294
918.939	14336
919.05	14199
919.161	14244
919.272	14024
919.383	14130
919.494	14305
919.604	14427
919.715	14240
919.826	14145
919.936	14218
920.047	14275
920.157	14263
920.267	14412
920.378	14267
920.488	14244
920.598	14381
920.708	14415
920.818	14328
920.928	14385
921.038	14473
921.148	14465
921.258	14233
921.368	14111
921.477	14008
921.587	13887
921.697	13841
921.806	14012
921.916	13746
922.025	13708
922.134	13616
922.244	13590
922.353	13681
922.462	13449
922.571	13434
922.68	13301
922.789	13297
922.898	13232
923.007	13175
923.116	13259
923.224	13266
923.333	13213
923.442	13133
923.55	13129
923.659	13129
923.767	13099
923.876	13072
923.984	13126
924.092	13076
924.201	13012
924.309	13000
924.417	13031
924.525	12905
924.633	12909
924.741	13875
924.849	12829
924.956	12875
925.064	12692
925.172	12719
925.279	12730
925.387	12673
925.494	12654
925.602	12859
925.709	12844
925.816	12616
925.924	12715
926.031	12719
926.138	12589
926.245	12631
926.352	12506
926.459	12757
926.566	12719
926.673	12623
926.779	12513
926.886	12388
926.993	12251
927.099	12285
927.206	12197
927.312	12258
927.419	12334
927.525	12292
927.631	12334
927.737	12178
927.843	12079
927.95	11939
928.056	12102
928.162	12079
928.267	12175
928.373	12669
928.479	12194
928.585	11923
928.69	12083
928.796	12121
928.901	12064
929.007	11866
929.112	11912
929.218	11939
929.323	11920
929.428	11973
929.533	11939
929.638	11809
929.743	11786
929.848	11798
929.953	11752
930.058	11688
930.163	11535
930.267	11577
930.372	11657
930.477	11429
930.581	11676
930.685	11619
930.79	11490
930.894	11429
930.998	11444
931.103	11520
931.207	11185
931.311	11151
931.415	10930
931.519	10763
931.623	10835
