Data from test_V78500241_1930.txt Node
Date: Fri Mar 25 15:23:17 CST 2022
User: usil
Spectrometer: V785-0024
Trigger mode: 0
Integration Time (sec): 4.000000E-1
Scans to average: 1
Nonlinearity correction enabled: false
Boxcar width: 0
Storing dark spectrum: false
XAxis mode: Wavelengths
Number of Pixels in Spectrum: 1024
>>>>>Begin Spectral Data<<<<<
801.071	27694
801.214	27545
801.356	27435
801.499	27431
801.641	27294
801.783	27237
801.926	27325
802.068	27214
802.211	27207
802.353	27074
802.496	26948
802.638	26998
802.78	26864
802.923	26823
803.065	26800
803.208	26823
803.35	26906
803.492	27024
803.635	27142
803.777	26815
803.919	26986
804.061	27310
804.204	27135
804.346	27032
804.488	26986
804.63	26998
804.773	27001
804.915	27161
805.057	27180
805.199	27131
805.341	27131
805.483	27203
805.626	27150
805.768	27108
805.91	27161
806.052	27218
806.194	27138
806.336	27348
806.478	27169
806.62	27138
806.762	27294
806.904	27530
807.046	27633
807.188	27660
807.33	27652
807.472	27682
807.614	27507
807.756	27553
807.898	27477
808.04	27389
808.182	27348
808.324	27534
808.465	27488
808.607	27724
808.749	27854
808.891	27781
809.033	27937
809.174	27861
809.316	27789
809.458	27854
809.6	27930
809.741	28128
809.883	28067
810.025	28185
810.166	28097
810.308	28185
810.45	27953
810.591	28036
810.733	27736
810.875	27793
811.016	27778
811.158	27766
811.299	27914
811.441	27998
811.582	28063
811.724	27808
811.865	27819
812.007	27720
812.148	27781
812.29	27835
812.431	28029
812.573	28234
812.714	28303
812.855	28234
812.997	28436
813.138	28531
813.279	28367
813.421	28337
813.562	28322
813.703	28078
813.845	27994
813.986	27759
814.127	27709
814.268	27572
814.41	27526
814.551	27667
814.692	27576
814.833	27420
814.974	27542
815.115	27462
815.256	27386
815.397	27374
815.539	27397
815.68	27317
815.821	27077
815.962	27268
816.103	27431
816.244	27237
816.385	27085
816.526	27043
816.666	26769
816.807	26682
816.948	26891
817.089	26921
817.23	26807
817.371	26834
817.512	26670
817.653	26712
817.793	26727
817.934	26667
818.075	26727
818.216	26895
818.356	26762
818.497	26636
818.638	26514
818.778	26431
818.919	26450
819.06	26583
819.2	26686
819.341	26693
819.481	26845
819.622	26967
819.762	27207
819.903	27017
820.043	27032
820.184	27017
820.324	26891
820.465	26979
820.605	26960
820.746	27009
820.886	26701
821.026	26864
821.167	26891
821.307	26975
821.447	26674
821.588	26640
821.728	26621
821.868	26362
822.008	26317
822.149	26229
822.289	26195
822.429	26115
822.569	25902
822.709	25951
822.849	26001
822.99	25852
823.13	25734
823.27	25662
823.41	25563
823.55	25525
823.69	25590
823.83	25495
823.97	25510
824.11	25384
824.25	25396
824.389	25438
824.529	25578
824.669	25510
824.809	25529
824.949	25468
825.089	25457
825.228	25377
825.368	25358
825.508	25324
825.648	25274
825.787	25381
825.927	25354
826.067	25354
826.206	25270
826.346	25285
826.485	25259
826.625	25247
826.765	25362
826.904	25297
827.044	25042
827.183	25046
827.323	25091
827.462	25050
827.601	24951
827.741	24958
827.88	25034
828.02	24806
828.159	24954
828.298	24954
828.437	24977
828.577	24886
828.716	25099
828.855	24989
828.994	24749
829.134	24738
829.273	24772
829.412	24719
829.551	24715
829.69	24726
829.829	24669
829.968	24741
830.107	24844
830.246	24707
830.385	24692
830.524	24604
830.663	24323
830.802	24391
830.941	24281
831.08	24311
831.219	24536
831.357	24422
831.496	24604
831.635	24262
831.774	24254
831.913	24186
832.051	24167
832.19	24098
832.329	24076
832.467	24030
832.606	23889
832.744	23927
832.883	24087
833.022	23954
833.16	23923
833.299	23996
833.437	24057
833.576	24167
833.714	24015
833.852	24022
833.991	24155
834.129	24186
834.267	24087
834.406	24098
834.544	24155
834.682	24064
834.821	24117
834.959	24178
835.097	23920
835.235	24015
835.373	24045
835.511	24079
835.65	23988
835.788	23882
835.926	23668
836.064	23707
836.202	23828
836.34	24030
836.478	24095
836.615	23901
836.753	23863
836.891	23950
837.029	24102
837.167	23878
837.305	23843
837.443	23714
837.58	23718
837.718	23741
837.856	23794
837.993	23813
838.131	23752
838.269	23554
838.406	23733
838.544	23623
838.681	23471
838.819	23421
838.956	23235
839.094	23254
839.231	23242
839.369	23379
839.506	23608
839.643	23459
839.781	23094
839.918	23140
840.055	23303
840.193	23178
840.33	23102
840.467	23102
840.604	23246
840.742	23417
840.879	22984
841.016	23044
841.153	22999
841.29	23231
841.427	23056
841.564	23284
841.701	23261
841.838	23090
841.975	23105
842.112	23067
842.249	23006
842.385	22946
842.522	23052
842.659	23025
842.796	22980
842.933	22858
843.069	22904
843.206	22850
843.343	22991
843.479	22976
843.616	22881
843.752	22649
843.889	22713
844.025	22763
844.162	22588
844.298	22717
844.435	22717
844.571	22664
844.708	22755
844.844	22862
844.98	22824
845.117	22664
845.253	22538
845.389	22535
845.525	22660
845.661	22500
845.798	22409
845.934	22352
846.07	22348
846.206	22424
846.342	22554
846.478	22344
846.614	22242
846.75	22139
846.886	22166
847.022	22139
847.158	22177
847.294	22139
847.429	22272
847.565	22051
847.701	22341
847.837	21918
847.972	21888
848.108	22055
848.244	21926
848.379	21789
848.515	21747
848.65	21663
848.786	21732
848.921	21720
849.057	21846
849.192	21732
849.328	21759
849.463	21770
849.598	21713
849.734	21618
849.869	21580
850.004	21496
850.14	21580
850.275	21549
850.41	21519
850.545	21545
850.68	21469
850.815	21439
850.95	21408
851.085	21660
851.22	21568
851.355	21553
851.49	21511
851.625	21458
851.76	21462
851.895	21382
852.03	21378
852.165	21310
852.299	21576
852.434	21591
852.569	21485
852.703	21492
852.838	21519
852.973	21660
853.107	21671
853.242	21447
853.376	21317
853.511	21260
853.645	21302
853.78	21454
853.914	21416
854.048	21382
854.183	21294
854.317	21306
854.451	21515
854.585	21329
854.72	21359
854.854	21405
854.988	21329
855.122	21275
855.256	21264
855.39	21332
855.524	21412
855.658	21454
855.792	21317
855.926	21412
856.06	21431
856.194	21511
856.327	21313
856.461	21230
856.595	21351
856.729	21329
856.862	21359
856.996	21469
857.13	21370
857.263	21389
857.397	21443
857.53	21302
857.664	21405
857.797	21382
857.931	21443
858.064	21317
858.197	21393
858.331	21268
858.464	21237
858.597	21279
858.731	21332
858.864	21218
858.997	21302
859.13	21378
859.263	21378
859.396	21469
859.529	21332
859.662	21207
859.795	21325
859.928	21336
860.061	21488
860.194	21576
860.327	21416
860.46	21355
860.592	21466
860.725	21458
860.858	21473
860.99	21416
861.123	21393
861.256	21317
861.388	21408
861.521	22021
861.653	21112
861.786	21123
861.918	21146
862.05	21279
862.183	21176
862.315	21180
862.447	21310
862.58	21264
862.712	21017
862.844	21013
862.976	21127
863.108	21154
863.24	21462
863.372	21020
863.504	21077
863.636	20906
863.768	21169
863.9	21005
864.032	20956
864.164	21066
864.296	21066
864.428	21074
864.559	21112
864.691	21085
864.823	21089
864.954	21024
865.086	21036
865.217	20990
865.349	20948
865.48	20883
865.612	20952
865.743	21131
865.875	21020
866.006	20830
866.137	20857
866.269	21017
866.4	20914
866.531	20918
866.662	20899
866.793	20781
866.924	20933
867.055	20902
867.186	20921
867.317	20876
867.448	20739
867.579	20895
867.71	20754
867.841	20800
867.972	20921
868.103	20899
868.233	20834
868.364	20899
868.495	20876
868.625	21001
868.756	21310
868.886	20998
869.017	21058
869.147	21279
869.278	21249
869.408	21085
869.539	21157
869.669	21230
869.799	21252
869.929	21329
870.06	21176
870.19	21435
870.32	21291
870.45	21488
870.58	21504
870.71	21576
870.84	21557
870.97	21572
871.1	21553
871.23	21690
871.36	21690
871.489	21561
871.619	21606
871.749	21770
871.879	21606
872.008	21819
872.138	21679
872.267	21660
872.397	21625
872.526	21553
872.656	21580
872.785	21504
872.915	21739
873.044	21755
873.173	21797
873.303	21880
873.432	21774
873.561	21823
873.69	21838
873.819	21751
873.948	21876
874.077	21766
874.206	21709
874.335	21755
874.464	21888
874.593	21994
874.722	21949
874.851	22006
874.979	21979
875.108	22086
875.237	21945
875.365	21911
875.494	21956
875.623	21930
875.751	21998
875.88	22025
876.008	22021
876.136	22185
876.265	22280
876.393	22421
876.521	22398
876.65	22459
876.778	22348
876.906	22219
877.034	22238
877.162	22371
877.29	22306
877.418	22272
877.546	22246
877.674	22280
877.802	22238
877.93	22219
878.058	22344
878.185	22181
878.313	22230
878.441	22238
878.568	22196
878.696	22246
878.824	22344
878.951	22474
879.079	22405
879.206	22584
879.333	22459
879.461	22299
879.588	22375
879.715	22421
879.842	22504
879.97	22280
880.097	22109
880.224	22002
880.351	22139
880.478	22276
880.605	22032
880.732	22124
880.859	22325
880.986	22268
881.112	22147
881.239	22032
881.366	21876
881.493	21797
881.619	21698
881.746	21774
881.872	21747
881.999	21625
882.125	21534
882.252	21903
882.378	21614
882.505	21842
882.631	21545
882.757	21485
882.883	21424
883.01	21504
883.136	21294
883.262	21180
883.388	21211
883.514	21435
883.64	21344
883.766	21211
883.892	21233
884.018	21176
884.143	21298
884.269	21519
884.395	21135
884.52	21047
884.646	21039
884.772	20971
884.897	21024
885.023	21055
885.148	21077
885.274	21199
885.399	21150
885.524	20910
885.65	21119
885.775	21108
885.9	20986
886.025	21066
886.15	21195
886.275	20941
886.4	21020
886.525	21005
886.65	20876
886.775	20948
886.9	21173
887.025	21256
887.149	20979
887.274	20868
887.399	20842
887.523	20819
887.648	20739
887.773	20777
887.897	20910
888.021	20872
888.146	20857
888.27	20902
888.395	21009
888.519	20891
888.643	20902
888.767	20864
888.891	20750
889.015	20648
889.139	20800
889.263	20598
889.387	20602
889.511	20785
889.635	20796
889.759	20552
889.883	20518
890.006	20541
890.13	20621
890.254	20522
890.377	20564
890.501	20415
890.624	20377
890.748	20324
890.871	20317
890.995	20309
891.118	20103
891.241	20069
891.364	20328
891.488	20161
891.611	20225
891.734	20191
891.857	20286
891.98	20218
892.103	20275
892.226	20210
892.349	20145
892.471	19978
892.594	20096
892.717	20138
892.839	20035
892.962	20206
893.085	20180
893.207	20073
893.33	19864
893.452	19955
893.575	20168
893.697	20035
893.819	20271
893.941	20248
894.064	20202
894.186	20016
894.308	19963
894.43	20164
894.552	20119
894.674	20138
894.796	19959
894.918	20073
895.04	19982
895.161	20248
895.283	20149
895.405	20069
895.526	20073
895.648	20069
895.769	20046
895.891	20103
896.012	20180
896.134	20046
896.255	20122
896.376	20012
896.498	20081
896.619	20142
896.74	20024
896.861	20115
896.982	20415
897.103	20530
897.224	20389
897.345	20366
897.466	20298
897.587	20328
897.708	20442
897.828	20290
897.949	20263
898.07	20183
898.19	20214
898.311	20294
898.431	20164
898.552	20233
898.672	20252
898.792	20320
898.913	20252
899.033	20164
899.153	20081
899.273	20012
899.393	20069
899.513	20115
899.633	20020
899.753	20027
899.873	20008
899.993	20046
900.113	19951
900.232	19955
900.352	19951
900.472	19841
900.591	19727
900.711	19734
900.83	19708
900.95	19860
901.069	19997
901.189	19753
901.308	19373
901.427	19381
901.546	19312
901.665	19411
901.784	19419
901.904	19213
902.023	19198
902.141	18989
902.26	18954
902.379	18905
902.498	18772
902.617	18928
902.735	18993
902.854	18798
902.973	18848
903.091	18658
903.21	18616
903.328	18563
903.446	18490
903.565	18388
903.683	18426
903.801	18266
903.919	18308
904.038	18266
904.156	18239
904.274	18213
904.392	18152
904.51	18125
904.627	18114
904.745	18167
904.863	18159
904.981	17946
905.098	17714
905.216	17893
905.334	17927
905.451	17882
905.569	17695
905.686	17870
905.803	17805
905.921	17718
906.038	17729
906.155	17676
906.272	17543
906.389	17543
906.506	17360
906.623	17402
906.74	17303
906.857	17212
906.974	17360
907.091	17356
907.208	17429
907.324	17417
907.441	17181
907.557	17071
907.674	17094
907.79	16999
907.907	17071
908.023	17098
908.139	16995
908.256	17037
908.372	16957
908.488	17014
908.604	16835
908.72	16854
908.836	16881
908.952	16862
909.068	16816
909.184	16915
909.3	16828
909.415	16854
909.531	16744
909.647	16607
909.762	16508
909.878	16546
909.993	16558
910.108	16538
910.224	16504
910.339	16485
910.454	16394
910.57	16333
910.685	16249
910.8	16504
910.915	16497
911.03	16287
911.145	16090
911.259	16044
911.374	16124
911.489	15934
911.604	16036
911.718	15854
911.833	15743
911.947	15671
912.062	15675
912.176	15831
912.291	15720
912.405	15770
912.519	16059
912.633	16059
912.748	15903
912.862	15850
912.976	15713
913.09	15591
913.204	15610
913.318	15679
913.431	15819
913.545	15804
913.659	15800
913.772	15644
913.886	15564
914	15519
914.113	15557
914.226	15637
914.34	15553
914.453	15325
914.566	15549
914.68	15302
914.793	15355
914.906	15287
915.019	15112
915.132	15058
915.245	15138
915.358	15119
915.47	15116
915.583	15066
915.696	15020
915.809	15252
915.921	15146
916.034	14975
916.146	15005
916.259	15001
916.371	15100
916.483	14967
916.595	14883
916.708	14948
916.82	14902
916.932	14834
917.044	14853
917.156	14788
917.268	14705
917.38	14811
917.491	14720
917.603	14754
917.715	14804
917.826	14857
917.938	14670
918.049	14457
918.161	14705
918.272	14815
918.384	14720
918.495	14568
918.606	14537
918.717	14461
918.828	14575
918.939	14480
919.05	14374
919.161	14442
919.272	14240
919.383	14332
919.494	14533
919.604	14621
919.715	14598
919.826	14473
919.936	14442
920.047	14590
920.157	14389
920.267	14507
920.378	14355
920.488	14366
920.598	14644
920.708	14823
920.818	14560
920.928	14560
921.038	14693
921.148	14712
921.258	14415
921.368	14317
921.477	14153
921.587	14172
921.697	14138
921.806	14229
921.916	14069
922.025	13887
922.134	13883
922.244	13780
922.353	13780
922.462	13674
922.571	13658
922.68	13487
922.789	13521
922.898	13594
923.007	13434
923.116	13460
923.224	13624
923.333	13499
923.442	13369
923.55	13270
923.659	13327
923.767	13438
923.876	13293
923.984	13346
924.092	13217
924.201	13206
924.309	13168
924.417	13270
924.525	13194
924.633	13137
924.741	14172
924.849	12932
924.956	13080
925.064	12993
925.172	12901
925.279	12928
925.387	12901
925.494	12840
925.602	13015
925.709	12867
925.816	12829
925.924	12829
926.031	12951
926.138	12779
926.245	12806
926.352	12764
926.459	12833
926.566	12882
926.673	12787
926.779	12623
926.886	12616
926.993	12551
927.099	12475
927.206	12433
927.312	12403
927.419	12566
927.525	12563
927.631	12475
927.737	12315
927.843	12422
927.95	12175
928.056	12319
928.162	12262
928.267	12304
928.373	12840
928.479	12292
928.585	12140
928.69	12289
928.796	12254
928.901	12201
929.007	12007
929.112	12049
929.218	12087
929.323	11996
929.428	11988
929.533	12213
929.638	11969
929.743	11977
929.848	12064
929.953	11885
930.058	11832
930.163	11741
930.267	11722
930.372	11714
930.477	11668
930.581	11908
930.685	11703
930.79	11619
930.894	11642
930.998	11570
931.103	11688
931.207	11280
931.311	11315
931.415	11212
931.519	10949
931.623	10968
