Data from test_V78500241_2844.txt Node
Date: Fri Mar 25 15:29:39 CST 2022
User: usil
Spectrometer: V785-0024
Trigger mode: 0
Integration Time (sec): 4.000000E-1
Scans to average: 1
Nonlinearity correction enabled: false
Boxcar width: 0
Storing dark spectrum: false
XAxis mode: Wavelengths
Number of Pixels in Spectrum: 1024
>>>>>Begin Spectral Data<<<<<
801.071	27226
801.214	27138
801.356	26876
801.499	26781
801.641	26792
801.783	26667
801.926	26731
802.068	26815
802.211	26549
802.353	26625
802.496	26412
802.638	26461
802.78	26450
802.923	26248
803.065	26305
803.208	26355
803.35	26362
803.492	26412
803.635	26590
803.777	26431
803.919	26492
804.061	26849
804.204	26476
804.346	26423
804.488	26362
804.63	26511
804.773	26442
804.915	26575
805.057	26503
805.199	26499
805.341	26564
805.483	26724
805.626	26522
805.768	26473
805.91	26495
806.052	26606
806.194	26476
806.336	26686
806.478	26629
806.62	26621
806.762	26678
806.904	26918
807.046	27108
807.188	27036
807.33	27093
807.472	27077
807.614	26895
807.756	26952
807.898	26826
808.04	26815
808.182	26880
808.324	26796
808.465	26864
808.607	27089
808.749	27233
808.891	27245
809.033	27416
809.174	27306
809.316	27214
809.458	27211
809.6	27237
809.741	27412
809.883	27325
810.025	27515
810.166	27477
810.308	27507
810.45	27386
810.591	27427
810.733	27211
810.875	27214
811.016	27222
811.158	27154
811.299	27450
811.441	27504
811.582	27294
811.724	27245
811.865	27218
812.007	27081
812.148	27214
812.29	27085
812.431	27245
812.573	27614
812.714	27481
812.855	27720
812.997	27838
813.138	27857
813.279	27888
813.421	27679
813.562	27694
813.703	27492
813.845	27313
813.986	27146
814.127	27066
814.268	26902
814.41	26842
814.551	26800
814.692	26940
814.833	26667
814.974	26880
815.115	26842
815.256	26830
815.397	26781
815.539	26724
815.68	26807
815.821	26613
815.962	26686
816.103	26621
816.244	26602
816.385	26434
816.526	26343
816.666	26172
816.807	26111
816.948	26111
817.089	26267
817.23	26153
817.371	26176
817.512	26088
817.653	25974
817.793	26107
817.934	26039
818.075	26119
818.216	26149
818.356	26024
818.497	25898
818.638	25799
818.778	25811
818.919	25871
819.06	25947
819.2	25970
819.341	26050
819.481	26119
819.622	26187
819.762	26358
819.903	26343
820.043	26210
820.184	26339
820.324	26195
820.465	26271
820.605	26225
820.746	26328
820.886	26122
821.026	26187
821.167	26107
821.307	26077
821.447	26065
821.588	25890
821.728	25940
821.868	25746
822.008	25491
822.149	25548
822.289	25514
822.429	25297
822.569	25327
822.709	25057
822.849	25190
822.99	25050
823.13	24985
823.27	25061
823.41	24939
823.55	24673
823.69	24920
823.83	24779
823.97	24897
824.11	24658
824.25	24604
824.389	24772
824.529	24753
824.669	24703
824.809	24894
824.949	24757
825.089	24787
825.228	24730
825.368	24593
825.508	24490
825.648	24517
825.787	24597
825.927	24566
826.067	24505
826.206	24513
826.346	24563
826.485	24715
826.625	24460
826.765	24601
826.904	24616
827.044	24311
827.183	24391
827.323	24152
827.462	24380
827.601	24296
827.741	24281
827.88	24247
828.02	24125
828.159	24209
828.298	24216
828.437	24220
828.577	24106
828.716	24357
828.855	24186
828.994	24026
829.134	23988
829.273	23969
829.412	23992
829.551	23897
829.69	24091
829.829	24011
829.968	24102
830.107	24045
830.246	24018
830.385	23878
830.524	23847
830.663	23828
830.802	23562
830.941	23497
831.08	23554
831.219	23722
831.357	23649
831.496	23912
831.635	23592
831.774	23471
831.913	23562
832.051	23444
832.19	23364
832.329	23356
832.467	23254
832.606	23227
832.744	23102
832.883	23204
833.022	23189
833.16	23151
833.299	23322
833.437	23303
833.576	23311
833.714	23360
833.852	23398
833.991	23368
834.129	23383
834.267	23459
834.406	23307
834.544	23414
834.682	23277
834.821	23299
834.959	23471
835.097	23364
835.235	23212
835.373	23395
835.511	23417
835.65	23166
835.788	23033
835.926	23044
836.064	22889
836.202	22892
836.34	23075
836.478	23193
836.615	23094
836.753	23086
836.891	23235
837.029	23178
837.167	23044
837.305	23086
837.443	23124
837.58	22965
837.718	23041
837.856	23090
837.993	22949
838.131	23079
838.269	22927
838.406	22896
838.544	22854
838.681	22713
838.819	22615
838.956	22478
839.094	22588
839.231	22531
839.369	22744
839.506	22946
839.643	22706
839.781	22455
839.918	22344
840.055	22455
840.193	22512
840.33	22363
840.467	22382
840.604	22447
840.742	22687
840.879	22348
841.016	22390
841.153	22211
841.29	22398
841.427	22428
841.564	22455
841.701	22306
841.838	22466
841.975	22238
842.112	22318
842.249	22287
842.385	22226
842.522	22455
842.659	22276
842.796	22147
842.933	22253
843.069	22226
843.206	22150
843.343	22207
843.479	22139
843.616	22204
843.752	22002
843.889	22048
844.025	22032
844.162	21842
844.298	22105
844.435	21937
844.571	21873
844.708	22070
844.844	22074
844.98	22105
845.117	21945
845.253	21667
845.389	21888
845.525	21907
845.661	21884
845.798	21648
845.934	21766
846.07	21549
846.206	21686
846.342	21850
846.478	21507
846.614	21507
846.75	21310
846.886	21389
847.022	21405
847.158	21462
847.294	21431
847.429	21424
847.565	21393
847.701	21580
847.837	21184
847.972	21123
848.108	21344
848.244	21222
848.379	20971
848.515	20925
848.65	20944
848.786	21036
848.921	21005
849.057	21119
849.192	21131
849.328	21058
849.463	20944
849.598	20998
849.734	21043
849.869	20910
850.004	20724
850.14	20796
850.275	20826
850.41	20697
850.545	20769
850.68	20727
850.815	20727
850.95	20788
851.085	20887
851.22	20842
851.355	20807
851.49	20750
851.625	20785
851.76	20727
851.895	20716
852.03	20667
852.165	20670
852.299	20769
852.434	20769
852.569	20838
852.703	20838
852.838	20815
852.973	20872
853.107	20815
853.242	20686
853.376	20667
853.511	20533
853.645	20503
853.78	20735
853.914	20609
854.048	20568
854.183	20488
854.317	20678
854.451	20792
854.585	20682
854.72	20651
854.854	20686
854.988	20476
855.122	20587
855.256	20446
855.39	20674
855.524	20693
855.658	20629
855.792	20590
855.926	20648
856.06	20648
856.194	20636
856.327	20594
856.461	20522
856.595	20514
856.729	20473
856.862	20697
856.996	20511
857.13	20651
857.263	20678
857.397	20644
857.53	20571
857.664	20629
857.797	20648
857.931	20823
858.064	20655
858.197	20613
858.331	20556
858.464	20465
858.597	20476
858.731	20594
858.864	20518
858.997	20530
859.13	20511
859.263	20537
859.396	20636
859.529	20511
859.662	20503
859.795	20518
859.928	20625
860.061	20701
860.194	20773
860.327	20636
860.46	20587
860.592	20746
860.725	20705
860.858	20682
860.99	20625
861.123	20537
861.256	20571
861.388	20629
861.521	21195
861.653	20495
861.786	20408
861.918	20476
862.05	20469
862.183	20579
862.315	20556
862.447	20579
862.58	20454
862.712	20358
862.844	20298
862.976	20290
863.108	20408
863.24	20712
863.372	20320
863.504	20256
863.636	20267
863.768	20324
863.9	20317
864.032	20252
864.164	20263
864.296	20393
864.428	20450
864.559	20377
864.691	20404
864.823	20328
864.954	20244
865.086	20187
865.217	20111
865.349	20199
865.48	20202
865.612	20218
865.743	20301
865.875	20199
866.006	20225
866.137	20286
866.269	20084
866.4	20271
866.531	20119
866.662	20062
866.793	20168
866.924	20073
867.055	20149
867.186	20145
867.317	20161
867.448	20111
867.579	20062
867.71	20107
867.841	20168
867.972	20145
868.103	20092
868.233	20225
868.364	20263
868.495	20153
868.625	20412
868.756	20476
868.886	20343
869.017	20450
869.147	20457
869.278	20514
869.408	20431
869.539	20362
869.669	20564
869.799	20438
869.929	20522
870.06	20552
870.19	20781
870.32	20590
870.45	20724
870.58	20902
870.71	20906
870.84	20921
870.97	20834
871.1	20804
871.23	20971
871.36	21032
871.489	20937
871.619	20986
871.749	20971
871.879	21043
872.008	21081
872.138	21039
872.267	20986
872.397	20891
872.526	20762
872.656	20849
872.785	20891
872.915	21055
873.044	21085
873.173	21009
873.303	21051
873.432	21161
873.561	21093
873.69	21020
873.819	20975
873.948	21058
874.077	21032
874.206	20956
874.335	20925
874.464	21218
874.593	21325
874.722	21275
874.851	21302
874.979	21283
875.108	21233
875.237	21192
875.365	21154
875.494	21313
875.623	21393
875.751	21344
875.88	21355
876.008	21447
876.136	21485
876.265	21663
876.393	21759
876.521	21732
876.65	21717
876.778	21633
876.906	21557
877.034	21580
877.162	21629
877.29	21682
877.418	21766
877.546	21629
877.674	21488
877.802	21618
877.93	21568
878.058	21603
878.185	21553
878.313	21473
878.441	21469
878.568	21450
878.696	21545
878.824	21633
878.951	21667
879.079	21854
879.206	21915
879.333	21770
879.461	21587
879.588	21606
879.715	21842
879.842	21911
879.97	21660
880.097	21538
880.224	21412
880.351	21405
880.478	21500
880.605	21363
880.732	21469
880.859	21580
880.986	21412
881.112	21534
881.239	21378
881.366	21245
881.493	21131
881.619	21051
881.746	20994
881.872	21077
881.999	21009
882.125	21043
882.252	21039
882.378	20971
882.505	21096
882.631	20880
882.757	20804
882.883	20811
883.01	20758
883.136	20712
883.262	20629
883.388	20442
883.514	20773
883.64	20781
883.766	20571
883.892	20621
884.018	20564
884.143	20644
884.269	20682
884.395	20446
884.52	20343
884.646	20389
884.772	20267
884.897	20263
885.023	20374
885.148	20419
885.274	20499
885.399	20492
885.524	20362
885.65	20419
885.775	20434
885.9	20301
886.025	20484
886.15	20385
886.275	20339
886.4	20358
886.525	20393
886.65	20149
886.775	20225
886.9	20465
887.025	20503
887.149	20434
887.274	20073
887.399	20100
887.523	20138
887.648	20020
887.773	20001
887.897	20214
888.021	20271
888.146	20050
888.27	20271
888.395	20122
888.519	20210
888.643	20115
888.767	20122
888.891	20005
889.015	19856
889.139	19955
889.263	19890
889.387	19940
889.511	20134
889.635	20084
889.759	19989
889.883	19890
890.006	19951
890.13	20077
890.254	19868
890.377	19963
890.501	19685
890.624	19685
890.748	19719
890.871	19563
890.995	19430
891.118	19422
891.241	19620
891.364	19563
891.488	19620
891.611	19601
891.734	19529
891.857	19609
891.98	19445
892.103	19677
892.226	19506
892.349	19533
892.471	19270
892.594	19358
892.717	19426
892.839	19457
892.962	19506
893.085	19567
893.207	19400
893.33	19259
893.452	19350
893.575	19464
893.697	19324
893.819	19655
893.941	19571
894.064	19552
894.186	19365
894.308	19419
894.43	19609
894.552	19719
894.674	19552
894.796	19381
894.918	19419
895.04	19514
895.161	19453
895.283	19525
895.405	19331
895.526	19491
895.648	19415
895.769	19521
895.891	19445
896.012	19445
896.134	19556
896.255	19499
896.376	19422
896.498	19483
896.619	19510
896.74	19381
896.861	19529
896.982	19898
897.103	19932
897.224	19628
897.345	19750
897.466	19643
897.587	19670
897.708	19849
897.828	19700
897.949	19567
898.07	19411
898.19	19632
898.311	19734
898.431	19651
898.552	19677
898.672	19814
898.792	19795
898.913	19590
899.033	19521
899.153	19472
899.273	19483
899.393	19339
899.513	19529
899.633	19419
899.753	19487
899.873	19350
899.993	19487
900.113	19430
900.232	19464
900.352	19293
900.472	19362
900.591	19259
900.711	19346
900.83	19217
900.95	19335
901.069	19381
901.189	19179
901.308	18954
901.427	18840
901.546	18795
901.665	18825
901.784	18848
901.904	18779
902.023	18601
902.141	18528
902.26	18327
902.379	18445
902.498	18327
902.617	18330
902.735	18330
902.854	18369
902.973	18190
903.091	18022
903.21	18057
903.328	18091
903.446	17939
903.565	17771
903.683	17980
903.801	17771
903.919	17733
904.038	17687
904.156	17771
904.274	17657
904.392	17653
904.51	17668
904.627	17558
904.745	17687
904.863	17718
904.981	17356
905.098	17246
905.216	17337
905.334	17360
905.451	17360
905.569	17368
905.686	17208
905.803	17216
905.921	17075
906.038	17162
906.155	17094
906.272	16999
906.389	17048
906.506	16805
906.623	16778
906.74	16835
906.857	16691
906.974	16839
907.091	16866
907.208	16908
907.324	16801
907.441	16573
907.557	16592
907.674	16596
907.79	16531
907.907	16493
908.023	16504
908.139	16577
908.256	16504
908.372	16375
908.488	16432
908.604	16344
908.72	16181
908.836	16341
908.952	16230
909.068	16192
909.184	16413
909.3	16242
909.415	16276
909.531	16207
909.647	16071
909.762	15960
909.878	15983
909.993	16013
910.108	15956
910.224	15827
910.339	15937
910.454	15873
910.57	15778
910.685	15759
910.8	16036
910.915	15884
911.03	15850
911.145	15576
911.259	15580
911.374	15629
911.489	15633
911.604	15534
911.718	15355
911.833	15389
911.947	15272
912.062	15268
912.176	15428
912.291	15477
912.405	15351
912.519	15549
912.633	15549
912.748	15382
912.862	15317
912.976	15161
913.09	15127
913.204	15074
913.318	15157
913.431	15226
913.545	15260
913.659	15252
913.772	15108
913.886	14975
914	14975
914.113	15013
914.226	15135
914.34	15013
914.453	14853
914.566	14956
914.68	14925
914.793	14861
914.906	14735
915.019	14648
915.132	14587
915.245	14610
915.358	14598
915.47	14625
915.583	14575
915.696	14667
915.809	14667
915.921	14758
916.034	14598
916.146	14511
916.259	14571
916.371	14613
916.483	14590
916.595	14393
916.708	14473
916.82	14465
916.932	14442
917.044	14393
917.156	14370
917.268	14244
917.38	14248
917.491	14290
917.603	14343
917.715	14278
917.826	14408
917.938	14202
918.049	14233
918.161	14221
918.272	14351
918.384	14309
918.495	14145
918.606	14054
918.717	13993
918.828	14020
918.939	14100
919.05	13947
919.161	13947
919.272	13811
919.383	13852
919.494	14111
919.604	14313
919.715	14043
919.826	13951
919.936	14046
920.047	14008
920.157	14005
920.267	14233
920.378	14046
920.488	13959
920.598	14084
920.708	14355
920.818	14145
920.928	14145
921.038	14336
921.148	14339
921.258	13997
921.368	13852
921.477	13738
921.587	13807
921.697	13696
921.806	13818
921.916	13609
922.025	13468
922.134	13400
922.244	13369
922.353	13392
922.462	13251
922.571	13209
922.68	13084
922.789	13069
922.898	13069
923.007	13027
923.116	13095
923.224	13008
923.333	12962
923.442	12894
923.55	12894
923.659	12989
923.767	12920
923.876	12894
923.984	12916
924.092	12779
924.201	12840
924.309	12837
924.417	12844
924.525	12848
924.633	12749
924.741	13681
924.849	12544
924.956	12707
925.064	12585
925.172	12540
925.279	12486
925.387	12506
925.494	12540
925.602	12525
925.709	12452
925.816	12380
925.924	12452
926.031	12532
926.138	12422
926.245	12445
926.352	12388
926.459	12414
926.566	12585
926.673	12365
926.779	12315
926.886	12254
926.993	12110
927.099	12083
927.206	12038
927.312	12026
927.419	12178
927.525	12106
927.631	12049
927.737	11984
927.843	11935
927.95	11828
928.056	11851
928.162	11866
928.267	11946
928.373	12635
928.479	12015
928.585	11783
928.69	11893
928.796	11927
928.901	11775
929.007	11592
929.112	11813
929.218	11748
929.323	11718
929.428	11634
929.533	11817
929.638	11619
929.743	11741
929.848	11646
929.953	11615
930.058	11493
930.163	11326
930.267	11322
930.372	11524
930.477	11258
930.581	11547
930.685	11387
930.79	11231
930.894	11303
930.998	11174
931.103	11341
931.207	10999
931.311	10915
931.415	10847
931.519	10645
931.623	10611
