Data from test_V78500241_142.txt Node
Date: Fri Mar 25 15:10:51 CST 2022
User: usil
Spectrometer: V785-0024
Trigger mode: 0
Integration Time (sec): 4.000000E-1
Scans to average: 1
Nonlinearity correction enabled: false
Boxcar width: 0
Storing dark spectrum: false
XAxis mode: Wavelengths
Number of Pixels in Spectrum: 1024
>>>>>Begin Spectral Data<<<<<
801.071	28143
801.214	28154
801.356	27778
801.499	27846
801.641	27701
801.783	27610
801.926	27698
802.068	27618
802.211	27667
802.353	27519
802.496	27420
802.638	27252
802.78	27401
802.923	27192
803.065	27157
803.208	27142
803.35	27245
803.492	27313
803.635	27435
803.777	27306
803.919	27355
804.061	27587
804.204	27313
804.346	27161
804.488	27199
804.63	27226
804.773	27203
804.915	27351
805.057	27252
805.199	27195
805.341	27492
805.483	27344
805.626	27458
805.768	27230
805.91	27355
806.052	27477
806.194	27496
806.336	27561
806.478	27382
806.62	27386
806.762	27530
806.904	27690
807.046	27846
807.188	27831
807.33	27690
807.472	27831
807.614	27641
807.756	27682
807.898	27690
808.04	27622
808.182	27473
808.324	27488
808.465	27583
808.607	27713
808.749	28044
808.891	27960
809.033	28135
809.174	27911
809.316	27911
809.458	27926
809.6	27911
809.741	28017
809.883	27975
810.025	28185
810.166	28211
810.308	28242
810.45	28063
810.591	28139
810.733	28029
810.875	27895
811.016	27781
811.158	27819
811.299	27793
811.441	27880
811.582	27823
811.724	27804
811.865	27857
812.007	27895
812.148	27854
812.29	27842
812.431	27968
812.573	28158
812.714	28215
812.855	28428
812.997	28512
813.138	28569
813.279	28394
813.421	28379
813.562	28280
813.703	28143
813.845	28082
813.986	27736
814.127	27610
814.268	27427
814.41	27462
814.551	27306
814.692	27500
814.833	27332
814.974	27332
815.115	27507
815.256	27287
815.397	27340
815.539	27192
815.68	27222
815.821	27184
815.962	27317
816.103	27142
816.244	27104
816.385	27009
816.526	27001
816.666	26773
816.807	26765
816.948	26667
817.089	26746
817.23	26743
817.371	26541
817.512	26564
817.653	26583
817.793	26450
817.934	26480
818.075	26640
818.216	26575
818.356	26469
818.497	26480
818.638	26389
818.778	26389
818.919	26301
819.06	26256
819.2	26480
819.341	26632
819.481	26404
819.622	26663
819.762	26921
819.903	26796
820.043	26804
820.184	26590
820.324	26705
820.465	26765
820.605	26743
820.746	26587
820.886	26495
821.026	26590
821.167	26575
821.307	26613
821.447	26438
821.588	26404
821.728	26263
821.868	26164
822.008	26027
822.149	25993
822.289	26134
822.429	25788
822.569	25696
822.709	25624
822.849	25563
822.99	25426
823.13	25415
823.27	25297
823.41	25168
823.55	25076
823.69	25213
823.83	25244
823.97	25175
824.11	24939
824.25	25118
824.389	25072
824.529	25072
824.669	24992
824.809	25164
824.949	25213
825.089	25069
825.228	25000
825.368	24924
825.508	24783
825.648	24856
825.787	24992
825.927	25057
826.067	24806
826.206	24776
826.346	24848
826.485	24852
826.625	24738
826.765	24913
826.904	24768
827.044	24544
827.183	24623
827.323	24498
827.462	24703
827.601	24490
827.741	24486
827.88	24483
828.02	24372
828.159	24517
828.298	24566
828.437	24563
828.577	24399
828.716	24547
828.855	24342
828.994	24251
829.134	24292
829.273	24220
829.412	24216
829.551	24232
829.69	24228
829.829	24262
829.968	24247
830.107	24273
830.246	24136
830.385	24186
830.524	24034
830.663	24057
830.802	24049
830.941	23843
831.08	23680
831.219	23821
831.357	23790
831.496	24045
831.635	23771
831.774	23672
831.913	23630
832.051	23592
832.19	23528
832.329	23490
832.467	23493
832.606	23410
832.744	23315
832.883	23509
833.022	23368
833.16	23520
833.299	23467
833.437	23558
833.576	23516
833.714	23543
833.852	23524
833.991	23566
834.129	23509
834.267	23501
834.406	23585
834.544	23417
834.682	23543
834.821	23311
834.959	23547
835.097	23372
835.235	23444
835.373	23444
835.511	23368
835.65	23364
835.788	23223
835.926	23064
836.064	23124
836.202	23128
836.34	23326
836.478	23360
836.615	23265
836.753	23258
836.891	23296
837.029	23277
837.167	23277
837.305	23083
837.443	23178
837.58	23136
837.718	23105
837.856	23071
837.993	23037
838.131	23067
838.269	22946
838.406	23060
838.544	22972
838.681	22824
838.819	22740
838.956	22512
839.094	22542
839.231	22592
839.369	22550
839.506	22873
839.643	22820
839.781	22504
839.918	22512
840.055	22626
840.193	22508
840.33	22329
840.467	22390
840.604	22504
840.742	22683
840.879	22265
841.016	22394
841.153	22375
841.29	22489
841.427	22318
841.564	22303
841.701	22535
841.838	22280
841.975	22394
842.112	22341
842.249	22154
842.385	22177
842.522	22291
842.659	22223
842.796	22124
842.933	22181
843.069	22025
843.206	22070
843.343	22185
843.479	22219
843.616	22173
843.752	21964
843.889	21846
844.025	22055
844.162	21804
844.298	22032
844.435	21808
844.571	21930
844.708	21861
844.844	21968
844.98	21949
845.117	22017
845.253	21975
845.389	21823
845.525	21915
845.661	21732
845.798	21671
845.934	21656
846.07	21462
846.206	21671
846.342	21701
846.478	21568
846.614	21424
846.75	21405
846.886	21336
847.022	21370
847.158	21374
847.294	21351
847.429	21363
847.565	21291
847.701	21583
847.837	21051
847.972	20967
848.108	21260
848.244	21093
848.379	20921
848.515	20872
848.65	20868
848.786	20975
848.921	20967
849.057	20948
849.192	20902
849.328	20979
849.463	20975
849.598	20887
849.734	20792
849.869	20693
850.004	20663
850.14	20697
850.275	20727
850.41	20507
850.545	20549
850.68	20602
850.815	20636
850.95	20522
851.085	20842
851.22	20731
851.355	20613
851.49	20518
851.625	20682
851.76	20655
851.895	20488
852.03	20442
852.165	20522
852.299	20705
852.434	20724
852.569	20640
852.703	20537
852.838	20693
852.973	20807
853.107	20796
853.242	20454
853.376	20503
853.511	20450
853.645	20400
853.78	20568
853.914	20480
854.048	20427
854.183	20530
854.317	20514
854.451	20545
854.585	20480
854.72	20328
854.854	20457
854.988	20298
855.122	20336
855.256	20301
855.39	20362
855.524	20396
855.658	20461
855.792	20301
855.926	20385
856.06	20613
856.194	20450
856.327	20404
856.461	20309
856.595	20362
856.729	20533
856.862	20560
856.996	20438
857.13	20613
857.263	20541
857.397	20583
857.53	20465
857.664	20412
857.797	20423
857.931	20518
858.064	20488
858.197	20541
858.331	20427
858.464	20423
858.597	20275
858.731	20412
858.864	20385
858.997	20263
859.13	20343
859.263	20400
859.396	20480
859.529	20351
859.662	20320
859.795	20324
859.928	20446
860.061	20552
860.194	20564
860.327	20305
860.46	20374
860.592	20530
860.725	20537
860.858	20476
860.99	20396
861.123	20336
861.256	20317
861.388	20366
861.521	20956
861.653	20286
861.786	20191
861.918	20199
862.05	20278
862.183	20362
862.315	20396
862.447	20366
862.58	20396
862.712	20145
862.844	20024
862.976	20145
863.108	20164
863.24	20514
863.372	20016
863.504	20149
863.636	20180
863.768	20164
863.9	20020
864.032	20054
864.164	20058
864.296	20122
864.428	20145
864.559	20206
864.691	20138
864.823	20035
864.954	20092
865.086	20058
865.217	19928
865.349	19925
865.48	19986
865.612	19997
865.743	20130
865.875	20027
866.006	19883
866.137	19986
866.269	19970
866.4	19955
866.531	19974
866.662	19852
866.793	19894
866.924	19928
867.055	19909
867.186	19947
867.317	19913
867.448	19769
867.579	19742
867.71	19989
867.841	19841
867.972	19951
868.103	19970
868.233	19860
868.364	19871
868.495	19932
868.625	20119
868.756	20195
868.886	19997
869.017	20107
869.147	20275
869.278	20286
869.408	20218
869.539	20142
869.669	20259
869.799	20115
869.929	20339
870.06	20233
870.19	20461
870.32	20381
870.45	20503
870.58	20556
870.71	20594
870.84	20648
870.97	20492
871.1	20461
871.23	20686
871.36	20670
871.489	20629
871.619	20773
871.749	20724
871.879	20781
872.008	20880
872.138	20765
872.267	20667
872.397	20556
872.526	20590
872.656	20457
872.785	20488
872.915	20727
873.044	20910
873.173	20735
873.303	20868
873.432	20788
873.561	20804
873.69	20792
873.819	20811
873.948	20746
874.077	20857
874.206	20815
874.335	20788
874.464	20880
874.593	21028
874.722	20979
874.851	20986
874.979	21043
875.108	21119
875.237	21085
875.365	20887
875.494	20956
875.623	21051
875.751	20921
875.88	21070
876.008	21112
876.136	21176
876.265	21401
876.393	21526
876.521	21389
876.65	21443
876.778	21378
876.906	21279
877.034	21203
877.162	21260
877.29	21477
877.418	21462
877.546	21450
877.674	21348
877.802	21374
877.93	21386
878.058	21363
878.185	21192
878.313	21367
878.441	21374
878.568	21199
878.696	21367
878.824	21298
878.951	21549
879.079	21545
879.206	21595
879.333	21488
879.461	21435
879.588	21469
879.715	21538
879.842	21759
879.97	21428
880.097	21230
880.224	21264
880.351	21348
880.478	21138
880.605	21154
880.732	21138
880.859	21454
880.986	21283
881.112	21157
881.239	21135
881.366	20979
881.493	20845
881.619	20906
881.746	20788
881.872	20800
881.999	20762
882.125	20807
882.252	20849
882.378	20830
882.505	20895
882.631	20701
882.757	20568
882.883	20636
883.01	20629
883.136	20492
883.262	20423
883.388	20431
883.514	20484
883.64	20560
883.766	20423
883.892	20347
884.018	20313
884.143	20473
884.269	20598
884.395	20282
884.52	20046
884.646	20195
884.772	20195
884.897	20092
885.023	20126
885.148	20221
885.274	20320
885.399	20275
885.524	20153
885.65	20199
885.775	20069
885.9	20100
886.025	20263
886.15	20282
886.275	20168
886.4	20046
886.525	20103
886.65	20050
886.775	20046
886.9	20351
887.025	20309
887.149	20062
887.274	19951
887.399	19875
887.523	19879
887.648	19959
887.773	19837
887.897	19978
888.021	19974
888.146	19986
888.27	19970
888.395	20043
888.519	19955
888.643	19906
888.767	19860
888.891	19811
889.015	19677
889.139	19723
889.263	19647
889.387	19902
889.511	19887
889.635	19841
889.759	19658
889.883	19685
890.006	19689
890.13	19734
890.254	19590
890.377	19559
890.501	19487
890.624	19396
890.748	19510
890.871	19377
890.995	19320
891.118	19217
891.241	19354
891.364	19331
891.488	19384
891.611	19289
891.734	19445
891.857	19331
891.98	19293
892.103	19350
892.226	19320
892.349	19183
892.471	19183
892.594	19202
892.717	19175
892.839	19171
892.962	19266
893.085	19297
893.207	19240
893.33	19168
893.452	19160
893.575	19244
893.697	19232
893.819	19354
893.941	19362
894.064	19407
894.186	19160
894.308	19065
894.43	19247
894.552	19358
894.674	19365
894.796	19225
894.918	19206
895.04	19236
895.161	19278
895.283	19202
895.405	19164
895.526	19228
895.648	19122
895.769	19148
895.891	19312
896.012	19343
896.134	19301
896.255	19255
896.376	19266
896.498	19297
896.619	19396
896.74	19297
896.861	19426
896.982	19639
897.103	19803
897.224	19635
897.345	19609
897.466	19453
897.587	19453
897.708	19655
897.828	19529
897.949	19457
898.07	19384
898.19	19312
898.311	19540
898.431	19449
898.552	19434
898.672	19525
898.792	19529
898.913	19506
899.033	19411
899.153	19183
899.273	19065
899.393	19240
899.513	19190
899.633	19297
899.753	19183
899.873	19046
899.993	19187
900.113	19202
900.232	19141
900.352	19156
900.472	19126
900.591	18939
900.711	18989
900.83	18932
900.95	19084
901.069	19015
901.189	18871
901.308	18665
901.427	18623
901.546	18658
901.665	18673
901.784	18574
901.904	18441
902.023	18319
902.141	18174
902.26	18174
902.379	18254
902.498	18144
902.617	18030
902.735	18197
902.854	17996
902.973	17935
903.091	17843
903.21	17756
903.328	17802
903.446	17532
903.565	17600
903.683	17535
903.801	17459
903.919	17524
904.038	17539
904.156	17440
904.274	17524
904.392	17417
904.51	17391
904.627	17345
904.745	17459
904.863	17459
904.981	17143
905.098	17018
905.216	17029
905.334	17029
905.451	17121
905.569	17060
905.686	17094
905.803	16991
905.921	16847
906.038	16908
906.155	16942
906.272	16752
906.389	16725
906.506	16611
906.623	16573
906.74	16519
906.857	16500
906.974	16409
907.091	16531
907.208	16634
907.324	16634
907.441	16432
907.557	16276
907.674	16379
907.79	16238
907.907	16223
908.023	16291
908.139	16268
908.256	16150
908.372	16219
908.488	16173
908.604	16059
908.72	15869
908.836	15991
908.952	15956
909.068	15979
909.184	15983
909.3	15911
909.415	15987
909.531	16002
909.647	15759
909.762	15728
909.878	15648
909.993	15652
910.108	15671
910.224	15603
910.339	15682
910.454	15534
910.57	15473
910.685	15450
910.8	15728
910.915	15625
911.03	15466
911.145	15439
911.259	15329
911.374	15218
911.489	15188
911.604	15142
911.718	15055
911.833	15085
911.947	14971
912.062	14887
912.176	14914
912.291	15066
912.405	15070
912.519	15150
912.633	15165
912.748	15051
912.862	15032
912.976	14861
913.09	14678
913.204	14792
913.318	14804
913.431	14773
913.545	14929
913.659	14864
913.772	14777
913.886	14758
914	14659
914.113	14796
914.226	14788
914.34	14663
914.453	14530
914.566	14724
914.68	14552
914.793	14571
914.906	14240
915.019	14324
915.132	14309
915.245	14244
915.358	14305
915.47	14256
915.583	14282
915.696	14343
915.809	14484
915.921	14469
916.034	14320
916.146	14134
916.259	14142
916.371	14336
916.483	14278
916.595	14138
916.708	14195
916.82	14111
916.932	14107
917.044	14062
917.156	14088
917.268	13947
917.38	13978
917.491	13967
917.603	13913
917.715	14065
917.826	14081
917.938	14024
918.049	13856
918.161	13940
918.272	14065
918.384	14020
918.495	13875
918.606	13696
918.717	13689
918.828	13723
918.939	13658
919.05	13651
919.161	13624
919.272	13590
919.383	13552
919.494	13719
919.604	13917
919.715	13776
919.826	13616
919.936	13586
920.047	13780
920.157	13719
920.267	13860
920.378	13704
920.488	13674
920.598	13928
920.708	13944
920.818	13887
920.928	13791
921.038	13898
921.148	13849
921.258	13677
921.368	13601
921.477	13426
921.587	13430
921.697	13308
921.806	13453
921.916	13278
922.025	13228
922.134	13137
922.244	12977
922.353	13110
922.462	12958
922.571	12867
922.68	12703
922.789	12715
922.898	12806
923.007	12642
923.116	12662
923.224	12719
923.333	12627
923.442	12593
923.55	12528
923.659	12597
923.767	12589
923.876	12589
923.984	12585
924.092	12441
924.201	12525
924.309	12517
924.417	12467
924.525	12403
924.633	12353
924.741	13164
924.849	12342
924.956	12319
925.064	12296
925.172	12087
925.279	12182
925.387	12201
925.494	12163
925.602	12277
925.709	12235
925.816	12106
925.924	12129
926.031	12247
926.138	12159
926.245	12197
926.352	12087
926.459	12197
926.566	12262
926.673	12114
926.779	12007
926.886	11904
926.993	11855
927.099	11790
927.206	11729
927.312	11771
927.419	11847
927.525	11760
927.631	11745
927.737	11657
927.843	11680
927.95	11577
928.056	11558
928.162	11634
928.267	11657
928.373	12144
928.479	11661
928.585	11467
928.69	11543
928.796	11638
928.901	11452
929.007	11284
929.112	11589
929.218	11410
929.323	11421
929.428	11376
929.533	11505
929.638	11345
929.743	11337
929.848	11326
929.953	11299
930.058	11201
930.163	11056
930.267	11064
930.372	11162
930.477	11048
930.581	11208
930.685	11033
930.79	10915
930.894	10908
930.998	10835
931.103	11121
931.207	10740
931.311	10588
931.415	10569
931.519	10318
931.623	10272
