Data from test_V78500241_2692.txt Node
Date: Fri Mar 25 15:28:36 CST 2022
User: usil
Spectrometer: V785-0024
Trigger mode: 0
Integration Time (sec): 4.000000E-1
Scans to average: 1
Nonlinearity correction enabled: false
Boxcar width: 0
Storing dark spectrum: false
XAxis mode: Wavelengths
Number of Pixels in Spectrum: 1024
>>>>>Begin Spectral Data<<<<<
801.071	27047
801.214	26998
801.356	26819
801.499	26811
801.641	26583
801.783	26629
801.926	26648
802.068	26644
802.211	26568
802.353	26556
802.496	26412
802.638	26309
802.78	26157
802.923	26191
803.065	26081
803.208	26142
803.35	26183
803.492	26377
803.635	26393
803.777	26355
803.919	26358
804.061	26701
804.204	26476
804.346	26313
804.488	26256
804.63	26298
804.773	26286
804.915	26324
805.057	26503
805.199	26298
805.341	26358
805.483	26446
805.626	26579
805.768	26453
805.91	26442
806.052	26541
806.194	26408
806.336	26674
806.478	26514
806.62	26488
806.762	26587
806.904	26769
807.046	26979
807.188	26910
807.33	26902
807.472	26986
807.614	26788
807.756	26952
807.898	26823
808.04	26640
808.182	26682
808.324	26727
808.465	26796
808.607	27047
808.749	27074
808.891	27077
809.033	27268
809.174	27192
809.316	27131
809.458	26982
809.6	26895
809.741	27142
809.883	27233
810.025	27359
810.166	27351
810.308	27439
810.45	27211
810.591	27184
810.733	27169
810.875	27077
811.016	27116
811.158	26895
811.299	27252
811.441	27135
811.582	27252
811.724	27062
811.865	27020
812.007	27039
812.148	26914
812.29	27150
812.431	27211
812.573	27321
812.714	27519
812.855	27606
812.997	27751
813.138	27743
813.279	27610
813.421	27568
813.562	27568
813.703	27275
813.845	27302
813.986	26872
814.127	26887
814.268	26705
814.41	26686
814.551	26659
814.692	26823
814.833	26701
814.974	26648
815.115	26762
815.256	26579
815.397	26560
815.539	26564
815.68	26446
815.821	26339
815.962	26518
816.103	26663
816.244	26347
816.385	26233
816.526	26069
816.666	26157
816.807	26024
816.948	26016
817.089	26100
817.23	25944
817.371	26005
817.512	25868
817.653	25974
817.793	25902
817.934	25989
818.075	25951
818.216	25963
818.356	25902
818.497	25852
818.638	25723
818.778	25655
818.919	25753
819.06	25868
819.2	25784
819.341	25944
819.481	26001
819.622	26043
819.762	26233
819.903	26176
820.043	26305
820.184	26005
820.324	26092
820.465	26115
820.605	26035
820.746	26073
820.886	25887
821.026	26035
821.167	26020
821.307	26111
821.447	25986
821.588	25731
821.728	25742
821.868	25563
822.008	25441
822.149	25350
822.289	25438
822.429	25278
822.569	25061
822.709	25118
822.849	24935
822.99	24913
823.13	24795
823.27	24867
823.41	24760
823.55	24654
823.69	24711
823.83	24814
823.97	24601
824.11	24665
824.25	24494
824.389	24597
824.529	24570
824.669	24646
824.809	24719
824.949	24578
825.089	24650
825.228	24688
825.368	24437
825.508	24334
825.648	24418
825.787	24357
825.927	24433
826.067	24365
826.206	24353
826.346	24467
826.485	24582
826.625	24547
826.765	24456
826.904	24559
827.044	24213
827.183	24235
827.323	24072
827.462	24171
827.601	24129
827.741	24053
827.88	24266
828.02	23980
828.159	24121
828.298	24041
828.437	24319
828.577	24068
828.716	24174
828.855	23961
828.994	23939
829.134	23779
829.273	23889
829.412	23908
829.551	23950
829.69	23821
829.829	23904
829.968	23920
830.107	23901
830.246	23927
830.385	23813
830.524	23672
830.663	23608
830.802	23543
830.941	23440
831.08	23334
831.219	23429
831.357	23570
831.496	23665
831.635	23497
831.774	23364
831.913	23337
832.051	23258
832.19	23121
832.329	23181
832.467	23174
832.606	23079
832.744	23132
832.883	23151
833.022	23128
833.16	23033
833.299	23166
833.437	23121
833.576	23208
833.714	23159
833.852	23174
833.991	23322
834.129	23174
834.267	23246
834.406	23083
834.544	23181
834.682	23166
834.821	23048
834.959	23330
835.097	23128
835.235	23246
835.373	23178
835.511	23223
835.65	23094
835.788	23105
835.926	23033
836.064	22771
836.202	22885
836.34	23079
836.478	23117
836.615	23098
836.753	23025
836.891	23189
837.029	23105
837.167	22946
837.305	22900
837.443	22835
837.58	22968
837.718	22927
837.856	22961
837.993	22850
838.131	22885
838.269	22725
838.406	22748
838.544	22679
838.681	22489
838.819	22466
838.956	22394
839.094	22344
839.231	22497
839.369	22535
839.506	22809
839.643	22645
839.781	22413
839.918	22196
840.055	22367
840.193	22287
840.33	22295
840.467	22314
840.604	22287
840.742	22611
840.879	22177
841.016	22249
841.153	22154
841.29	22337
841.427	22333
841.564	22268
841.701	22303
841.838	22196
841.975	22154
842.112	22169
842.249	22169
842.385	22181
842.522	22363
842.659	22124
842.796	22059
842.933	22044
843.069	21987
843.206	22116
843.343	22162
843.479	22010
843.616	22101
843.752	21816
843.889	21865
844.025	21934
844.162	21671
844.298	21915
844.435	21895
844.571	21762
844.708	21842
844.844	21926
844.98	21983
845.117	21922
845.253	21762
845.389	21736
845.525	21701
845.661	21759
845.798	21614
845.934	21568
846.07	21618
846.206	21717
846.342	21728
846.478	21553
846.614	21336
846.75	21340
846.886	21332
847.022	21294
847.158	21382
847.294	21359
847.429	21298
847.565	21264
847.701	21507
847.837	21127
847.972	20998
848.108	21100
848.244	21237
848.379	20982
848.515	21039
848.65	20861
848.786	20887
848.921	20929
849.057	20952
849.192	21009
849.328	21017
849.463	20918
849.598	20800
849.734	20815
849.869	20746
850.004	20781
850.14	20689
850.275	20670
850.41	20621
850.545	20648
850.68	20712
850.815	20724
850.95	20800
851.085	20918
851.22	20727
851.355	20571
851.49	20564
851.625	20678
851.76	20746
851.895	20678
852.03	20640
852.165	20651
852.299	20708
852.434	20769
852.569	20571
852.703	20640
852.838	20769
852.973	20785
853.107	20746
853.242	20651
853.376	20450
853.511	20438
853.645	20442
853.78	20454
853.914	20495
854.048	20446
854.183	20492
854.317	20495
854.451	20667
854.585	20526
854.72	20465
854.854	20594
854.988	20446
855.122	20514
855.256	20339
855.39	20579
855.524	20461
855.658	20640
855.792	20457
855.926	20488
856.06	20564
856.194	20522
856.327	20438
856.461	20457
856.595	20522
856.729	20514
856.862	20651
856.996	20617
857.13	20579
857.263	20530
857.397	20621
857.53	20499
857.664	20686
857.797	20632
857.931	20644
858.064	20530
858.197	20556
858.331	20518
858.464	20461
858.597	20484
858.731	20492
858.864	20438
858.997	20484
859.13	20564
859.263	20492
859.396	20640
859.529	20434
859.662	20473
859.795	20533
859.928	20450
860.061	20636
860.194	20743
860.327	20640
860.46	20484
860.592	20663
860.725	20689
860.858	20609
860.99	20469
861.123	20347
861.256	20446
861.388	20488
861.521	21211
861.653	20355
861.786	20263
861.918	20324
862.05	20389
862.183	20480
862.315	20476
862.447	20541
862.58	20271
862.712	20275
862.844	20161
862.976	20404
863.108	20317
863.24	20716
863.372	20210
863.504	20221
863.636	20195
863.768	20320
863.9	20267
864.032	20142
864.164	20176
864.296	20244
864.428	20309
864.559	20355
864.691	20385
864.823	20278
864.954	20172
865.086	20206
865.217	20225
865.349	20062
865.48	20206
865.612	19986
865.743	20172
865.875	20187
866.006	20008
866.137	20161
866.269	20039
866.4	20130
866.531	20088
866.662	19944
866.793	20111
866.924	19997
867.055	20092
867.186	19982
867.317	20088
867.448	19955
867.579	20069
867.71	20027
867.841	19989
867.972	20119
868.103	20176
868.233	20138
868.364	20126
868.495	20191
868.625	20355
868.756	20332
868.886	20218
869.017	20214
869.147	20492
869.278	20423
869.408	20328
869.539	20332
869.669	20473
869.799	20347
869.929	20488
870.06	20465
870.19	20579
870.32	20602
870.45	20617
870.58	20731
870.71	20819
870.84	20986
870.97	20674
871.1	20724
871.23	20952
871.36	20861
871.489	20705
871.619	20823
871.749	20830
871.879	20891
872.008	20979
872.138	20948
872.267	20868
872.397	20769
872.526	20708
872.656	20838
872.785	20781
872.915	21043
873.044	21043
873.173	20914
873.303	21024
873.432	20929
873.561	21020
873.69	21039
873.819	20853
873.948	20895
874.077	21028
874.206	20971
874.335	20792
874.464	21096
874.593	21268
874.722	21203
874.851	21188
874.979	21237
875.108	21161
875.237	21127
875.365	21036
875.494	21058
875.623	21218
875.751	21237
875.88	21165
876.008	21287
876.136	21302
876.265	21572
876.393	21652
876.521	21679
876.65	21576
876.778	21587
876.906	21485
877.034	21477
877.162	21526
877.29	21523
877.418	21523
877.546	21660
877.674	21534
877.802	21485
877.93	21557
878.058	21435
878.185	21412
878.313	21405
878.441	21561
878.568	21367
878.696	21439
878.824	21450
878.951	21671
879.079	21720
879.206	21873
879.333	21713
879.461	21690
879.588	21660
879.715	21542
879.842	21785
879.97	21424
880.097	21431
880.224	21424
880.351	21321
880.478	21458
880.605	21386
880.732	21344
880.859	21549
880.986	21351
881.112	21378
881.239	21237
881.366	21142
881.493	21032
881.619	21066
881.746	21017
881.872	21001
881.999	20921
882.125	20834
882.252	20967
882.378	20895
882.505	20986
882.631	20834
882.757	20842
882.883	20781
883.01	20655
883.136	20571
883.262	20461
883.388	20511
883.514	20621
883.64	20625
883.766	20598
883.892	20415
884.018	20457
884.143	20507
884.269	20583
884.395	20370
884.52	20267
884.646	20332
884.772	20233
884.897	20119
885.023	20282
885.148	20370
885.274	20434
885.399	20396
885.524	20313
885.65	20358
885.775	20240
885.9	20168
886.025	20385
886.15	20313
886.275	20157
886.4	20221
886.525	20286
886.65	20240
886.775	20199
886.9	20427
887.025	20552
887.149	20328
887.274	20107
887.399	20107
887.523	20084
887.648	19906
887.773	19967
887.897	20107
888.021	20065
888.146	20050
888.27	20164
888.395	20195
888.519	20153
888.643	20073
888.767	20176
888.891	19951
889.015	19913
889.139	19841
889.263	19864
889.387	19967
889.511	20069
889.635	19989
889.759	19883
889.883	19951
890.006	19940
890.13	19967
890.254	19807
890.377	19871
890.501	19670
890.624	19624
890.748	19609
890.871	19472
890.995	19476
891.118	19362
891.241	19400
891.364	19331
891.488	19487
891.611	19468
891.734	19426
891.857	19601
891.98	19537
892.103	19426
892.226	19502
892.349	19365
892.471	19327
892.594	19419
892.717	19468
892.839	19476
892.962	19335
893.085	19544
893.207	19400
893.33	19354
893.452	19312
893.575	19434
893.697	19339
893.819	19552
893.941	19491
894.064	19487
894.186	19400
894.308	19331
894.43	19578
894.552	19552
894.674	19533
894.796	19335
894.918	19430
895.04	19289
895.161	19521
895.283	19487
895.405	19354
895.526	19460
895.648	19324
895.769	19426
895.891	19350
896.012	19403
896.134	19533
896.255	19529
896.376	19259
896.498	19411
896.619	19377
896.74	19415
896.861	19457
896.982	19662
897.103	19879
897.224	19647
897.345	19639
897.466	19559
897.587	19769
897.708	19818
897.828	19750
897.949	19415
898.07	19415
898.19	19681
898.311	19689
898.431	19666
898.552	19681
898.672	19696
898.792	19700
898.913	19719
899.033	19499
899.153	19441
899.273	19392
899.393	19445
899.513	19396
899.633	19426
899.753	19384
899.873	19304
899.993	19400
900.113	19339
900.232	19384
900.352	19381
900.472	19225
900.591	19175
900.711	19198
900.83	19129
900.95	19304
901.069	19343
901.189	19027
901.308	18840
901.427	18711
901.546	18757
901.665	18821
901.784	18776
901.904	18677
902.023	18612
902.141	18506
902.26	18376
902.379	18490
902.498	18296
902.617	18148
902.735	18395
902.854	18315
902.973	18216
903.091	18106
903.21	18072
903.328	17908
903.446	17824
903.565	17859
903.683	17908
903.801	17653
903.919	17760
904.038	17783
904.156	17630
904.274	17672
904.392	17551
904.51	17581
904.627	17665
904.745	17627
904.863	17649
904.981	17387
905.098	17265
905.216	17155
905.334	17334
905.451	17258
905.569	17223
905.686	17288
905.803	17216
905.921	17003
906.038	17136
906.155	17086
906.272	16919
906.389	16976
906.506	16820
906.623	16858
906.74	16801
906.857	16710
906.974	16664
907.091	16763
907.208	16896
907.324	16786
907.441	16752
907.557	16565
907.674	16493
907.79	16405
907.907	16447
908.023	16603
908.139	16580
908.256	16504
908.372	16402
908.488	16337
908.604	16196
908.72	16291
908.836	16257
908.952	16181
909.068	16181
909.184	16367
909.3	16249
909.415	16257
909.531	16238
909.647	16021
909.762	16010
909.878	15930
909.993	16059
910.108	15983
910.224	15899
910.339	15975
910.454	15785
910.57	15663
910.685	15732
910.8	16021
910.915	15903
911.03	15755
911.145	15549
911.259	15584
911.374	15591
911.489	15549
911.604	15526
911.718	15389
911.833	15260
911.947	15325
912.062	15245
912.176	15306
912.291	15462
912.405	15336
912.519	15629
912.633	15443
912.748	15355
912.862	15363
912.976	15161
913.09	15058
913.204	15104
913.318	15089
913.431	15214
913.545	15287
913.659	15256
913.772	15093
913.886	14902
914	14883
914.113	14975
914.226	15024
914.34	15009
914.453	14720
914.566	14861
914.68	14834
914.793	14853
914.906	14648
915.019	14495
915.132	14446
915.245	14571
915.358	14518
915.47	14568
915.583	14533
915.696	14571
915.809	14762
915.921	14655
916.034	14545
916.146	14404
916.259	14415
916.371	14518
916.483	14431
916.595	14461
916.708	14415
916.82	14377
916.932	14355
917.044	14358
917.156	14328
917.268	14206
917.38	14294
917.491	14115
917.603	14225
917.715	14389
917.826	14339
917.938	14210
918.049	14191
918.161	14301
918.272	14393
918.384	14336
918.495	14180
918.606	14050
918.717	13917
918.828	13989
918.939	14016
919.05	13963
919.161	14100
919.272	13807
919.383	13875
919.494	14043
919.604	14252
919.715	14077
919.826	13986
919.936	13913
920.047	13978
920.157	14012
920.267	14286
920.378	14016
920.488	13993
920.598	14119
920.708	14313
920.818	14180
920.928	14161
921.038	14294
921.148	14248
921.258	13932
921.368	13860
921.477	13723
921.587	13795
921.697	13605
921.806	13761
921.916	13571
922.025	13396
922.134	13407
922.244	13407
922.353	13411
922.462	13289
922.571	13206
922.68	13095
922.789	13175
922.898	13171
923.007	12985
923.116	13091
923.224	12977
923.333	13027
923.442	12886
923.55	12909
923.659	12916
923.767	12905
923.876	12791
923.984	12924
924.092	12825
924.201	12837
924.309	12913
924.417	12745
924.525	12779
924.633	12730
924.741	13666
924.849	12597
924.956	12669
925.064	12464
925.172	12445
925.279	12479
925.387	12532
925.494	12483
925.602	12730
925.709	12418
925.816	12384
925.924	12410
926.031	12536
926.138	12399
926.245	12536
926.352	12357
926.459	12563
926.566	12456
926.673	12372
926.779	12308
926.886	12197
926.993	12175
927.099	12125
927.206	12102
927.312	12019
927.419	12125
927.525	11988
927.631	12163
927.737	12057
927.843	11851
927.95	11790
928.056	11901
928.162	11878
928.267	11920
928.373	12467
928.479	11980
928.585	11722
928.69	11942
928.796	11908
928.901	11699
929.007	11634
929.112	11745
929.218	11707
929.323	11718
929.428	11604
929.533	11726
929.638	11642
929.743	11665
929.848	11611
929.953	11623
930.058	11433
930.163	11341
930.267	11341
930.372	11467
930.477	11353
930.581	11524
930.685	11379
930.79	11201
930.894	11227
930.998	11201
931.103	11296
931.207	11094
931.311	10885
931.415	10820
931.519	10706
931.623	10573
