Data from test_V78500241_981.txt Node
Date: Fri Mar 25 15:16:41 CST 2022
User: usil
Spectrometer: V785-0024
Trigger mode: 0
Integration Time (sec): 4.000000E-1
Scans to average: 1
Nonlinearity correction enabled: false
Boxcar width: 0
Storing dark spectrum: false
XAxis mode: Wavelengths
Number of Pixels in Spectrum: 1024
>>>>>Begin Spectral Data<<<<<
801.071	28318
801.214	28169
801.356	28063
801.499	27876
801.641	27876
801.783	27888
801.926	27831
802.068	27739
802.211	27732
802.353	27743
802.496	27587
802.638	27370
802.78	27523
802.923	27496
803.065	27504
803.208	27450
803.35	27454
803.492	27656
803.635	27637
803.777	27545
803.919	27644
804.061	28082
804.204	27789
804.346	27625
804.488	27603
804.63	27587
804.773	27599
804.915	27694
805.057	27759
805.199	27717
805.341	27823
805.483	27770
805.626	27869
805.768	27793
805.91	27724
806.052	27793
806.194	27728
806.336	28082
806.478	27857
806.62	27781
806.762	28055
806.904	28074
807.046	28230
807.188	28325
807.33	28253
807.472	28306
807.614	28044
807.756	28257
807.898	28154
808.04	28207
808.182	28010
808.324	28090
808.465	28238
808.607	28466
808.749	28474
808.891	28615
809.033	28542
809.174	28577
809.316	28512
809.458	28481
809.6	28371
809.741	28519
809.883	28607
810.025	28767
810.166	28672
810.308	28782
810.45	28645
810.591	28717
810.733	28580
810.875	28481
811.016	28398
811.158	28386
811.299	28710
811.441	28527
811.582	28519
811.724	28550
811.865	28459
812.007	28500
812.148	28451
812.29	28607
812.431	28573
812.573	28904
812.714	28972
812.855	28984
812.997	29064
813.138	29239
813.279	29303
813.421	29056
813.562	28934
813.703	28915
813.845	28611
813.986	28489
814.127	28390
814.268	28303
814.41	28322
814.551	27975
814.692	28181
814.833	28196
814.974	28051
815.115	28261
815.256	28051
815.397	28044
815.539	28063
815.68	27918
815.821	27918
815.962	27972
816.103	28021
816.244	27736
816.385	27835
816.526	27781
816.666	27713
816.807	27595
816.948	27663
817.089	27637
817.23	27564
817.371	27534
817.512	27481
817.653	27538
817.793	27542
817.934	27603
818.075	27515
818.216	27511
818.356	27500
818.497	27370
818.638	27195
818.778	27332
818.919	27348
819.06	27336
819.2	27439
819.341	27576
819.481	27504
819.622	27690
819.762	28036
819.903	27705
820.043	27819
820.184	27686
820.324	27690
820.465	27781
820.605	27652
820.746	27553
820.886	27549
821.026	27545
821.167	27572
821.307	27728
821.447	27591
821.588	27435
821.728	27393
821.868	27131
822.008	27036
822.149	27020
822.289	27009
822.429	26708
822.569	26773
822.709	26541
822.849	26659
822.99	26659
823.13	26514
823.27	26514
823.41	26358
823.55	26324
823.69	26282
823.83	26396
823.97	26362
824.11	26138
824.25	26134
824.389	26122
824.529	26278
824.669	26157
824.809	26362
824.949	26286
825.089	26282
825.228	26313
825.368	26096
825.508	26221
825.648	26069
825.787	26107
825.927	26065
826.067	25966
826.206	26031
826.346	25974
826.485	25993
826.625	25970
826.765	26054
826.904	26069
827.044	25830
827.183	25826
827.323	25780
827.462	25818
827.601	25723
827.741	25742
827.88	25849
828.02	25628
828.159	25651
828.298	25769
828.437	25830
828.577	25712
828.716	25940
828.855	25719
828.994	25552
829.134	25362
829.273	25563
829.412	25468
829.551	25422
829.69	25548
829.829	25495
829.968	25537
830.107	25525
830.246	25384
830.385	25457
830.524	25335
830.663	25301
830.802	25266
830.941	25129
831.08	25027
831.219	25183
831.357	25217
831.496	25263
831.635	25156
831.774	25023
831.913	24981
832.051	24932
832.19	24856
832.329	24901
832.467	24768
832.606	24719
832.744	24772
832.883	24837
833.022	24753
833.16	24806
833.299	24935
833.437	24875
833.576	24878
833.714	24859
833.852	24878
833.991	24852
834.129	24856
834.267	24992
834.406	24787
834.544	25015
834.682	24935
834.821	24730
834.959	24958
835.097	24707
835.235	24833
835.373	24802
835.511	24757
835.65	24677
835.788	24776
835.926	24540
836.064	24399
836.202	24616
836.34	24730
836.478	24821
836.615	24658
836.753	24681
836.891	24715
837.029	24536
837.167	24502
837.305	24677
837.443	24570
837.58	24521
837.718	24669
837.856	24475
837.993	24563
838.131	24452
838.269	24490
838.406	24388
838.544	24285
838.681	24079
838.819	23977
838.956	24015
839.094	23939
839.231	24087
839.369	24060
839.506	24346
839.643	24140
839.781	23935
839.918	23866
840.055	23920
840.193	23950
840.33	23939
840.467	23802
840.604	23885
840.742	24159
840.879	23824
841.016	23779
841.153	23783
841.29	24030
841.427	23882
841.564	23897
841.701	23889
841.838	23790
841.975	23840
842.112	23783
842.249	23661
842.385	23581
842.522	23760
842.659	23714
842.796	23786
842.933	23558
843.069	23604
843.206	23486
843.343	23775
843.479	23661
843.616	23592
843.752	23436
843.889	23433
844.025	23562
844.162	23376
844.298	23551
844.435	23410
844.571	23410
844.708	23512
844.844	23585
844.98	23554
845.117	23539
845.253	23395
845.389	23292
845.525	23425
845.661	23265
845.798	23162
845.934	23258
846.07	23079
846.206	23311
846.342	23170
846.478	23041
846.614	22934
846.75	22873
846.886	22911
847.022	22984
847.158	22911
847.294	22862
847.429	22858
847.565	22911
847.701	23181
847.837	22668
847.972	22569
848.108	22717
848.244	22672
848.379	22535
848.515	22443
848.65	22459
848.786	22470
848.921	22512
849.057	22577
849.192	22588
849.328	22580
849.463	22424
849.598	22451
849.734	22360
849.869	22299
850.004	22207
850.14	22284
850.275	22272
850.41	22276
850.545	22223
850.68	22314
850.815	22242
850.95	22272
851.085	22478
851.22	22306
851.355	22230
851.49	22150
851.625	22226
851.76	22268
851.895	22158
852.03	22223
852.165	22135
852.299	22299
852.434	22181
852.569	22394
852.703	22192
852.838	22291
852.973	22348
853.107	22344
853.242	22120
853.376	22074
853.511	21987
853.645	22055
853.78	22215
853.914	22105
854.048	22017
854.183	22032
854.317	22044
854.451	22314
854.585	22093
854.72	22021
854.854	22101
854.988	21930
855.122	21968
855.256	21968
855.39	22055
855.524	22029
855.658	22082
855.792	22185
855.926	22074
856.06	22173
856.194	22067
856.327	22017
856.461	21903
856.595	21979
856.729	21953
856.862	22169
856.996	22017
857.13	22158
857.263	22120
857.397	22124
857.53	22093
857.664	22105
857.797	22131
857.931	22158
858.064	22124
858.197	22158
858.331	22238
858.464	21956
858.597	21960
858.731	22116
858.864	22010
858.997	21960
859.13	22169
859.263	22173
859.396	22158
859.529	22078
859.662	21960
859.795	22044
859.928	22078
860.061	22219
860.194	22223
860.327	22246
860.46	22082
860.592	22196
860.725	22253
860.858	22181
860.99	22078
861.123	21899
861.256	21926
861.388	22109
861.521	22729
861.653	21880
861.786	21861
861.918	21892
862.05	21918
862.183	21937
862.315	21991
862.447	21934
862.58	21956
862.712	21732
862.844	21781
862.976	21930
863.108	21789
863.24	22097
863.372	21755
863.504	21831
863.636	21812
863.768	21823
863.9	21778
864.032	21686
864.164	21686
864.296	21732
864.428	21876
864.559	21816
864.691	21823
864.823	21728
864.954	21800
865.086	21671
865.217	21705
865.349	21606
865.48	21652
865.612	21633
865.743	21888
865.875	21701
866.006	21545
866.137	21667
866.269	21572
866.4	21564
866.531	21587
866.662	21428
866.793	21511
866.924	21576
867.055	21648
867.186	21606
867.317	21629
867.448	21500
867.579	21599
867.71	21367
867.841	21454
867.972	21603
868.103	21488
868.233	21576
868.364	21557
868.495	21458
868.625	21694
868.756	22025
868.886	21705
869.017	21774
869.147	21888
869.278	21975
869.408	21857
869.539	21724
869.669	21956
869.799	21880
869.929	22006
870.06	21968
870.19	22154
870.32	22070
870.45	22188
870.58	22135
870.71	22268
870.84	22211
870.97	22242
871.1	22356
871.23	22325
871.36	22303
871.489	22287
871.619	22291
871.749	22424
871.879	22527
872.008	22474
872.138	22531
872.267	22417
872.397	22272
872.526	22272
872.656	22211
872.785	22215
872.915	22402
873.044	22474
873.173	22550
873.303	22398
873.432	22588
873.561	22405
873.69	22409
873.819	22394
873.948	22455
874.077	22436
874.206	22284
874.335	22508
874.464	22459
874.593	22679
874.722	22466
874.851	22622
874.979	22626
875.108	22679
875.237	22580
875.365	22478
875.494	22580
875.623	22611
875.751	22527
875.88	22615
876.008	22755
876.136	22752
876.265	23094
876.393	23151
876.521	23094
876.65	23086
876.778	23037
876.906	22991
877.034	22987
877.162	23037
877.29	22900
877.418	22965
877.546	22980
877.674	23056
877.802	22984
877.93	22927
878.058	22946
878.185	22923
878.313	22942
878.441	22915
878.568	22908
878.696	22908
878.824	23067
878.951	23056
879.079	23147
879.206	23265
879.333	23204
879.461	22953
879.588	23006
879.715	23113
879.842	23242
879.97	23041
880.097	22805
880.224	22771
880.351	22889
880.478	22877
880.605	22854
880.732	22797
880.859	23067
880.986	22721
881.112	22858
881.239	22630
881.366	22630
881.493	22440
881.619	22481
881.746	22230
881.872	22485
881.999	22234
882.125	22329
882.252	22443
882.378	22226
882.505	22455
882.631	22215
882.757	22063
882.883	22204
883.01	22013
883.136	21945
883.262	21846
883.388	21759
883.514	21937
883.64	22040
883.766	22051
883.892	21873
884.018	21876
884.143	21975
884.269	21991
884.395	21778
884.52	21701
884.646	21751
884.772	21663
884.897	21564
885.023	21778
885.148	21751
885.274	21781
885.399	21755
885.524	21705
885.65	21679
885.775	21728
885.9	21583
886.025	21869
886.15	21774
886.275	21644
886.4	21572
886.525	21652
886.65	21576
886.775	21485
886.9	21835
887.025	21846
887.149	21625
887.274	21488
887.399	21405
887.523	21450
887.648	21397
887.773	21348
887.897	21519
888.021	21389
888.146	21382
888.27	21435
888.395	21496
888.519	21450
888.643	21408
888.767	21515
888.891	21268
889.015	21165
889.139	21218
889.263	21306
889.387	21408
889.511	21488
889.635	21291
889.759	21207
889.883	21218
890.006	21192
890.13	21405
890.254	21157
890.377	21203
890.501	21032
890.624	20960
890.748	20998
890.871	20861
890.995	20853
891.118	20781
891.241	20842
891.364	20811
891.488	21028
891.611	20735
891.734	20758
891.857	20872
891.98	20819
892.103	20925
892.226	20792
892.349	20765
892.471	20545
892.594	20830
892.717	20750
892.839	20716
892.962	20579
893.085	20735
893.207	20697
893.33	20651
893.452	20594
893.575	20701
893.697	20594
893.819	20849
893.941	20864
894.064	20838
894.186	20590
894.308	20686
894.43	20712
894.552	20777
894.674	20796
894.796	20556
894.918	20659
895.04	20625
895.161	20743
895.283	20670
895.405	20545
895.526	20682
895.648	20708
895.769	20781
895.891	20765
896.012	20781
896.134	20541
896.255	20701
896.376	20708
896.498	20727
896.619	20621
896.74	20541
896.861	20663
896.982	20899
897.103	21032
897.224	20842
897.345	20819
897.466	20914
897.587	20880
897.708	20982
897.828	20910
897.949	20838
898.07	20777
898.19	20880
898.311	20979
898.431	20750
898.552	20838
898.672	20971
898.792	20887
898.913	20842
899.033	20739
899.153	20693
899.273	20537
899.393	20480
899.513	20629
899.633	20602
899.753	20594
899.873	20400
899.993	20678
900.113	20537
900.232	20518
900.352	20518
900.472	20374
900.591	20301
900.711	20324
900.83	20202
900.95	20473
901.069	20530
901.189	20301
901.308	20027
901.427	19890
901.546	19944
901.665	19906
901.784	19963
901.904	19818
902.023	19818
902.141	19586
902.26	19491
902.379	19563
902.498	19472
902.617	19354
902.735	19407
902.854	19457
902.973	19373
903.091	19160
903.21	19061
903.328	19187
903.446	19042
903.565	18897
903.683	18924
903.801	18802
903.919	18837
904.038	18837
904.156	18707
904.274	18726
904.392	18700
904.51	18620
904.627	18665
904.745	18795
904.863	18734
904.981	18578
905.098	18410
905.216	18399
905.334	18391
905.451	18369
905.569	18384
905.686	18334
905.803	18365
905.921	18110
906.038	18277
906.155	18019
906.272	18140
906.389	17969
906.506	17870
906.623	17920
906.74	17942
906.857	17790
906.974	17794
907.091	17980
907.208	17961
907.324	17885
907.441	17722
907.557	17726
907.674	17695
907.79	17547
907.907	17566
908.023	17551
908.139	17543
908.256	17543
908.372	17486
908.488	17318
908.604	17345
908.72	17360
908.836	17284
908.952	17261
909.068	17444
909.184	17421
909.3	17425
909.415	17395
909.531	17231
909.647	17143
909.762	17098
909.878	16934
909.993	17014
910.108	16972
910.224	16904
910.339	17037
910.454	16911
910.57	16900
910.685	16759
910.8	17033
910.915	17022
911.03	16729
911.145	16656
911.259	16584
911.374	16603
911.489	16603
911.604	16641
911.718	16459
911.833	16310
911.947	16230
912.062	16204
912.176	16303
912.291	16371
912.405	16276
912.519	16478
912.633	16565
912.748	16352
912.862	16226
912.976	16147
913.09	16097
913.204	16025
913.318	16139
913.431	16287
913.545	16272
913.659	16360
913.772	16150
913.886	16086
914	15907
914.113	16078
914.226	16143
914.34	16025
914.453	15854
914.566	15956
914.68	15785
914.793	15827
914.906	15629
915.019	15580
915.132	15523
915.245	15466
915.358	15515
915.47	15580
915.583	15496
915.696	15576
915.809	15698
915.921	15686
916.034	15500
916.146	15412
916.259	15389
916.371	15439
916.483	15488
916.595	15329
916.708	15275
916.82	15344
916.932	15325
917.044	15363
917.156	15310
917.268	15180
917.38	15252
917.491	15180
917.603	15169
917.715	15214
917.826	15264
917.938	15123
918.049	14998
918.161	15081
918.272	15256
918.384	15184
918.495	15085
918.606	15043
918.717	14906
918.828	14857
918.939	14941
919.05	14826
919.161	14857
919.272	14693
919.383	14800
919.494	14857
919.604	15062
919.715	14864
919.826	14788
919.936	14849
920.047	14933
920.157	15013
920.267	15070
920.378	14823
920.488	14750
920.598	15077
920.708	15176
920.818	14895
920.928	14994
921.038	15188
921.148	15089
921.258	14785
921.368	14689
921.477	14606
921.587	14651
921.697	14549
921.806	14674
921.916	14480
922.025	14347
922.134	14187
922.244	14172
922.353	14221
922.462	14107
922.571	13982
922.68	14005
922.789	13811
922.898	13894
923.007	13894
923.116	13852
923.224	13955
923.333	13947
923.442	13727
923.55	13712
923.659	13723
923.767	13704
923.876	13556
923.984	13651
924.092	13590
924.201	13636
924.309	13613
924.417	13662
924.525	13590
924.633	13567
924.741	14537
924.849	13407
924.956	13556
925.064	13365
925.172	13221
925.279	13293
925.387	13259
925.494	13289
925.602	13396
925.709	13278
925.816	13179
925.924	13171
926.031	13270
926.138	13278
926.245	13232
926.352	13061
926.459	13270
926.566	13407
926.673	13141
926.779	13057
926.886	13004
926.993	12932
927.099	12871
927.206	12909
927.312	12817
927.419	12863
927.525	12890
927.631	12844
927.737	12764
927.843	12669
927.95	12585
928.056	12597
928.162	12620
928.267	12665
928.373	13266
928.479	12741
928.585	12426
928.69	12620
928.796	12639
928.901	12486
929.007	12330
929.112	12525
929.218	12376
929.323	12441
929.428	12365
929.533	12593
929.638	12251
929.743	12388
929.848	12407
929.953	12369
930.058	12239
930.163	12125
930.267	12038
930.372	12152
930.477	12007
930.581	12213
930.685	12087
930.79	11969
930.894	12019
930.998	11965
931.103	12076
931.207	11672
931.311	11532
931.415	11520
931.519	11383
931.623	11299
