Data from test_V78500241_415.txt Node
Date: Fri Mar 25 15:12:44 CST 2022
User: usil
Spectrometer: V785-0024
Trigger mode: 0
Integration Time (sec): 4.000000E-1
Scans to average: 1
Nonlinearity correction enabled: false
Boxcar width: 0
Storing dark spectrum: false
XAxis mode: Wavelengths
Number of Pixels in Spectrum: 1024
>>>>>Begin Spectral Data<<<<<
801.071	27241
801.214	27058
801.356	26975
801.499	26899
801.641	26796
801.783	26769
801.926	26826
802.068	26564
802.211	26522
802.353	26514
802.496	26537
802.638	26442
802.78	26457
802.923	26450
803.065	26415
803.208	26396
803.35	26434
803.492	26408
803.635	26446
803.777	26537
803.919	26537
804.061	26857
804.204	26644
804.346	26377
804.488	26461
804.63	26461
804.773	26465
804.915	26480
805.057	26609
805.199	26552
805.341	26682
805.483	26743
805.626	26583
805.768	26503
805.91	26583
806.052	26670
806.194	26446
806.336	26845
806.478	26644
806.62	26518
806.762	26811
806.904	26944
807.046	27169
807.188	26937
807.33	26990
807.472	27154
807.614	27131
807.756	26960
807.898	26830
808.04	26788
808.182	26834
808.324	26853
808.465	26948
808.607	27062
808.749	27188
808.891	27287
809.033	27321
809.174	27329
809.316	27001
809.458	27192
809.6	27203
809.741	27260
809.883	27214
810.025	27538
810.166	27610
810.308	27420
810.45	27336
810.591	27473
810.733	27306
810.875	27138
811.016	27192
811.158	27131
811.299	27378
811.441	27325
811.582	27435
811.724	27260
811.865	27047
812.007	27195
812.148	27138
812.29	27233
812.431	27367
812.573	27519
812.714	27458
812.855	27648
812.997	27819
813.138	27983
813.279	27823
813.421	27842
813.562	27633
813.703	27549
813.845	27496
813.986	27150
814.127	27047
814.268	26876
814.41	26990
814.551	26762
814.692	26804
814.833	26944
814.974	26811
815.115	26826
815.256	26689
815.397	26716
815.539	26788
815.68	26788
815.821	26663
815.962	26629
816.103	26663
816.244	26522
816.385	26457
816.526	26457
816.666	26210
816.807	26134
816.948	26343
817.089	26355
817.23	26267
817.371	26221
817.512	26199
817.653	26134
817.793	26096
817.934	26176
818.075	26149
818.216	26176
818.356	26077
818.497	25993
818.638	25879
818.778	25845
818.919	25902
819.06	25940
819.2	26122
819.341	26103
819.481	26069
819.622	26339
819.762	26351
819.903	26415
820.043	26453
820.184	26286
820.324	26267
820.465	26374
820.605	26343
820.746	26286
820.886	26233
821.026	26229
821.167	26336
821.307	26191
821.447	26187
821.588	26043
821.728	25959
821.868	25761
822.008	25662
822.149	25521
822.289	25518
822.429	25510
822.569	25339
822.709	25228
822.849	25187
822.99	25152
823.13	25110
823.27	25004
823.41	24985
823.55	24901
823.69	24905
823.83	25038
823.97	24970
824.11	24661
824.25	24673
824.389	24734
824.529	24696
824.669	24768
824.809	24753
824.949	24840
825.089	24970
825.228	24825
825.368	24612
825.508	24703
825.648	24692
825.787	24665
825.927	24654
826.067	24730
826.206	24806
826.346	24719
826.485	24749
826.625	24631
826.765	24620
826.904	24635
827.044	24445
827.183	24388
827.323	24365
827.462	24422
827.601	24418
827.741	24327
827.88	24365
828.02	24357
828.159	24304
828.298	24292
828.437	24285
828.577	24270
828.716	24342
828.855	24330
828.994	24083
829.134	24148
829.273	24053
829.412	24015
829.551	23996
829.69	24053
829.829	24087
829.968	24129
830.107	24136
830.246	23939
830.385	24060
830.524	23908
830.663	23878
830.802	23703
830.941	23627
831.08	23687
831.219	23798
831.357	23916
831.496	23870
831.635	23611
831.774	23627
831.913	23577
832.051	23604
832.19	23558
832.329	23497
832.467	23360
832.606	23425
832.744	23379
832.883	23307
833.022	23246
833.16	23341
833.299	23330
833.437	23493
833.576	23345
833.714	23360
833.852	23387
833.991	23490
834.129	23440
834.267	23493
834.406	23383
834.544	23425
834.682	23463
834.821	23402
834.959	23497
835.097	23414
835.235	23440
835.373	23478
835.511	23261
835.65	23197
835.788	23376
835.926	23223
836.064	23117
836.202	23208
836.34	23159
836.478	23349
836.615	23231
836.753	23311
836.891	23398
837.029	23356
837.167	23227
837.305	23181
837.443	23147
837.58	23128
837.718	23136
837.856	23136
837.993	23193
838.131	23113
838.269	22961
838.406	22965
838.544	22877
838.681	22744
838.819	22824
838.956	22645
839.094	22516
839.231	22752
839.369	22782
839.506	22938
839.643	22892
839.781	22603
839.918	22432
840.055	22580
840.193	22542
840.33	22382
840.467	22557
840.604	22538
840.742	22801
840.879	22466
841.016	22466
841.153	22386
841.29	22569
841.427	22523
841.564	22516
841.701	22455
841.838	22386
841.975	22527
842.112	22386
842.249	22413
842.385	22211
842.522	22550
842.659	22314
842.796	22329
842.933	22287
843.069	22185
843.206	22375
843.343	22360
843.479	22352
843.616	22341
843.752	22090
843.889	22223
844.025	22192
844.162	22067
844.298	22143
844.435	21968
844.571	21991
844.708	22029
844.844	22295
844.98	22242
845.117	22173
845.253	21968
845.389	21842
845.525	22032
845.661	21835
845.798	21705
845.934	21823
846.07	21774
846.206	21827
846.342	21926
846.478	21774
846.614	21648
846.75	21466
846.886	21610
847.022	21591
847.158	21610
847.294	21477
847.429	21781
847.565	21481
847.701	21736
847.837	21313
847.972	21211
848.108	21481
848.244	21351
848.379	21173
848.515	21214
848.65	21157
848.786	21222
848.921	21119
849.057	21310
849.192	21336
849.328	21226
849.463	21192
849.598	21138
849.734	21127
849.869	21020
850.004	20925
850.14	20963
850.275	20944
850.41	20769
850.545	20891
850.68	20785
850.815	20929
850.95	20853
851.085	21146
851.22	20864
851.355	20967
851.49	20804
851.625	20914
851.76	20781
851.895	20842
852.03	20777
852.165	20876
852.299	20986
852.434	21005
852.569	20895
852.703	20921
852.838	20872
852.973	21005
853.107	21001
853.242	20872
853.376	20750
853.511	20609
853.645	20693
853.78	20823
853.914	20697
854.048	20758
854.183	20735
854.317	20716
854.451	20891
854.585	20644
854.72	20731
854.854	20800
854.988	20731
855.122	20625
855.256	20564
855.39	20705
855.524	20899
855.658	20743
855.792	20705
855.926	20788
856.06	20750
856.194	20876
856.327	20754
856.461	20731
856.595	20701
856.729	20636
856.862	20807
856.996	20743
857.13	20804
857.263	20781
857.397	20872
857.53	20674
857.664	20876
857.797	20800
857.931	20792
858.064	20899
858.197	20815
858.331	20785
858.464	20560
858.597	20659
858.731	20727
858.864	20861
858.997	20720
859.13	20815
859.263	20716
859.396	20788
859.529	20701
859.662	20663
859.795	20743
859.928	20682
860.061	20830
860.194	20796
860.327	20796
860.46	20697
860.592	20838
860.725	20804
860.858	20819
860.99	20716
861.123	20632
861.256	20773
861.388	20571
861.521	21428
861.653	20693
861.786	20530
861.918	20541
862.05	20682
862.183	20708
862.315	20659
862.447	20758
862.58	20617
862.712	20454
862.844	20431
862.976	20514
863.108	20488
863.24	20880
863.372	20469
863.504	20404
863.636	20450
863.768	20442
863.9	20545
864.032	20320
864.164	20408
864.296	20476
864.428	20522
864.559	20568
864.691	20488
864.823	20343
864.954	20438
865.086	20492
865.217	20347
865.349	20218
865.48	20278
865.612	20320
865.743	20473
865.875	20423
866.006	20298
866.137	20347
866.269	20278
866.4	20427
866.531	20267
866.662	20149
866.793	20271
866.924	20252
867.055	20385
867.186	20233
867.317	20267
867.448	20218
867.579	20237
867.71	20126
867.841	20161
867.972	20336
868.103	20286
868.233	20362
868.364	20305
868.495	20336
868.625	20419
868.756	20693
868.886	20419
869.017	20503
869.147	20724
869.278	20629
869.408	20579
869.539	20568
869.669	20571
869.799	20560
869.929	20651
870.06	20545
870.19	20781
870.32	20864
870.45	20956
870.58	20952
870.71	21100
870.84	21203
870.97	20842
871.1	20952
871.23	21237
871.36	21058
871.489	21089
871.619	21077
871.749	21074
871.879	21180
872.008	21260
872.138	21222
872.267	21230
872.397	20868
872.526	20891
872.656	21001
872.785	20910
872.915	21108
873.044	21169
873.173	21184
873.303	21230
873.432	21211
873.561	21272
873.69	21176
873.819	21150
873.948	21336
874.077	21024
874.206	21013
874.335	21066
874.464	21192
874.593	21405
874.722	21332
874.851	21416
874.979	21351
875.108	21389
875.237	21428
875.365	21245
875.494	21344
875.623	21408
875.751	21370
875.88	21397
876.008	21511
876.136	21488
876.265	21778
876.393	21937
876.521	21793
876.65	21831
876.778	21732
876.906	21709
877.034	21595
877.162	21873
877.29	21686
877.418	21884
877.546	21720
877.674	21827
877.802	21907
877.93	21762
878.058	21667
878.185	21644
878.313	21667
878.441	21709
878.568	21580
878.696	21747
878.824	21854
878.951	21804
879.079	21918
879.206	22013
879.333	21903
879.461	21759
879.588	21838
879.715	21991
879.842	22013
879.97	21812
880.097	21580
880.224	21622
880.351	21667
880.478	21557
880.605	21511
880.732	21542
880.859	21876
880.986	21610
881.112	21660
881.239	21428
881.366	21412
881.493	21332
881.619	21207
881.746	21340
881.872	21233
881.999	21169
882.125	21188
882.252	21192
882.378	21112
882.505	21363
882.631	21066
882.757	20929
882.883	20864
883.01	20948
883.136	20815
883.262	20823
883.388	20708
883.514	20853
883.64	21009
883.766	20925
883.892	20735
884.018	20705
884.143	20826
884.269	20902
884.395	20606
884.52	20632
884.646	20644
884.772	20461
884.897	20476
885.023	20545
885.148	20602
885.274	20693
885.399	20602
885.524	20537
885.65	20629
885.775	20495
885.9	20495
886.025	20648
886.15	20613
886.275	20400
886.4	20511
886.525	20465
886.65	20484
886.775	20320
886.9	20689
887.025	20746
887.149	20488
887.274	20324
887.399	20309
887.523	20366
887.648	20339
887.773	20168
887.897	20313
888.021	20351
888.146	20263
888.27	20537
888.395	20423
888.519	20355
888.643	20347
888.767	20522
888.891	20161
889.015	20142
889.139	20180
889.263	20122
889.387	20237
889.511	20267
889.635	20278
889.759	20092
889.883	20077
890.006	20134
890.13	20320
890.254	20050
890.377	20027
890.501	19849
890.624	19906
890.748	19913
890.871	19746
890.995	19708
891.118	19727
891.241	19723
891.364	19696
891.488	19689
891.611	19677
891.734	19738
891.857	19681
891.98	19696
892.103	19799
892.226	19738
892.349	19491
892.471	19407
892.594	19677
892.717	19571
892.839	19635
892.962	19632
893.085	19826
893.207	19620
893.33	19529
893.452	19601
893.575	19677
893.697	19514
893.819	19814
893.941	19799
894.064	19693
894.186	19571
894.308	19480
894.43	19772
894.552	19746
894.674	19632
894.796	19518
894.918	19514
895.04	19559
895.161	19651
895.283	19635
895.405	19575
895.526	19575
895.648	19468
895.769	19525
895.891	19601
896.012	19746
896.134	19662
896.255	19552
896.376	19548
896.498	19643
896.619	19689
896.74	19521
896.861	19582
896.982	19967
897.103	20122
897.224	19909
897.345	19788
897.466	19890
897.587	19913
897.708	19986
897.828	19883
897.949	19818
898.07	19628
898.19	19788
898.311	19807
898.431	19841
898.552	19712
898.672	19902
898.792	20027
898.913	19818
899.033	19776
899.153	19681
899.273	19537
899.393	19487
899.513	19624
899.633	19499
899.753	19635
899.873	19556
899.993	19674
900.113	19521
900.232	19563
900.352	19563
900.472	19434
900.591	19472
900.711	19388
900.83	19304
900.95	19460
901.069	19457
901.189	19175
901.308	19015
901.427	19012
901.546	18901
901.665	19038
901.784	18970
901.904	18958
902.023	18814
902.141	18631
902.26	18464
902.379	18544
902.498	18464
902.617	18471
902.735	18502
902.854	18384
902.973	18330
903.091	18133
903.21	18140
903.328	18194
903.446	18083
903.565	18030
903.683	17874
903.801	17821
903.919	17866
904.038	17893
904.156	17836
904.274	17676
904.392	17691
904.51	17748
904.627	17733
904.745	17817
904.863	17836
904.981	17608
905.098	17406
905.216	17406
905.334	17566
905.451	17436
905.569	17459
905.686	17440
905.803	17482
905.921	17189
906.038	17280
906.155	17277
906.272	17200
906.389	17231
906.506	17056
906.623	16972
906.74	17037
906.857	16915
906.974	16999
907.091	17060
907.208	16999
907.324	16911
907.441	16915
907.557	16713
907.674	16599
907.79	16717
907.907	16668
908.023	16653
908.139	16630
908.256	16538
908.372	16558
908.488	16531
908.604	16497
908.72	16363
908.836	16443
908.952	16470
909.068	16512
909.184	16497
909.3	16375
909.415	16329
909.531	16337
909.647	16177
909.762	16207
909.878	16124
909.993	16143
910.108	16128
910.224	16101
910.339	16021
910.454	15991
910.57	15941
910.685	15850
910.8	16105
910.915	16109
911.03	15994
911.145	15743
911.259	15690
911.374	15686
911.489	15679
911.604	15671
911.718	15496
911.833	15473
911.947	15355
912.062	15260
912.176	15492
912.291	15511
912.405	15462
912.519	15576
912.633	15641
912.748	15530
912.862	15374
912.976	15275
913.09	15169
913.204	15241
913.318	15222
913.431	15329
913.545	15374
913.659	15389
913.772	15332
913.886	15085
914	15077
914.113	15081
914.226	15264
914.34	15119
914.453	14975
914.566	15112
914.68	14990
914.793	14967
914.906	14735
915.019	14556
915.132	14708
915.245	14613
915.358	14804
915.47	14731
915.583	14754
915.696	14838
915.809	14830
915.921	14845
916.034	14560
916.146	14625
916.259	14568
916.371	14765
916.483	14648
916.595	14541
916.708	14560
916.82	14507
916.932	14568
917.044	14469
917.156	14461
917.268	14423
917.38	14419
917.491	14476
917.603	14415
917.715	14419
917.826	14476
917.938	14343
918.049	14183
918.161	14366
918.272	14518
918.384	14423
918.495	14351
918.606	14111
918.717	14096
918.828	14275
918.939	14123
919.05	14031
919.161	14134
919.272	14031
919.383	14016
919.494	14187
919.604	14309
919.715	14084
919.826	13951
919.936	14161
920.047	14183
920.157	14145
920.267	14313
920.378	14081
920.488	14039
920.598	14176
920.708	14370
920.818	14278
920.928	14271
921.038	14343
921.148	14362
921.258	14077
921.368	14001
921.477	13970
921.587	13890
921.697	13772
921.806	13879
921.916	13765
922.025	13544
922.134	13495
922.244	13396
922.353	13510
922.462	13422
922.571	13377
922.68	13171
922.789	13160
922.898	13046
923.007	13034
923.116	13213
923.224	13183
923.333	13114
923.442	13103
923.55	12951
923.659	12977
923.767	13091
923.876	12901
923.984	12973
924.092	12837
924.201	12973
924.309	12901
924.417	12867
924.525	12844
924.633	12894
924.741	13833
924.849	12604
924.956	12821
925.064	12658
925.172	12566
925.279	12642
925.387	12498
925.494	12551
925.602	12650
925.709	12681
925.816	12452
925.924	12464
926.031	12608
926.138	12566
926.245	12597
926.352	12475
926.459	12627
926.566	12540
926.673	12506
926.779	12353
926.886	12350
926.993	12258
927.099	12224
927.206	12186
927.312	12030
927.419	12190
927.525	12228
927.631	12300
927.737	12015
927.843	11958
927.95	11920
928.056	11973
928.162	12019
928.267	12049
928.373	12665
928.479	12007
928.585	11885
928.69	11973
928.796	12060
928.901	11821
929.007	11741
929.112	11870
929.218	11866
929.323	11802
929.428	11748
929.533	11840
929.638	11707
929.743	11771
929.848	11764
929.953	11619
930.058	11604
930.163	11535
930.267	11490
930.372	11615
930.477	11467
930.581	11611
930.685	11474
930.79	11345
930.894	11299
930.998	11204
931.103	11448
931.207	11132
931.311	11052
931.415	10927
931.519	10843
931.623	10694
