Data from test_V78500241_2603.txt Node
Date: Fri Mar 25 15:27:59 CST 2022
User: usil
Spectrometer: V785-0024
Trigger mode: 0
Integration Time (sec): 4.000000E-1
Scans to average: 1
Nonlinearity correction enabled: false
Boxcar width: 0
Storing dark spectrum: false
XAxis mode: Wavelengths
Number of Pixels in Spectrum: 1024
>>>>>Begin Spectral Data<<<<<
801.071	27233
801.214	27131
801.356	26906
801.499	26906
801.641	26834
801.783	26686
801.926	26712
802.068	26686
802.211	26648
802.353	26590
802.496	26476
802.638	26514
802.78	26351
802.923	26358
803.065	26172
803.208	26263
803.35	26267
803.492	26503
803.635	26575
803.777	26495
803.919	26583
804.061	26872
804.204	26575
804.346	26644
804.488	26328
804.63	26450
804.773	26480
804.915	26484
805.057	26575
805.199	26396
805.341	26583
805.483	26636
805.626	26632
805.768	26450
805.91	26674
806.052	26606
806.194	26568
806.336	26697
806.478	26594
806.62	26613
806.762	26792
806.904	26724
807.046	27096
807.188	27062
807.33	27127
807.472	27001
807.614	27009
807.756	26990
807.898	26918
808.04	26762
808.182	26838
808.324	26853
808.465	26899
808.607	27127
808.749	27157
808.891	27355
809.033	27348
809.174	27321
809.316	27108
809.458	27256
809.6	27214
809.741	27272
809.883	27378
810.025	27618
810.166	27443
810.308	27397
810.45	27427
810.591	27454
810.733	27287
810.875	27344
811.016	27123
811.158	27081
811.299	27378
811.441	27351
811.582	27386
811.724	27154
811.865	27138
812.007	27214
812.148	27173
812.29	27218
812.431	27302
812.573	27610
812.714	27572
812.855	27736
812.997	27850
813.138	27846
813.279	27800
813.421	27694
813.562	27720
813.703	27374
813.845	27553
813.986	27157
814.127	26906
814.268	26823
814.41	26819
814.551	26838
814.692	26933
814.833	26777
814.974	26765
815.115	26940
815.256	26731
815.397	26777
815.539	26686
815.68	26575
815.821	26613
815.962	26750
816.103	26640
816.244	26438
816.385	26336
816.526	26377
816.666	26244
816.807	26149
816.948	26073
817.089	26263
817.23	26103
817.371	26145
817.512	26138
817.653	26142
817.793	26092
817.934	26073
818.075	26172
818.216	26084
818.356	26073
818.497	25944
818.638	25856
818.778	25837
818.919	25837
819.06	25993
819.2	25986
819.341	25940
819.481	26081
819.622	26362
819.762	26431
819.903	26355
820.043	26290
820.184	26183
820.324	26309
820.465	26294
820.605	26221
820.746	26111
820.886	26176
821.026	26320
821.167	26130
821.307	26282
821.447	26195
821.588	26164
821.728	25849
821.868	25632
822.008	25670
822.149	25639
822.289	25616
822.429	25343
822.569	25194
822.709	25304
822.849	25137
822.99	25122
823.13	25148
823.27	25050
823.41	24932
823.55	24840
823.69	24954
823.83	24947
823.97	24852
824.11	24825
824.25	24684
824.389	24760
824.529	24954
824.669	24779
824.809	25038
824.949	24791
825.089	24863
825.228	24719
825.368	24494
825.508	24608
825.648	24661
825.787	24730
825.927	24635
826.067	24437
826.206	24650
826.346	24722
826.485	24738
826.625	24601
826.765	24760
826.904	24722
827.044	24460
827.183	24483
827.323	24327
827.462	24399
827.601	24292
827.741	24239
827.88	24433
828.02	24350
828.159	24391
828.298	24426
828.437	24490
828.577	24319
828.716	24315
828.855	24315
828.994	23992
829.134	24057
829.273	24076
829.412	24072
829.551	24041
829.69	23950
829.829	24068
829.968	24194
830.107	24133
830.246	24068
830.385	23958
830.524	23790
830.663	23863
830.802	23866
830.941	23570
831.08	23665
831.219	23729
831.357	23687
831.496	23878
831.635	23687
831.774	23687
831.913	23592
832.051	23440
832.19	23463
832.329	23543
832.467	23379
832.606	23299
832.744	23220
832.883	23326
833.022	23227
833.16	23398
833.299	23356
833.437	23421
833.576	23425
833.714	23402
833.852	23478
833.991	23398
834.129	23512
834.267	23581
834.406	23398
834.544	23410
834.682	23509
834.821	23433
834.959	23551
835.097	23360
835.235	23417
835.373	23467
835.511	23551
835.65	23235
835.788	23307
835.926	23159
836.064	23102
836.202	23155
836.34	23288
836.478	23414
836.615	23322
836.753	23246
836.891	23356
837.029	23334
837.167	23159
837.305	23220
837.443	23064
837.58	23018
837.718	23200
837.856	23124
837.993	23109
838.131	23174
838.269	22892
838.406	22965
838.544	22812
838.681	22873
838.819	22664
838.956	22584
839.094	22538
839.231	22687
839.369	22774
839.506	22915
839.643	22858
839.781	22527
839.918	22580
840.055	22675
840.193	22569
840.33	22470
840.467	22664
840.604	22603
840.742	22934
840.879	22379
841.016	22497
841.153	22443
841.29	22634
841.427	22428
841.564	22596
841.701	22565
841.838	22550
841.975	22386
842.112	22497
842.249	22436
842.385	22314
842.522	22527
842.659	22413
842.796	22348
842.933	22295
843.069	22226
843.206	22200
843.343	22318
843.479	22356
843.616	22352
843.752	22048
843.889	22173
844.025	22226
844.162	22105
844.298	22249
844.435	22051
844.571	22078
844.708	22143
844.844	22139
844.98	22120
845.117	22223
845.253	21994
845.389	22010
845.525	21926
845.661	21937
845.798	21781
845.934	21709
846.07	21857
846.206	21869
846.342	21968
846.478	21869
846.614	21534
846.75	21462
846.886	21477
847.022	21629
847.158	21629
847.294	21599
847.429	21625
847.565	21485
847.701	21720
847.837	21188
847.972	21268
848.108	21408
848.244	21313
848.379	21275
848.515	21165
848.65	21169
848.786	21116
848.921	21138
849.057	21195
849.192	21203
849.328	21176
849.463	21108
849.598	21123
849.734	21058
849.869	20880
850.004	20925
850.14	21047
850.275	20960
850.41	20826
850.545	20765
850.68	20872
850.815	20861
850.95	20815
851.085	21055
851.22	20937
851.355	20933
851.49	20765
851.625	20906
851.76	20937
851.895	20842
852.03	20891
852.165	20910
852.299	20979
852.434	20975
852.569	20941
852.703	20899
852.838	20960
852.973	21066
853.107	21028
853.242	20868
853.376	20667
853.511	20587
853.645	20701
853.78	20804
853.914	20781
854.048	20629
854.183	20655
854.317	20705
854.451	20918
854.585	20678
854.72	20651
854.854	20845
854.988	20754
855.122	20636
855.256	20541
855.39	20727
855.524	20842
855.658	20769
855.792	20708
855.926	20796
856.06	20746
856.194	20872
856.327	20682
856.461	20674
856.595	20674
856.729	20739
856.862	20876
856.996	20693
857.13	20750
857.263	20720
857.397	20948
857.53	20682
857.664	20739
857.797	20823
857.931	20845
858.064	20743
858.197	20849
858.331	20754
858.464	20522
858.597	20705
858.731	20697
858.864	20697
858.997	20762
859.13	20693
859.263	20754
859.396	20895
859.529	20842
859.662	20739
859.795	20606
859.928	20724
860.061	20842
860.194	20781
860.327	20765
860.46	20621
860.592	20785
860.725	20769
860.858	20861
860.99	20842
861.123	20507
861.256	20697
861.388	20727
861.521	21428
861.653	20488
861.786	20522
861.918	20667
862.05	20571
862.183	20598
862.315	20537
862.447	20678
862.58	20609
862.712	20476
862.844	20389
862.976	20651
863.108	20476
863.24	21066
863.372	20404
863.504	20381
863.636	20438
863.768	20442
863.9	20495
864.032	20423
864.164	20301
864.296	20518
864.428	20518
864.559	20400
864.691	20442
864.823	20457
864.954	20511
865.086	20389
865.217	20488
865.349	20248
865.48	20309
865.612	20317
865.743	20564
865.875	20339
866.006	20298
866.137	20393
866.269	20313
866.4	20351
866.531	20275
866.662	20294
866.793	20317
866.924	20259
867.055	20393
867.186	20301
867.317	20286
867.448	20237
867.579	20320
867.71	20218
867.841	20088
867.972	20389
868.103	20252
868.233	20298
868.364	20229
868.495	20366
868.625	20488
868.756	20545
868.886	20499
869.017	20507
869.147	20556
869.278	20705
869.408	20568
869.539	20621
869.669	20533
869.799	20708
869.929	20663
870.06	20636
870.19	20868
870.32	20842
870.45	20975
870.58	20838
870.71	20975
870.84	20963
870.97	21020
871.1	20842
871.23	21039
871.36	21039
871.489	21074
871.619	21062
871.749	21066
871.879	21074
872.008	21211
872.138	21043
872.267	21062
872.397	21017
872.526	20998
872.656	20876
872.785	21020
872.915	21123
873.044	21214
873.173	21108
873.303	21226
873.432	21226
873.561	21249
873.69	21230
873.819	21298
873.948	21302
874.077	21192
874.206	21036
874.335	21108
874.464	21245
874.593	21458
874.722	21230
874.851	21534
874.979	21401
875.108	21351
875.237	21367
875.365	21283
875.494	21249
875.623	21511
875.751	21268
875.88	21336
876.008	21507
876.136	21694
876.265	21720
876.393	21983
876.521	21835
876.65	21960
876.778	21816
876.906	21789
877.034	21728
877.162	21743
877.29	21641
877.418	21770
877.546	21835
877.674	21774
877.802	21705
877.93	21778
878.058	21751
878.185	21622
878.313	21720
878.441	21835
878.568	21530
878.696	21774
878.824	21854
878.951	21854
879.079	21823
879.206	21972
879.333	21846
879.461	21774
879.588	21701
879.715	21880
879.842	21964
879.97	21895
880.097	21553
880.224	21485
880.351	21545
880.478	21686
880.605	21485
880.732	21553
880.859	21789
880.986	21530
881.112	21431
881.239	21348
881.366	21329
881.493	21321
881.619	21142
881.746	21233
881.872	21089
881.999	21047
882.125	20933
882.252	21116
882.378	21119
882.505	21203
882.631	20899
882.757	20925
882.883	20895
883.01	20785
883.136	20754
883.262	20663
883.388	20609
883.514	20895
883.64	20838
883.766	20739
883.892	20549
884.018	20724
884.143	20883
884.269	20853
884.395	20606
884.52	20568
884.646	20473
884.772	20575
884.897	20347
885.023	20556
885.148	20568
885.274	20621
885.399	20594
885.524	20511
885.65	20564
885.775	20552
885.9	20480
886.025	20632
886.15	20499
886.275	20408
886.4	20446
886.525	20370
886.65	20396
886.775	20438
886.9	20629
887.025	20788
887.149	20579
887.274	20248
887.399	20206
887.523	20278
887.648	20248
887.773	20130
887.897	20320
888.021	20320
888.146	20210
888.27	20343
888.395	20336
888.519	20332
888.643	20309
888.767	20370
888.891	20248
889.015	20046
889.139	20138
889.263	20054
889.387	20195
889.511	20381
889.635	20161
889.759	20202
889.883	20035
890.006	20096
890.13	20221
890.254	20031
890.377	20016
890.501	19944
890.624	19795
890.748	19947
890.871	19647
890.995	19685
891.118	19609
891.241	19693
891.364	19643
891.488	19750
891.611	19578
891.734	19689
891.857	19666
891.98	19651
892.103	19765
892.226	19594
892.349	19655
892.471	19510
892.594	19552
892.717	19643
892.839	19571
892.962	19556
893.085	19666
893.207	19537
893.33	19472
893.452	19533
893.575	19639
893.697	19533
893.819	19738
893.941	19666
894.064	19635
894.186	19586
894.308	19567
894.43	19750
894.552	19719
894.674	19590
894.796	19430
894.918	19548
895.04	19438
895.161	19628
895.283	19628
895.405	19594
895.526	19674
895.648	19491
895.769	19571
895.891	19518
896.012	19567
896.134	19582
896.255	19480
896.376	19563
896.498	19457
896.619	19571
896.74	19605
896.861	19704
896.982	19936
897.103	19879
897.224	19947
897.345	19769
897.466	19799
897.587	19898
897.708	19822
897.828	19890
897.949	19761
898.07	19647
898.19	19830
898.311	19932
898.431	19681
898.552	19814
898.672	19921
898.792	20016
898.913	19799
899.033	19704
899.153	19628
899.273	19586
899.393	19567
899.513	19666
899.633	19609
899.753	19521
899.873	19544
899.993	19597
900.113	19487
900.232	19430
900.352	19597
900.472	19460
900.591	19354
900.711	19346
900.83	19240
900.95	19392
901.069	19422
901.189	19133
901.308	18958
901.427	18878
901.546	18966
901.665	18985
901.784	19000
901.904	18856
902.023	18692
902.141	18479
902.26	18388
902.379	18456
902.498	18464
902.617	18395
902.735	18467
902.854	18452
902.973	18357
903.091	18163
903.21	18136
903.328	18155
903.446	18072
903.565	17980
903.683	17882
903.801	17939
903.919	17965
904.038	17889
904.156	17767
904.274	17767
904.392	17608
904.51	17661
904.627	17577
904.745	17672
904.863	17779
904.981	17471
905.098	17463
905.216	17395
905.334	17532
905.451	17452
905.569	17391
905.686	17509
905.803	17360
905.921	17105
906.038	17220
906.155	17189
906.272	17170
906.389	17151
906.506	16938
906.623	16934
906.74	16915
906.857	16820
906.974	16809
907.091	17067
907.208	17052
907.324	16919
907.441	16812
907.557	16744
907.674	16683
907.79	16542
907.907	16607
908.023	16573
908.139	16630
908.256	16569
908.372	16660
908.488	16618
908.604	16462
908.72	16265
908.836	16348
908.952	16386
909.068	16405
909.184	16466
909.3	16322
909.415	16447
909.531	16371
909.647	16082
909.762	16059
909.878	16036
909.993	15975
910.108	16093
910.224	16025
910.339	16105
910.454	15941
910.57	15930
910.685	15850
910.8	16101
910.915	16090
911.03	15846
911.145	15675
911.259	15724
911.374	15717
911.489	15587
911.604	15648
911.718	15374
911.833	15408
911.947	15485
912.062	15321
912.176	15469
912.291	15542
912.405	15424
912.519	15637
912.633	15595
912.748	15488
912.862	15374
912.976	15340
913.09	15176
913.204	15249
913.318	15291
913.431	15412
913.545	15454
913.659	15367
913.772	15272
913.886	15097
914	15051
914.113	15199
914.226	15252
914.34	15272
914.453	14986
914.566	15195
914.68	15036
914.793	14872
914.906	14750
915.019	14670
915.132	14552
915.245	14731
915.358	14625
915.47	14663
915.583	14697
915.696	14686
915.809	14826
915.921	14735
916.034	14526
916.146	14606
916.259	14575
916.371	14705
916.483	14682
916.595	14530
916.708	14541
916.82	14533
916.932	14484
917.044	14503
917.156	14457
917.268	14389
917.38	14374
917.491	14339
917.603	14313
917.715	14473
917.826	14457
917.938	14263
918.049	14221
918.161	14233
918.272	14522
918.384	14396
918.495	14233
918.606	14164
918.717	14111
918.828	14206
918.939	14130
919.05	14012
919.161	14084
919.272	13906
919.383	13997
919.494	14123
919.604	14256
919.715	14202
919.826	13982
919.936	14046
920.047	14183
920.157	14138
920.267	14214
920.378	14191
920.488	14043
920.598	14221
920.708	14309
920.818	14206
920.928	14191
921.038	14347
921.148	14267
921.258	14031
921.368	13871
921.477	13788
921.587	13818
921.697	13689
921.806	13947
921.916	13772
922.025	13537
922.134	13537
922.244	13476
922.353	13544
922.462	13373
922.571	13320
922.68	13263
922.789	13164
922.898	13129
923.007	13103
923.116	13118
923.224	13114
923.333	13095
923.442	12920
923.55	12894
923.659	12932
923.767	13012
923.876	12954
923.984	12966
924.092	12722
924.201	12833
924.309	12947
924.417	12863
924.525	12852
924.633	12856
924.741	13712
924.849	12669
924.956	12791
925.064	12593
925.172	12490
925.279	12517
925.387	12536
925.494	12574
925.602	12760
925.709	12658
925.816	12395
925.924	12521
926.031	12563
926.138	12582
926.245	12604
926.352	12494
926.459	12604
926.566	12540
926.673	12410
926.779	12323
926.886	12315
926.993	12197
927.099	12190
927.206	12144
927.312	12011
927.419	12148
927.525	12186
927.631	12182
927.737	11980
927.843	11973
927.95	11874
928.056	12015
928.162	12091
928.267	12011
928.373	12498
928.479	12030
928.585	11809
928.69	11923
928.796	11950
928.901	11874
929.007	11668
929.112	11901
929.218	11874
929.323	11813
929.428	11676
929.533	11771
929.638	11680
929.743	11619
929.848	11729
929.953	11608
930.058	11551
930.163	11417
930.267	11425
930.372	11577
930.477	11364
930.581	11623
930.685	11455
930.79	11239
930.894	11288
930.998	11318
931.103	11402
931.207	11060
931.311	11022
931.415	10923
931.519	10717
931.623	10668
