Data from test_V78500241_324.txt Node
Date: Fri Mar 25 15:12:06 CST 2022
User: usil
Spectrometer: V785-0024
Trigger mode: 0
Integration Time (sec): 4.000000E-1
Scans to average: 1
Nonlinearity correction enabled: false
Boxcar width: 0
Storing dark spectrum: false
XAxis mode: Wavelengths
Number of Pixels in Spectrum: 1024
>>>>>Begin Spectral Data<<<<<
801.071	28044
801.214	28002
801.356	27671
801.499	27660
801.641	27511
801.783	27545
801.926	27447
802.068	27492
802.211	27424
802.353	27321
802.496	27279
802.638	27150
802.78	27039
802.923	27127
803.065	27062
803.208	27119
803.35	27161
803.492	27127
803.635	27302
803.777	27165
803.919	27287
804.061	27698
804.204	27302
804.346	27283
804.488	27096
804.63	27203
804.773	27207
804.915	27291
805.057	27344
805.199	27405
805.341	27416
805.483	27279
805.626	27348
805.768	27298
805.91	27336
806.052	27389
806.194	27180
806.336	27450
806.478	27313
806.62	27321
806.762	27325
806.904	27819
807.046	27804
807.188	27724
807.33	27705
807.472	27857
807.614	27812
807.756	27698
807.898	27637
808.04	27538
808.182	27606
808.324	27424
808.465	27504
808.607	27781
808.749	27945
808.891	28044
809.033	28139
809.174	28002
809.316	27998
809.458	28055
809.6	27987
809.741	28059
809.883	28051
810.025	28196
810.166	28329
810.308	28196
810.45	28211
810.591	28150
810.733	28177
810.875	27972
811.016	27785
811.158	27766
811.299	28059
811.441	28090
811.582	28105
811.724	27941
811.865	27808
812.007	27816
812.148	28036
812.29	27953
812.431	28131
812.573	28363
812.714	28333
812.855	28455
812.997	28588
813.138	28725
813.279	28656
813.421	28550
813.562	28322
813.703	28333
813.845	28211
813.986	27884
814.127	27698
814.268	27663
814.41	27823
814.551	27629
814.692	27671
814.833	27542
814.974	27603
815.115	27610
815.256	27500
815.397	27504
815.539	27439
815.68	27393
815.821	27359
815.962	27336
816.103	27435
816.244	27233
816.385	27222
816.526	27199
816.666	26853
816.807	26899
816.948	26952
817.089	26975
817.23	26845
817.371	26971
817.512	26811
817.653	26883
817.793	26845
817.934	26838
818.075	26899
818.216	26849
818.356	26925
818.497	26670
818.638	26560
818.778	26431
818.919	26514
819.06	26613
819.2	26781
819.341	26663
819.481	26792
819.622	26838
819.762	27127
819.903	27058
820.043	26925
820.184	26895
820.324	27013
820.465	26880
820.605	26933
820.746	26952
820.886	26731
821.026	26876
821.167	26872
821.307	27043
821.447	26861
821.588	26727
821.728	26590
821.868	26476
822.008	26252
822.149	26218
822.289	26199
822.429	26024
822.569	25917
822.709	25974
822.849	25761
822.99	25765
823.13	25681
823.27	25738
823.41	25605
823.55	25460
823.69	25506
823.83	25597
823.97	25514
824.11	25335
824.25	25324
824.389	25335
824.529	25373
824.669	25464
824.809	25567
824.949	25472
825.089	25548
825.228	25426
825.368	25255
825.508	25114
825.648	25221
825.787	25217
825.927	25430
826.067	25152
826.206	25175
826.346	25236
826.485	25343
826.625	25217
826.765	25304
826.904	25240
827.044	25000
827.183	24913
827.323	24901
827.462	25080
827.601	24920
827.741	24977
827.88	24909
828.02	24814
828.159	24939
828.298	25012
828.437	25019
828.577	24817
828.716	25088
828.855	24711
828.994	24791
829.134	24696
829.273	24639
829.412	24665
829.551	24437
829.69	24642
829.829	24715
829.968	24726
830.107	24612
830.246	24528
830.385	24627
830.524	24494
830.663	24391
830.802	24426
830.941	24243
831.08	24190
831.219	24277
831.357	24285
831.496	24433
831.635	24194
831.774	24125
831.913	24117
832.051	24045
832.19	23961
832.329	24110
832.467	23935
832.606	23851
832.744	23897
832.883	23916
833.022	23980
833.16	23939
833.299	24072
833.437	23984
833.576	24026
833.714	23912
833.852	23931
833.991	23950
834.129	24140
834.267	24030
834.406	24038
834.544	24087
834.682	24026
834.821	23980
834.959	24072
835.097	23832
835.235	23950
835.373	23920
835.511	23908
835.65	23760
835.788	23737
835.926	23729
836.064	23726
836.202	23680
836.34	23889
836.478	23920
836.615	23676
836.753	23714
836.891	23870
837.029	23790
837.167	23657
837.305	23710
837.443	23611
837.58	23687
837.718	23611
837.856	23551
837.993	23535
838.131	23608
838.269	23391
838.406	23490
838.544	23463
838.681	23303
838.819	23258
838.956	23143
839.094	23132
839.231	23185
839.369	23254
839.506	23630
839.643	23345
839.781	23060
839.918	23052
840.055	23090
840.193	23136
840.33	23003
840.467	23200
840.604	23151
840.742	23334
840.879	22763
841.016	22873
841.153	22957
841.29	23124
841.427	23033
841.564	23060
841.701	23048
841.838	22892
841.975	22812
842.112	22980
842.249	22850
842.385	22782
842.522	22881
842.659	22774
842.796	22713
842.933	22759
843.069	22752
843.206	22744
843.343	22721
843.479	22687
843.616	22713
843.752	22466
843.889	22664
844.025	22691
844.162	22470
844.298	22630
844.435	22500
844.571	22428
844.708	22557
844.844	22729
844.98	22546
845.117	22523
845.253	22474
845.389	22436
845.525	22405
845.661	22367
845.798	22295
845.934	22348
846.07	22139
846.206	22261
846.342	22440
846.478	22188
846.614	22048
846.75	21934
846.886	22021
847.022	21987
847.158	22101
847.294	21998
847.429	22040
847.565	22059
847.701	22124
847.837	21641
847.972	21637
848.108	21804
848.244	21732
848.379	21622
848.515	21466
848.65	21481
848.786	21519
848.921	21542
849.057	21622
849.192	21561
849.328	21690
849.463	21568
849.598	21561
849.734	21454
849.869	21378
850.004	21363
850.14	21355
850.275	21310
850.41	21283
850.545	21173
850.68	21306
850.815	21268
850.95	21268
851.085	21458
851.22	21393
851.355	21386
851.49	21401
851.625	21188
851.76	21283
851.895	21249
852.03	21173
852.165	21378
852.299	21222
852.434	21321
852.569	21389
852.703	21165
852.838	21443
852.973	21405
853.107	21389
853.242	21302
853.376	21188
853.511	21074
853.645	21051
853.78	21138
853.914	21001
854.048	21001
854.183	21058
854.317	21100
854.451	21294
854.585	21013
854.72	21058
854.854	21150
854.988	21104
855.122	21157
855.256	21058
855.39	20921
855.524	21165
855.658	21085
855.792	21089
855.926	21081
856.06	21207
856.194	21211
856.327	21036
856.461	20982
856.595	21165
856.729	21173
856.862	21264
856.996	21192
857.13	21222
857.263	21233
857.397	21127
857.53	21135
857.664	21173
857.797	21116
857.931	21207
858.064	21169
858.197	21260
858.331	21131
858.464	21096
858.597	20994
858.731	21001
858.864	21074
858.997	21005
859.13	21161
859.263	21199
859.396	21119
859.529	21108
859.662	21119
859.795	20960
859.928	21074
860.061	21180
860.194	21294
860.327	21150
860.46	21047
860.592	21180
860.725	21233
860.858	21275
860.99	20986
861.123	21013
861.256	20971
861.388	21028
861.521	21724
861.653	21051
861.786	21001
861.918	20944
862.05	20975
862.183	21180
862.315	20998
862.447	21104
862.58	20906
862.712	20910
862.844	20769
862.976	20990
863.108	20735
863.24	21317
863.372	20651
863.504	20777
863.636	20876
863.768	20864
863.9	20800
864.032	20663
864.164	20743
864.296	20800
864.428	20880
864.559	20929
864.691	20826
864.823	20853
864.954	20823
865.086	20777
865.217	20792
865.349	20716
865.48	20712
865.612	20651
865.743	20796
865.875	20693
866.006	20564
866.137	20644
866.269	20640
866.4	20663
866.531	20659
866.662	20663
866.793	20644
866.924	20636
867.055	20659
867.186	20560
867.317	20480
867.448	20644
867.579	20568
867.71	20530
867.841	20568
867.972	20594
868.103	20568
868.233	20590
868.364	20609
868.495	20636
868.625	20868
868.756	20800
868.886	20800
869.017	20769
869.147	20982
869.278	20998
869.408	20994
869.539	20937
869.669	20941
869.799	20849
869.929	20982
870.06	20937
870.19	21108
870.32	21157
870.45	21294
870.58	21310
870.71	21313
870.84	21420
870.97	21214
871.1	21264
871.23	21610
871.36	21500
871.489	21428
871.619	21386
871.749	21378
871.879	21485
872.008	21572
872.138	21591
872.267	21477
872.397	21340
872.526	21294
872.656	21294
872.785	21306
872.915	21420
873.044	21492
873.173	21458
873.303	21447
873.432	21507
873.561	21637
873.69	21405
873.819	21526
873.948	21492
874.077	21564
874.206	21382
874.335	21386
874.464	21572
874.593	21778
874.722	21701
874.851	21701
874.979	21762
875.108	21823
875.237	21561
875.365	21743
875.494	21614
875.623	21808
875.751	21751
875.88	21835
876.008	21781
876.136	21907
876.265	22147
876.393	22352
876.521	22215
876.65	22120
876.778	22238
876.906	22017
877.034	22128
877.162	22154
877.29	22013
877.418	22207
877.546	22055
877.674	21892
877.802	22040
877.93	22070
878.058	21983
878.185	22013
878.313	21956
878.441	22055
878.568	22006
878.696	22029
878.824	22070
878.951	22162
879.079	22314
879.206	22394
879.333	22333
879.461	22154
879.588	21968
879.715	22242
879.842	22265
879.97	22181
880.097	21998
880.224	21819
880.351	21808
880.478	21869
880.605	21964
880.732	21918
880.859	22181
880.986	21876
881.112	21797
881.239	21739
881.366	21648
881.493	21488
881.619	21488
881.746	21382
881.872	21492
881.999	21519
882.125	21401
882.252	21583
882.378	21466
882.505	21545
882.631	21313
882.757	21146
882.883	21306
883.01	21184
883.136	21157
883.262	21058
883.388	21047
883.514	21264
883.64	21146
883.766	21256
883.892	20921
884.018	21062
884.143	21096
884.269	21135
884.395	20830
884.52	20815
884.646	20883
884.772	20845
884.897	20750
885.023	20792
885.148	20956
885.274	20948
885.399	20971
885.524	20750
885.65	20724
885.775	20708
885.9	20727
886.025	20921
886.15	20834
886.275	20754
886.4	20743
886.525	20678
886.65	20788
886.775	20750
886.9	20914
887.025	20895
887.149	20887
887.274	20594
887.399	20621
887.523	20560
887.648	20564
887.773	20556
887.897	20739
888.021	20644
888.146	20541
888.27	20667
888.395	20678
888.519	20587
888.643	20682
888.767	20594
888.891	20473
889.015	20469
889.139	20446
889.263	20259
889.387	20488
889.511	20526
889.635	20503
889.759	20332
889.883	20370
890.006	20408
890.13	20450
890.254	20343
890.377	20240
890.501	20062
890.624	20054
890.748	20054
890.871	19978
890.995	20043
891.118	19769
891.241	19940
891.364	19921
891.488	20077
891.611	19993
891.734	19955
891.857	19955
891.98	20065
892.103	19970
892.226	20039
892.349	19993
892.471	19822
892.594	19795
892.717	19780
892.839	19837
892.962	19879
893.085	19837
893.207	19856
893.33	19765
893.452	19765
893.575	19864
893.697	19765
893.819	20027
893.941	20130
894.064	20050
894.186	19757
894.308	19894
894.43	20016
894.552	20001
894.674	19772
894.796	19628
894.918	19967
895.04	19750
895.161	19803
895.283	19898
895.405	19784
895.526	19826
895.648	19875
895.769	19967
895.891	19951
896.012	19860
896.134	19989
896.255	20005
896.376	19947
896.498	19860
896.619	19970
896.74	19818
896.861	20039
896.982	20153
897.103	20355
897.224	20043
897.345	20031
897.466	20012
897.587	20084
897.708	20168
897.828	20126
897.949	19959
898.07	19852
898.19	19947
898.311	20244
898.431	20096
898.552	20062
898.672	20088
898.792	20142
898.913	20054
899.033	19951
899.153	19868
899.273	19887
899.393	19803
899.513	19765
899.633	19761
899.753	19769
899.873	19757
899.993	19860
900.113	19746
900.232	19734
900.352	19700
900.472	19537
900.591	19533
900.711	19624
900.83	19464
900.95	19734
901.069	19647
901.189	19480
901.308	19274
901.427	19198
901.546	19164
901.665	19259
901.784	19232
901.904	19042
902.023	19031
902.141	18772
902.26	18749
902.379	18688
902.498	18688
902.617	18650
902.735	18760
902.854	18684
902.973	18650
903.091	18429
903.21	18186
903.328	18380
903.446	18338
903.565	18117
903.683	18186
903.801	18106
903.919	18144
904.038	18125
904.156	18019
904.274	17988
904.392	17855
904.51	17916
904.627	17851
904.745	18015
904.863	18026
904.981	17767
905.098	17592
905.216	17680
905.334	17532
905.451	17558
905.569	17653
905.686	17646
905.803	17653
905.921	17353
906.038	17539
906.155	17398
906.272	17360
906.389	17239
906.506	17109
906.623	17254
906.74	17060
906.857	17041
906.974	17048
907.091	17170
907.208	17258
907.324	17223
907.441	17033
907.557	16854
907.674	16892
907.79	16774
907.907	16873
908.023	16824
908.139	16824
908.256	16725
908.372	16767
908.488	16790
908.604	16558
908.72	16538
908.836	16679
908.952	16569
909.068	16554
909.184	16767
909.3	16466
909.415	16634
909.531	16470
909.647	16337
909.762	16424
909.878	16211
909.993	16306
910.108	16192
910.224	16265
910.339	16249
910.454	16128
910.57	16109
910.685	16071
910.8	16303
910.915	16280
911.03	16048
911.145	15941
911.259	15941
911.374	15854
911.489	15785
911.604	15637
911.718	15656
911.833	15515
911.947	15511
912.062	15466
912.176	15587
912.291	15618
912.405	15511
912.519	15812
912.633	15759
912.748	15610
912.862	15466
912.976	15332
913.09	15329
913.204	15428
913.318	15462
913.431	15553
913.545	15572
913.659	15492
913.772	15389
913.886	15195
914	15184
914.113	15222
914.226	15443
914.34	15214
914.453	15097
914.566	15256
914.68	15135
914.793	15039
914.906	14857
915.019	14906
915.132	14880
915.245	14785
915.358	14937
915.47	14921
915.583	14788
915.696	14910
915.809	14937
915.921	14967
916.034	14796
916.146	14735
916.259	14659
916.371	14857
916.483	14739
916.595	14697
916.708	14708
916.82	14663
916.932	14651
917.044	14598
917.156	14674
917.268	14514
917.38	14476
917.491	14533
917.603	14526
917.715	14636
917.826	14590
917.938	14438
918.049	14328
918.161	14366
918.272	14678
918.384	14594
918.495	14366
918.606	14199
918.717	14252
918.828	14271
918.939	14298
919.05	14073
919.161	14282
919.272	14073
919.383	14126
919.494	14305
919.604	14457
919.715	14290
919.826	14103
919.936	14275
920.047	14290
920.157	14328
920.267	14423
920.378	14328
920.488	14206
920.598	14438
920.708	14457
920.818	14278
920.928	14423
921.038	14518
921.148	14503
921.258	14161
921.368	14111
921.477	13959
921.587	13959
921.697	13822
921.806	14005
921.916	13818
922.025	13681
922.134	13597
922.244	13594
922.353	13681
922.462	13499
922.571	13464
922.68	13221
922.789	13331
922.898	13213
923.007	13187
923.116	13217
923.224	13251
923.333	13133
923.442	13088
923.55	13065
923.659	13042
923.767	13183
923.876	12989
923.984	13133
924.092	12863
924.201	13107
924.309	13008
924.417	13034
924.525	12886
924.633	12905
924.741	13761
924.849	12700
924.956	12787
925.064	12738
925.172	12726
925.279	12684
925.387	12749
925.494	12677
925.602	12821
925.709	12730
925.816	12620
925.924	12627
926.031	12601
926.138	12593
926.245	12677
926.352	12494
926.459	12650
926.566	12783
926.673	12566
926.779	12445
926.886	12517
926.993	12285
927.099	12243
927.206	12216
927.312	12216
927.419	12315
927.525	12251
927.631	12304
927.737	12182
927.843	12102
927.95	11996
928.056	12102
928.162	12022
928.267	12076
928.373	12772
928.479	12121
928.585	11950
928.69	12038
928.796	12095
928.901	11870
929.007	11805
929.112	11931
929.218	11901
929.323	11874
929.428	11882
929.533	11942
929.638	11729
929.743	11741
929.848	11783
929.953	11741
930.058	11699
930.163	11512
930.267	11486
930.372	11600
930.477	11452
930.581	11668
930.685	11570
930.79	11463
930.894	11368
930.998	11395
931.103	11512
931.207	11159
931.311	11056
931.415	10968
931.519	10759
931.623	10729
