Data from test_V78500241_330.txt Node
Date: Fri Mar 25 15:12:09 CST 2022
User: usil
Spectrometer: V785-0024
Trigger mode: 0
Integration Time (sec): 4.000000E-1
Scans to average: 1
Nonlinearity correction enabled: false
Boxcar width: 0
Storing dark spectrum: false
XAxis mode: Wavelengths
Number of Pixels in Spectrum: 1024
>>>>>Begin Spectral Data<<<<<
801.071	27199
801.214	27093
801.356	26826
801.499	26750
801.641	26632
801.783	26720
801.926	26708
802.068	26667
802.211	26530
802.353	26453
802.496	26202
802.638	26431
802.78	26168
802.923	26157
803.065	26248
803.208	26252
803.35	26275
803.492	26423
803.635	26476
803.777	26202
803.919	26537
804.061	26712
804.204	26438
804.346	26423
804.488	26473
804.63	26453
804.773	26278
804.915	26362
805.057	26400
805.199	26473
805.341	26495
805.483	26518
805.626	26453
805.768	26385
805.91	26556
806.052	26484
806.194	26385
806.336	26579
806.478	26473
806.62	26499
806.762	26682
806.904	26765
807.046	27051
807.188	26800
807.33	26895
807.472	27020
807.614	26864
807.756	26910
807.898	26663
808.04	26724
808.182	26781
808.324	26807
808.465	26720
808.607	27100
808.749	26994
808.891	27039
809.033	27230
809.174	27256
809.316	27024
809.458	27089
809.6	27036
809.741	27268
809.883	27188
810.025	27412
810.166	27393
810.308	27374
810.45	27283
810.591	27359
810.733	27119
810.875	27077
811.016	26861
811.158	26986
811.299	27074
811.441	27214
811.582	27237
811.724	26872
811.865	26895
812.007	27047
812.148	27074
812.29	27104
812.431	27211
812.573	27378
812.714	27412
812.855	27580
812.997	27694
813.138	27918
813.279	27705
813.421	27739
813.562	27694
813.703	27401
813.845	27287
813.986	26956
814.127	26876
814.268	26830
814.41	26598
814.551	26785
814.692	26781
814.833	26609
814.974	26746
815.115	26781
815.256	26499
815.397	26621
815.539	26617
815.68	26499
815.821	26476
815.962	26568
816.103	26488
816.244	26476
816.385	26339
816.526	26278
816.666	26100
816.807	25993
816.948	26081
817.089	26111
817.23	26027
817.371	26020
817.512	26046
817.653	25932
817.793	25894
817.934	26043
818.075	26008
818.216	26001
818.356	25959
818.497	25776
818.638	25769
818.778	25715
818.919	25597
819.06	25879
819.2	25883
819.341	25944
819.481	26031
819.622	26100
819.762	26282
819.903	26233
820.043	26248
820.184	26016
820.324	26103
820.465	26126
820.605	25959
820.746	26065
820.886	25898
821.026	26027
821.167	25936
821.307	25947
821.447	26077
821.588	25852
821.728	25712
821.868	25514
822.008	25495
822.149	25468
822.289	25430
822.429	25255
822.569	25046
822.709	25179
822.849	24928
822.99	24981
823.13	24966
823.27	24837
823.41	24776
823.55	24711
823.69	24829
823.83	24764
823.97	24734
824.11	24593
824.25	24471
824.389	24517
824.529	24658
824.669	24585
824.809	24593
824.949	24574
825.089	24715
825.228	24601
825.368	24357
825.508	24467
825.648	24464
825.787	24369
825.927	24475
826.067	24475
826.206	24483
826.346	24422
826.485	24528
826.625	24357
826.765	24601
826.904	24612
827.044	24209
827.183	24213
827.323	24190
827.462	24270
827.601	24304
827.741	24083
827.88	24171
828.02	24083
828.159	23992
828.298	24350
828.437	24201
828.577	24053
828.716	24281
828.855	24114
828.994	23973
829.134	23920
829.273	23843
829.412	23878
829.551	23863
829.69	23923
829.829	23885
829.968	24034
830.107	24015
830.246	23889
830.385	23790
830.524	23794
830.663	23710
830.802	23760
830.941	23425
831.08	23417
831.219	23554
831.357	23630
831.496	23722
831.635	23478
831.774	23547
831.913	23474
832.051	23292
832.19	23258
832.329	23360
832.467	23079
832.606	23193
832.744	23121
832.883	23311
833.022	23162
833.16	23311
833.299	23303
833.437	23143
833.576	23326
833.714	23250
833.852	23261
833.991	23360
834.129	23417
834.267	23258
834.406	23246
834.544	23299
834.682	23368
834.821	23220
834.959	23273
835.097	23109
835.235	23178
835.373	23402
835.511	23250
835.65	22968
835.788	23178
835.926	23090
836.064	22965
836.202	22946
836.34	23254
836.478	23235
836.615	23231
836.753	23033
836.891	23246
837.029	23124
837.167	23239
837.305	23147
837.443	23227
837.58	22828
837.718	23044
837.856	22968
837.993	22908
838.131	22908
838.269	22869
838.406	22869
838.544	22736
838.681	22618
838.819	22569
838.956	22500
839.094	22417
839.231	22485
839.369	22561
839.506	22778
839.643	22694
839.781	22546
839.918	22310
840.055	22508
840.193	22573
840.33	22344
840.467	22356
840.604	22348
840.742	22535
840.879	22131
841.016	22219
841.153	22257
841.29	22466
841.427	22303
841.564	22318
841.701	22310
841.838	22382
841.975	22234
842.112	22246
842.249	22196
842.385	22109
842.522	22276
842.659	22291
842.796	22086
842.933	22173
843.069	22158
843.206	22086
843.343	22101
843.479	22158
843.616	22147
843.752	22051
843.889	21785
844.025	22029
844.162	21934
844.298	22173
844.435	21899
844.571	21960
844.708	21876
844.844	22067
844.98	21918
845.117	21892
845.253	21861
845.389	21812
845.525	21793
845.661	21823
845.798	21648
845.934	21835
846.07	21614
846.206	21739
846.342	21899
846.478	21622
846.614	21348
846.75	21344
846.886	21340
847.022	21469
847.158	21435
847.294	21458
847.429	21447
847.565	21397
847.701	21557
847.837	21066
847.972	21028
848.108	21218
848.244	21211
848.379	20994
848.515	20952
848.65	20963
848.786	20906
848.921	20899
849.057	21066
849.192	20948
849.328	20963
849.463	20952
849.598	20857
849.734	20986
849.869	20792
850.004	20785
850.14	20758
850.275	20819
850.41	20765
850.545	20773
850.68	20708
850.815	20857
850.95	20849
851.085	20952
851.22	20773
851.355	20754
851.49	20693
851.625	20800
851.76	20781
851.895	20651
852.03	20613
852.165	20678
852.299	20804
852.434	20845
852.569	20708
852.703	20686
852.838	20864
852.973	20868
853.107	20883
853.242	20663
853.376	20636
853.511	20374
853.645	20587
853.78	20609
853.914	20602
854.048	20514
854.183	20594
854.317	20625
854.451	20663
854.585	20575
854.72	20568
854.854	20636
854.988	20328
855.122	20549
855.256	20488
855.39	20598
855.524	20629
855.658	20560
855.792	20560
855.926	20602
856.06	20461
856.194	20511
856.327	20484
856.461	20480
856.595	20389
856.729	20549
856.862	20621
856.996	20629
857.13	20735
857.263	20678
857.397	20564
857.53	20564
857.664	20689
857.797	20617
857.931	20758
858.064	20590
858.197	20533
858.331	20579
858.464	20526
858.597	20465
858.731	20514
858.864	20541
858.997	20484
859.13	20549
859.263	20659
859.396	20678
859.529	20499
859.662	20541
859.795	20541
859.928	20617
860.061	20640
860.194	20686
860.327	20556
860.46	20533
860.592	20746
860.725	20693
860.858	20590
860.99	20545
861.123	20530
861.256	20415
861.388	20503
861.521	21123
861.653	20431
861.786	20366
861.918	20404
862.05	20434
862.183	20389
862.315	20621
862.447	20556
862.58	20514
862.712	20271
862.844	20202
862.976	20385
863.108	20339
863.24	20800
863.372	20248
863.504	20229
863.636	20149
863.768	20294
863.9	20240
864.032	20248
864.164	20237
864.296	20256
864.428	20408
864.559	20252
864.691	20358
864.823	20396
864.954	20145
865.086	20199
865.217	20218
865.349	20081
865.48	20058
865.612	20202
865.743	20336
865.875	20278
866.006	20157
866.137	20107
866.269	20172
866.4	20107
866.531	20069
866.662	20088
866.793	20069
866.924	20244
867.055	20187
867.186	20149
867.317	19974
867.448	19989
867.579	20046
867.71	19970
867.841	19909
867.972	20050
868.103	20088
868.233	20046
868.364	20134
868.495	20157
868.625	20377
868.756	20476
868.886	20244
869.017	20377
869.147	20476
869.278	20499
869.408	20381
869.539	20305
869.669	20461
869.799	20492
869.929	20476
870.06	20503
870.19	20667
870.32	20632
870.45	20727
870.58	20773
870.71	20838
870.84	20872
870.97	20906
871.1	20754
871.23	20838
871.36	21051
871.489	20963
871.619	20845
871.749	20990
871.879	20971
872.008	20944
872.138	21081
872.267	20906
872.397	20834
872.526	20762
872.656	20682
872.785	20712
872.915	20914
873.044	21020
873.173	21062
873.303	20967
873.432	21028
873.561	20971
873.69	21127
873.819	20956
873.948	21062
874.077	20967
874.206	20902
874.335	20982
874.464	21020
874.593	21192
874.722	21123
874.851	21241
874.979	21313
875.108	21310
875.237	21169
875.365	21119
875.494	21245
875.623	21310
875.751	21184
875.88	21226
876.008	21260
876.136	21439
876.265	21580
876.393	21671
876.521	21709
876.65	21625
876.778	21694
876.906	21545
877.034	21507
877.162	21682
877.29	21507
877.418	21625
877.546	21629
877.674	21766
877.802	21561
877.93	21549
878.058	21614
878.185	21397
878.313	21507
878.441	21511
878.568	21329
878.696	21397
878.824	21686
878.951	21698
879.079	21701
879.206	21819
879.333	21747
879.461	21728
879.588	21705
879.715	21736
879.842	21960
879.97	21652
880.097	21408
880.224	21291
880.351	21477
880.478	21485
880.605	21355
880.732	21340
880.859	21549
880.986	21340
881.112	21405
881.239	21230
881.366	21146
881.493	21104
881.619	21036
881.746	21001
881.872	21028
881.999	20883
882.125	20975
882.252	20994
882.378	20963
882.505	21093
882.631	20849
882.757	20613
882.883	20796
883.01	20735
883.136	20556
883.262	20514
883.388	20457
883.514	20670
883.64	20823
883.766	20670
883.892	20606
884.018	20522
884.143	20575
884.269	20743
884.395	20423
884.52	20294
884.646	20305
884.772	20278
884.897	20351
885.023	20347
885.148	20336
885.274	20571
885.399	20423
885.524	20389
885.65	20419
885.775	20339
885.9	20381
886.025	20465
886.15	20461
886.275	20275
886.4	20218
886.525	20347
886.65	20259
886.775	20286
886.9	20393
887.025	20575
887.149	20393
887.274	20294
887.399	20084
887.523	20130
887.648	20115
887.773	20020
887.897	20172
888.021	20195
888.146	19959
888.27	20168
888.395	20176
888.519	20164
888.643	20187
888.767	20244
888.891	19993
889.015	19947
889.139	20024
889.263	19909
889.387	19959
889.511	20096
889.635	20058
889.759	19890
889.883	19868
890.006	19898
890.13	20027
890.254	19799
890.377	19841
890.501	19677
890.624	19628
890.748	19681
890.871	19514
890.995	19468
891.118	19419
891.241	19559
891.364	19537
891.488	19594
891.611	19548
891.734	19518
891.857	19468
891.98	19525
892.103	19620
892.226	19457
892.349	19396
892.471	19308
892.594	19472
892.717	19441
892.839	19339
892.962	19403
893.085	19521
893.207	19381
893.33	19343
893.452	19263
893.575	19392
893.697	19438
893.819	19533
893.941	19635
894.064	19514
894.186	19430
894.308	19320
894.43	19476
894.552	19605
894.674	19537
894.796	19407
894.918	19369
895.04	19480
895.161	19499
895.283	19453
895.405	19449
895.526	19468
895.648	19320
895.769	19388
895.891	19457
896.012	19586
896.134	19586
896.255	19362
896.376	19422
896.498	19369
896.619	19441
896.74	19381
896.861	19556
896.982	19738
897.103	19860
897.224	19757
897.345	19696
897.466	19525
897.587	19597
897.708	19772
897.828	19693
897.949	19571
898.07	19464
898.19	19662
898.311	19731
898.431	19689
898.552	19655
898.672	19674
898.792	19772
898.913	19708
899.033	19597
899.153	19499
899.273	19381
899.393	19335
899.513	19419
899.633	19460
899.753	19495
899.873	19365
899.993	19434
900.113	19324
900.232	19476
900.352	19324
900.472	19228
900.591	19046
900.711	19251
900.83	19217
900.95	19289
901.069	19240
901.189	19008
901.308	18875
901.427	18776
901.546	18810
901.665	18760
901.784	18730
901.904	18631
902.023	18654
902.141	18330
902.26	18433
902.379	18304
902.498	18262
902.617	18338
902.735	18357
902.854	18228
902.973	18247
903.091	18003
903.21	17927
903.328	17920
903.446	17885
903.565	17733
903.683	17843
903.801	17665
903.919	17745
904.038	17748
904.156	17497
904.274	17585
904.392	17528
904.51	17448
904.627	17585
904.745	17646
904.863	17657
904.981	17387
905.098	17212
905.216	17212
905.334	17349
905.451	17284
905.569	17239
905.686	17330
905.803	17235
905.921	17083
906.038	17174
906.155	17151
906.272	16942
906.389	16946
906.506	16752
906.623	16854
906.74	16816
906.857	16641
906.974	16683
907.091	16847
907.208	16889
907.324	16774
907.441	16664
907.557	16512
907.674	16443
907.79	16421
907.907	16485
908.023	16462
908.139	16432
908.256	16523
908.372	16409
908.488	16440
908.604	16230
908.72	16272
908.836	16169
908.952	16287
909.068	16246
909.184	16310
909.3	16238
909.415	16257
909.531	16158
909.647	15941
909.762	15987
909.878	16082
909.993	16021
910.108	15869
910.224	15888
910.339	15884
910.454	15888
910.57	15701
910.685	15686
910.8	15964
910.915	15941
911.03	15701
911.145	15507
911.259	15648
911.374	15584
911.489	15515
911.604	15488
911.718	15207
911.833	15268
911.947	15256
912.062	15089
912.176	15264
912.291	15336
912.405	15317
912.519	15485
912.633	15389
912.748	15306
912.862	15241
912.976	15058
913.09	14975
913.204	15112
913.318	15154
913.431	15230
913.545	15264
913.659	15150
913.772	15051
913.886	14963
914	14929
914.113	15058
914.226	15020
914.34	14956
914.453	14826
914.566	15005
914.68	14891
914.793	14902
914.906	14636
915.019	14617
915.132	14518
915.245	14518
915.358	14514
915.47	14518
915.583	14587
915.696	14571
915.809	14701
915.921	14739
916.034	14575
916.146	14446
916.259	14530
916.371	14530
916.483	14507
916.595	14328
916.708	14309
916.82	14438
916.932	14419
917.044	14423
917.156	14370
917.268	14313
917.38	14199
917.491	14130
917.603	14309
917.715	14259
917.826	14294
917.938	14149
918.049	14069
918.161	14191
918.272	14339
918.384	14282
918.495	14202
918.606	13978
918.717	14001
918.828	14039
918.939	14092
919.05	13883
919.161	13982
919.272	13731
919.383	13890
919.494	14062
919.604	14168
919.715	13986
919.826	13852
919.936	13955
920.047	14069
920.157	13989
920.267	14191
920.378	13951
920.488	13940
920.598	14191
920.708	14252
920.818	14210
920.928	14069
921.038	14347
921.148	14157
921.258	13955
921.368	13734
921.477	13753
921.587	13662
921.697	13643
921.806	13761
921.916	13548
922.025	13441
922.134	13373
922.244	13327
922.353	13320
922.462	13331
922.571	13190
922.68	13046
922.789	13053
922.898	13061
923.007	12962
923.116	13008
923.224	12973
923.333	13019
923.442	12890
923.55	12814
923.659	12871
923.767	12882
923.876	12760
923.984	12897
924.092	12722
924.201	12852
924.309	12730
924.417	12798
924.525	12677
924.633	12658
924.741	13392
924.849	12486
924.956	12646
925.064	12429
925.172	12490
925.279	12448
925.387	12445
925.494	12475
925.602	12525
925.709	12639
925.816	12357
925.924	12369
926.031	12475
926.138	12479
926.245	12418
926.352	12292
926.459	12380
926.566	12426
926.673	12251
926.779	12262
926.886	12209
926.993	12102
927.099	12003
927.206	11980
927.312	12007
927.419	12114
927.525	12102
927.631	12026
927.737	11912
927.843	11897
927.95	11794
928.056	11828
928.162	11908
928.267	11912
928.373	12589
928.479	11927
928.585	11665
928.69	11764
928.796	11885
928.901	11737
929.007	11592
929.112	11767
929.218	11691
929.323	11623
929.428	11524
929.533	11680
929.638	11577
929.743	11532
929.848	11592
929.953	11566
930.058	11429
930.163	11372
930.267	11322
930.372	11444
930.477	11296
930.581	11512
930.685	11318
930.79	11204
930.894	11265
930.998	11201
931.103	11273
931.207	10961
931.311	10831
931.415	10793
931.519	10615
931.623	10603
