Data from test_V78500241_1574.txt Node
Date: Fri Mar 25 15:20:49 CST 2022
User: usil
Spectrometer: V785-0024
Trigger mode: 0
Integration Time (sec): 4.000000E-1
Scans to average: 1
Nonlinearity correction enabled: false
Boxcar width: 0
Storing dark spectrum: false
XAxis mode: Wavelengths
Number of Pixels in Spectrum: 1024
>>>>>Begin Spectral Data<<<<<
801.071	27968
801.214	27873
801.356	27652
801.499	27561
801.641	27466
801.783	27363
801.926	27462
802.068	27580
802.211	27485
802.353	27450
802.496	27074
802.638	27203
802.78	27138
802.923	26956
803.065	26994
803.208	27131
803.35	27150
803.492	27211
803.635	27241
803.777	27249
803.919	27397
804.061	27648
804.204	27332
804.346	27389
804.488	27241
804.63	27306
804.773	27214
804.915	27507
805.057	27378
805.199	27302
805.341	27523
805.483	27367
805.626	27450
805.768	27397
805.91	27469
806.052	27473
806.194	27367
806.336	27629
806.478	27462
806.62	27454
806.762	27671
806.904	27709
807.046	27797
807.188	27945
807.33	27880
807.472	27918
807.614	27766
807.756	27884
807.898	27804
808.04	27907
808.182	27781
808.324	27720
808.465	27945
808.607	27994
808.749	28093
808.891	28173
809.033	28333
809.174	28112
809.316	28162
809.458	28010
809.6	28101
809.741	28188
809.883	28192
810.025	28360
810.166	28344
810.308	28390
810.45	28268
810.591	28341
810.733	28131
810.875	28204
811.016	27937
811.158	28086
811.299	28253
811.441	28211
811.582	28226
811.724	28010
811.865	28097
812.007	28097
812.148	28048
812.29	28097
812.431	28124
812.573	28344
812.714	28504
812.855	28615
812.997	28710
813.138	28767
813.279	28778
813.421	28725
813.562	28717
813.703	28394
813.845	28223
813.986	27926
814.127	27987
814.268	27800
814.41	27743
814.551	27774
814.692	27903
814.833	27789
814.974	27728
815.115	27911
815.256	27751
815.397	27679
815.539	27698
815.68	27686
815.821	27618
815.962	27568
816.103	27580
816.244	27454
816.385	27416
816.526	27526
816.666	27093
816.807	27001
816.948	27207
817.089	27275
817.23	27001
817.371	27173
817.512	27036
817.653	27123
817.793	27024
817.934	27104
818.075	27036
818.216	27222
818.356	27051
818.497	26887
818.638	26845
818.778	26902
818.919	26842
819.06	26994
819.2	26956
819.341	27058
819.481	27062
819.622	27294
819.762	27408
819.903	27416
820.043	27252
820.184	27108
820.324	27222
820.465	27241
820.605	27310
820.746	27146
820.886	27020
821.026	27142
821.167	27093
821.307	27233
821.447	27169
821.588	26929
821.728	26834
821.868	26636
822.008	26564
822.149	26697
822.289	26412
822.429	26263
822.569	26218
822.709	26164
822.849	26001
822.99	26065
823.13	25974
823.27	25982
823.41	25871
823.55	25845
823.69	25955
823.83	25974
823.97	25894
824.11	25666
824.25	25704
824.389	25597
824.529	25769
824.669	25670
824.809	25746
824.949	25712
825.089	25833
825.228	25635
825.368	25582
825.508	25476
825.648	25582
825.787	25521
825.927	25708
826.067	25502
826.206	25499
826.346	25712
826.485	25601
826.625	25567
826.765	25643
826.904	25540
827.044	25422
827.183	25282
827.323	25316
827.462	25270
827.601	25270
827.741	25255
827.88	25278
828.02	25160
828.159	25335
828.298	25384
828.437	25316
828.577	25114
828.716	25392
828.855	25206
828.994	24966
829.134	24985
829.273	25080
829.412	24871
829.551	24909
829.69	25012
829.829	25000
829.968	25057
830.107	25046
830.246	24939
830.385	24935
830.524	24802
830.663	24783
830.802	24772
830.941	24513
831.08	24517
831.219	24604
831.357	24692
831.496	24848
831.635	24631
831.774	24544
831.913	24429
832.051	24460
832.19	24304
832.329	24441
832.467	24292
832.606	24247
832.744	24178
832.883	24289
833.022	24068
833.16	24323
833.299	24311
833.437	24232
833.576	24399
833.714	24247
833.852	24448
833.991	24277
834.129	24334
834.267	24441
834.406	24395
834.544	24441
834.682	24350
834.821	24262
834.959	24437
835.097	24350
835.235	24300
835.373	24235
835.511	24270
835.65	24205
835.788	24178
835.926	23969
836.064	23893
836.202	23901
836.34	24152
836.478	24228
836.615	24057
836.753	24213
836.891	24152
837.029	23961
837.167	24007
837.305	24079
837.443	23893
837.58	24007
837.718	24068
837.856	23893
837.993	23999
838.131	23984
838.269	23870
838.406	23889
838.544	23859
838.681	23619
838.819	23630
838.956	23524
839.094	23471
839.231	23501
839.369	23589
839.506	23885
839.643	23566
839.781	23512
839.918	23444
840.055	23387
840.193	23433
840.33	23463
840.467	23349
840.604	23436
840.742	23608
840.879	23299
841.016	23349
841.153	23193
841.29	23372
841.427	23455
841.564	23467
841.701	23296
841.838	23356
841.975	23265
842.112	23315
842.249	23170
842.385	23094
842.522	23162
842.659	23067
842.796	23223
842.933	22972
843.069	23022
843.206	23052
843.343	23166
843.479	23098
843.616	23048
843.752	22816
843.889	22976
844.025	22987
844.162	23022
844.298	22987
844.435	22961
844.571	22938
844.708	22828
844.844	23010
844.98	23048
845.117	23044
845.253	22824
845.389	22721
845.525	22862
845.661	22816
845.798	22694
845.934	22660
846.07	22516
846.206	22725
846.342	22653
846.478	22630
846.614	22462
846.75	22360
846.886	22500
847.022	22398
847.158	22455
847.294	22344
847.429	22375
847.565	22322
847.701	22592
847.837	22128
847.972	22055
848.108	22238
848.244	22226
848.379	21926
848.515	21964
848.65	21945
848.786	21899
848.921	21937
849.057	22032
849.192	21884
849.328	21994
849.463	21926
849.598	21816
849.734	21823
849.869	21755
850.004	21686
850.14	21816
850.275	21629
850.41	21747
850.545	21557
850.68	21755
850.815	21816
850.95	21644
851.085	21907
851.22	21827
851.355	21838
851.49	21770
851.625	21705
851.76	21724
851.895	21652
852.03	21637
852.165	21591
852.299	21679
852.434	21755
852.569	21686
852.703	21663
852.838	21698
852.973	21842
853.107	21797
853.242	21663
853.376	21515
853.511	21481
853.645	21473
853.78	21644
853.914	21557
854.048	21298
854.183	21564
854.317	21591
854.451	21739
854.585	21561
854.72	21507
854.854	21599
854.988	21420
855.122	21580
855.256	21408
855.39	21405
855.524	21564
855.658	21443
855.792	21564
855.926	21599
856.06	21614
856.194	21637
856.327	21606
856.461	21515
856.595	21511
856.729	21488
856.862	21622
856.996	21526
857.13	21637
857.263	21641
857.397	21500
857.53	21561
857.664	21515
857.797	21694
857.931	21644
858.064	21561
858.197	21553
858.331	21564
858.464	21469
858.597	21405
858.731	21370
858.864	21378
858.997	21435
859.13	21401
859.263	21538
859.396	21618
859.529	21538
859.662	21393
859.795	21477
859.928	21500
860.061	21637
860.194	21622
860.327	21614
860.46	21614
860.592	21652
860.725	21762
860.858	21599
860.99	21454
861.123	21397
861.256	21428
861.388	21572
861.521	22207
861.653	21348
861.786	21447
861.918	21359
862.05	21443
862.183	21401
862.315	21405
862.447	21443
862.58	21386
862.712	21237
862.844	21306
862.976	21325
863.108	21298
863.24	21587
863.372	21058
863.504	21207
863.636	21233
863.768	21199
863.9	21207
864.032	21116
864.164	21230
864.296	21222
864.428	21252
864.559	21351
864.691	21249
864.823	21192
864.954	21218
865.086	21233
865.217	21150
865.349	21028
865.48	21161
865.612	21093
865.743	21245
865.875	21047
866.006	21066
866.137	21077
866.269	21074
866.4	21085
866.531	21013
866.662	20952
866.793	21077
866.924	20933
867.055	21024
867.186	21074
867.317	20956
867.448	20971
867.579	21150
867.71	21024
867.841	20883
867.972	21157
868.103	21028
868.233	21165
868.364	21077
868.495	21135
868.625	21256
868.756	21412
868.886	21127
869.017	21298
869.147	21325
869.278	21477
869.408	21428
869.539	21332
869.669	21473
869.799	21408
869.929	21435
870.06	21363
870.19	21622
870.32	21526
870.45	21629
870.58	21576
870.71	21899
870.84	21732
870.97	21591
871.1	21785
871.23	21816
871.36	21831
871.489	21781
871.619	21823
871.749	21915
871.879	21949
872.008	21926
872.138	21823
872.267	21861
872.397	21724
872.526	21804
872.656	21766
872.785	21835
872.915	21991
873.044	22044
873.173	21915
873.303	22078
873.432	21994
873.561	21937
873.69	21869
873.819	21926
873.948	22032
874.077	21922
874.206	21899
874.335	21972
874.464	21987
874.593	22143
874.722	22166
874.851	22295
874.979	22196
875.108	22177
875.237	22070
875.365	22048
875.494	22116
875.623	22177
875.751	22173
875.88	22177
876.008	22310
876.136	22295
876.265	22485
876.393	22584
876.521	22656
876.65	22596
876.778	22611
876.906	22577
877.034	22371
877.162	22580
877.29	22428
877.418	22531
877.546	22550
877.674	22508
877.802	22375
877.93	22470
878.058	22451
878.185	22272
878.313	22428
878.441	22504
878.568	22303
878.696	22470
878.824	22455
878.951	22596
879.079	22683
879.206	22877
879.333	22679
879.461	22519
879.588	22653
879.715	22637
879.842	22721
879.97	22459
880.097	22322
880.224	22314
880.351	22421
880.478	22333
880.605	22314
880.732	22375
880.859	22500
880.986	22306
881.112	22287
881.239	22185
881.366	22086
881.493	22017
881.619	21838
881.746	22017
881.872	21808
881.999	21850
882.125	21804
882.252	21934
882.378	21804
882.505	21941
882.631	21778
882.757	21637
882.883	21736
883.01	21564
883.136	21557
883.262	21348
883.388	21454
883.514	21576
883.64	21652
883.766	21633
883.892	21283
884.018	21488
884.143	21511
884.269	21534
884.395	21386
884.52	21085
884.646	21306
884.772	21093
884.897	21146
885.023	21138
885.148	21359
885.274	21370
885.399	21279
885.524	21252
885.65	21245
885.775	21249
885.9	21192
886.025	21283
886.15	21203
886.275	21157
886.4	21173
886.525	21180
886.65	21024
886.775	21226
886.9	21317
887.025	21355
887.149	21233
887.274	21017
887.399	21017
887.523	21028
887.648	20921
887.773	20948
887.897	21066
888.021	21005
888.146	20982
888.27	21055
888.395	21017
888.519	20982
888.643	21104
888.767	20982
888.891	20910
889.015	20861
889.139	20895
889.263	20815
889.387	20876
889.511	21032
889.635	20849
889.759	20712
889.883	20788
890.006	20788
890.13	20788
890.254	20522
890.377	20735
890.501	20488
890.624	20492
890.748	20484
890.871	20446
890.995	20366
891.118	20301
891.241	20347
891.364	20317
891.488	20438
891.611	20339
891.734	20343
891.857	20336
891.98	20408
892.103	20415
892.226	20351
892.349	20290
892.471	20286
892.594	20339
892.717	20320
892.839	20221
892.962	20336
893.085	20358
893.207	20419
893.33	20145
893.452	20233
893.575	20320
893.697	20206
893.819	20362
893.941	20438
894.064	20256
894.186	20107
894.308	20164
894.43	20396
894.552	20374
894.674	20343
894.796	20187
894.918	20233
895.04	20119
895.161	20374
895.283	20377
895.405	20229
895.526	20320
895.648	20244
895.769	20309
895.891	20370
896.012	20347
896.134	20271
896.255	20278
896.376	20275
896.498	20282
896.619	20332
896.74	20343
896.861	20259
896.982	20583
897.103	20792
897.224	20568
897.345	20457
897.466	20499
897.587	20374
897.708	20602
897.828	20473
897.949	20537
898.07	20237
898.19	20446
898.311	20480
898.431	20476
898.552	20495
898.672	20518
898.792	20537
898.913	20473
899.033	20309
899.153	20332
899.273	20134
899.393	20225
899.513	20332
899.633	20157
899.753	20244
899.873	20081
899.993	20180
900.113	20176
900.232	20176
900.352	20180
900.472	20107
900.591	19921
900.711	20073
900.83	19822
900.95	20103
901.069	20046
901.189	19837
901.308	19719
901.427	19472
901.546	19601
901.665	19601
901.784	19559
901.904	19445
902.023	19373
902.141	19206
902.26	19103
902.379	19274
902.498	19141
902.617	19084
902.735	19107
902.854	19072
902.973	18920
903.091	18867
903.21	18776
903.328	18730
903.446	18642
903.565	18646
903.683	18570
903.801	18353
903.919	18513
904.038	18410
904.156	18330
904.274	18350
904.392	18338
904.51	18369
904.627	18289
904.745	18395
904.863	18281
904.981	18228
905.098	18060
905.216	18098
905.334	18072
905.451	17980
905.569	18007
905.686	17961
905.803	18030
905.921	17733
906.038	17958
906.155	17878
906.272	17707
906.389	17733
906.506	17554
906.623	17471
906.74	17471
906.857	17455
906.974	17497
907.091	17566
907.208	17562
907.324	17566
907.441	17440
907.557	17193
907.674	17239
907.79	17105
907.907	17212
908.023	17193
908.139	17242
908.256	17140
908.372	17121
908.488	17079
908.604	17098
908.72	16911
908.836	16968
908.952	16915
909.068	17041
909.184	17067
909.3	16995
909.415	16987
909.531	16961
909.647	16763
909.762	16831
909.878	16706
909.993	16736
910.108	16592
910.224	16584
910.339	16691
910.454	16478
910.57	16466
910.685	16398
910.8	16615
910.915	16615
911.03	16493
911.145	16276
911.259	16303
911.374	16211
911.489	16147
911.604	16017
911.718	16002
911.833	16013
911.947	15899
912.062	15781
912.176	15907
912.291	16093
912.405	15983
912.519	16188
912.633	16063
912.748	16074
912.862	15983
912.976	15884
913.09	15781
913.204	15751
913.318	15766
913.431	15926
913.545	15888
913.659	15937
913.772	15762
913.886	15648
914	15648
914.113	15819
914.226	15766
914.34	15622
914.453	15515
914.566	15610
914.68	15568
914.793	15382
914.906	15401
915.019	15173
915.132	15123
915.245	15157
915.358	15184
915.47	15131
915.583	15245
915.696	15233
915.809	15420
915.921	15363
916.034	15131
916.146	15184
916.259	15131
916.371	15165
916.483	15138
916.595	14990
916.708	15062
916.82	14979
916.932	14941
917.044	14982
917.156	15032
917.268	14804
917.38	14921
917.491	14849
917.603	14857
917.715	14895
917.826	15005
917.938	14724
918.049	14731
918.161	14754
918.272	14933
918.384	14883
918.495	14826
918.606	14670
918.717	14533
918.828	14556
918.939	14712
919.05	14530
919.161	14549
919.272	14473
919.383	14423
919.494	14636
919.604	14785
919.715	14533
919.826	14412
919.936	14499
920.047	14629
920.157	14499
920.267	14769
920.378	14583
920.488	14461
920.598	14640
920.708	14899
920.818	14716
920.928	14746
921.038	14857
921.148	14861
921.258	14602
921.368	14347
921.477	14301
921.587	14206
921.697	14199
921.806	14294
921.916	14210
922.025	14039
922.134	14039
922.244	13928
922.353	13928
922.462	13890
922.571	13765
922.68	13655
922.789	13658
922.898	13685
923.007	13514
923.116	13674
923.224	13567
923.333	13575
923.442	13411
923.55	13392
923.659	13438
923.767	13457
923.876	13373
923.984	13453
924.092	13316
924.201	13362
924.309	13278
924.417	13331
924.525	13369
924.633	13255
924.741	14039
924.849	13145
924.956	13164
925.064	13031
925.172	12966
925.279	12928
925.387	13072
925.494	12951
925.602	13110
925.709	13061
925.816	12916
925.924	12932
926.031	12977
926.138	12985
926.245	12962
926.352	12886
926.459	13008
926.566	13061
926.673	12852
926.779	12753
926.886	12707
926.993	12551
927.099	12620
927.206	12620
927.312	12559
927.419	12642
927.525	12627
927.631	12509
927.737	12429
927.843	12445
927.95	12254
928.056	12498
928.162	12437
928.267	12486
928.373	13137
928.479	12490
928.585	12125
928.69	12407
928.796	12365
928.901	12270
929.007	12175
929.112	12224
929.218	12178
929.323	12182
929.428	11999
929.533	12281
929.638	12087
929.743	12076
929.848	12038
929.953	12155
930.058	12026
930.163	11855
930.267	11870
930.372	11901
930.477	11767
930.581	11988
930.685	11870
930.79	11638
930.894	11703
930.998	11668
931.103	11729
931.207	11478
931.311	11341
931.415	11307
931.519	11067
931.623	11064
