Data from test_V78500241_2119.txt Node
Date: Fri Mar 25 15:24:36 CST 2022
User: usil
Spectrometer: V785-0024
Trigger mode: 0
Integration Time (sec): 4.000000E-1
Scans to average: 1
Nonlinearity correction enabled: false
Boxcar width: 0
Storing dark spectrum: false
XAxis mode: Wavelengths
Number of Pixels in Spectrum: 1024
>>>>>Begin Spectral Data<<<<<
801.071	27656
801.214	27644
801.356	27424
801.499	27241
801.641	27135
801.783	27184
801.926	27302
802.068	27192
802.211	27127
802.353	26967
802.496	26910
802.638	26708
802.78	26712
802.923	26796
803.065	26632
803.208	26716
803.35	26838
803.492	26975
803.635	26952
803.777	26819
803.919	27005
804.061	27393
804.204	26998
804.346	26944
804.488	26921
804.63	26929
804.773	26826
804.915	26914
805.057	27096
805.199	26918
805.341	27096
805.483	27047
805.626	27066
805.768	27039
805.91	26982
806.052	27043
806.194	27093
806.336	27237
806.478	27180
806.62	26979
806.762	27211
806.904	27230
807.046	27583
807.188	27416
807.33	27389
807.472	27656
807.614	27310
807.756	27553
807.898	27252
808.04	27218
808.182	27405
808.324	27469
808.465	27386
808.607	27694
808.749	27819
808.891	27747
809.033	27880
809.174	27690
809.316	27667
809.458	27778
809.6	27644
809.741	27797
809.883	27793
810.025	27964
810.166	27979
810.308	28044
810.45	27979
810.591	27991
810.733	27865
810.875	27679
811.016	27511
811.158	27587
811.299	27603
811.441	27884
811.582	27774
811.724	27770
811.865	27686
812.007	27690
812.148	27690
812.29	27835
812.431	27941
812.573	27850
812.714	28051
812.855	28162
812.997	28322
813.138	28485
813.279	28204
813.421	28207
813.562	28143
813.703	28093
813.845	27918
813.986	27515
814.127	27500
814.268	27420
814.41	27298
814.551	27340
814.692	27504
814.833	27211
814.974	27237
815.115	27272
815.256	27264
815.397	27420
815.539	27272
815.68	27104
815.821	27161
815.962	27070
816.103	27237
816.244	27024
816.385	26815
816.526	26899
816.666	26735
816.807	26682
816.948	26632
817.089	26720
817.23	26621
817.371	26659
817.512	26663
817.653	26552
817.793	26568
817.934	26571
818.075	26659
818.216	26705
818.356	26526
818.497	26461
818.638	26381
818.778	26366
818.919	26355
819.06	26446
819.2	26511
819.341	26446
819.481	26773
819.622	26670
819.762	27024
819.903	26921
820.043	26651
820.184	26746
820.324	26689
820.465	26777
820.605	26697
820.746	26762
820.886	26613
821.026	26663
821.167	26727
821.307	26792
821.447	26533
821.588	26575
821.728	26423
821.868	26206
822.008	26005
822.149	26157
822.289	26100
822.429	25902
822.569	25871
822.709	25761
822.849	25544
822.99	25704
823.13	25605
823.27	25476
823.41	25392
823.55	25434
823.69	25457
823.83	25392
823.97	25407
824.11	25126
824.25	25304
824.389	25247
824.529	25327
824.669	25038
824.809	25331
824.949	25392
825.089	25320
825.228	25152
825.368	25103
825.508	25038
825.648	24947
825.787	25168
825.927	25129
826.067	25129
826.206	25023
826.346	25126
826.485	25103
826.625	25072
826.765	25244
826.904	25050
827.044	24989
827.183	24886
827.323	24806
827.462	24833
827.601	24787
827.741	24806
827.88	24673
828.02	24612
828.159	24684
828.298	24722
828.437	24897
828.577	24707
828.716	24753
828.855	24582
828.994	24528
829.134	24460
829.273	24505
829.412	24361
829.551	24372
829.69	24346
829.829	24429
829.968	24509
830.107	24448
830.246	24475
830.385	24410
830.524	24429
830.663	24254
830.802	24133
830.941	24205
831.08	24053
831.219	24102
831.357	24152
831.496	24228
831.635	24110
831.774	23958
831.913	23961
832.051	23950
832.19	23790
832.329	23882
832.467	23805
832.606	23703
832.744	23752
832.883	23783
833.022	23733
833.16	23748
833.299	23863
833.437	23855
833.576	23809
833.714	23600
833.852	23866
833.991	23969
834.129	23832
834.267	23893
834.406	23790
834.544	23885
834.682	23767
834.821	23767
834.959	23965
835.097	23668
835.235	23775
835.373	23817
835.511	23710
835.65	23714
835.788	23726
835.926	23501
836.064	23444
836.202	23395
836.34	23779
836.478	23767
836.615	23600
836.753	23596
836.891	23581
837.029	23691
837.167	23619
837.305	23585
837.443	23486
837.58	23474
837.718	23634
837.856	23341
837.993	23452
838.131	23391
838.269	23414
838.406	23425
838.544	23337
838.681	23166
838.819	23006
838.956	22923
839.094	22946
839.231	23094
839.369	23098
839.506	23326
839.643	23223
839.781	22984
839.918	22919
840.055	22889
840.193	22908
840.33	22854
840.467	22965
840.604	22942
840.742	23181
840.879	22793
841.016	22831
841.153	22725
841.29	22984
841.427	22908
841.564	22812
841.701	22744
841.838	22793
841.975	22771
842.112	22645
842.249	22672
842.385	22523
842.522	22805
842.659	22634
842.796	22607
842.933	22618
843.069	22557
843.206	22691
843.343	22706
843.479	22588
843.616	22748
843.752	22470
843.889	22459
844.025	22561
844.162	22390
844.298	22428
844.435	22371
844.571	22356
844.708	22451
844.844	22493
844.98	22497
845.117	22538
845.253	22333
845.389	22314
845.525	22257
845.661	22272
845.798	22078
845.934	22154
846.07	22120
846.206	22325
846.342	22154
846.478	22211
846.614	21987
846.75	21869
846.886	21941
847.022	21895
847.158	21994
847.294	21880
847.429	21789
847.565	21846
847.701	22074
847.837	21694
847.972	21622
848.108	21690
848.244	21766
848.379	21595
848.515	21454
848.65	21416
848.786	21462
848.921	21545
849.057	21549
849.192	21538
849.328	21557
849.463	21336
849.598	21412
849.734	21310
849.869	21192
850.004	21173
850.14	21230
850.275	21313
850.41	21157
850.545	21230
850.68	21108
850.815	21237
850.95	21291
851.085	21378
851.22	21279
851.355	21169
851.49	21332
851.625	21169
851.76	21161
851.895	21146
852.03	21214
852.165	21256
852.299	21176
852.434	21439
852.569	21154
852.703	21298
852.838	21306
852.973	21367
853.107	21450
853.242	21173
853.376	20990
853.511	20925
853.645	21066
853.78	21173
853.914	21119
854.048	21047
854.183	20975
854.317	21116
854.451	21264
854.585	20986
854.72	21100
854.854	21184
854.988	21013
855.122	20929
855.256	20921
855.39	20998
855.524	21096
855.658	21005
855.792	21100
855.926	21104
856.06	21043
856.194	21020
856.327	21039
856.461	20910
856.595	20887
856.729	21085
856.862	21081
856.996	21055
857.13	21070
857.263	21104
857.397	21051
857.53	21066
857.664	21119
857.797	21047
857.931	21096
858.064	21070
858.197	21112
858.331	21085
858.464	20948
858.597	20952
858.731	21009
858.864	21024
858.997	20967
859.13	21047
859.263	21043
859.396	21146
859.529	21074
859.662	20948
859.795	20998
859.928	21119
860.061	21096
860.194	21214
860.327	21165
860.46	21077
860.592	21127
860.725	21260
860.858	21199
860.99	20880
861.123	20891
861.256	21123
861.388	20944
861.521	21618
861.653	20921
861.786	20872
861.918	20842
862.05	20819
862.183	20902
862.315	20998
862.447	20925
862.58	20963
862.712	20724
862.844	20743
862.976	20902
863.108	20826
863.24	21188
863.372	20731
863.504	20697
863.636	20765
863.768	20716
863.9	20590
864.032	20800
864.164	20750
864.296	20811
864.428	20937
864.559	20868
864.691	20807
864.823	20712
864.954	20769
865.086	20674
865.217	20735
865.349	20541
865.48	20724
865.612	20701
865.743	20724
865.875	20754
866.006	20667
866.137	20667
866.269	20583
866.4	20682
866.531	20556
866.662	20575
866.793	20568
866.924	20590
867.055	20674
867.186	20583
867.317	20571
867.448	20526
867.579	20571
867.71	20450
867.841	20446
867.972	20606
868.103	20541
868.233	20640
868.364	20651
868.495	20750
868.625	20868
868.756	21024
868.886	20716
869.017	20804
869.147	20823
869.278	20933
869.408	20815
869.539	20788
869.669	20872
869.799	20834
869.929	20918
870.06	20967
870.19	21176
870.32	21077
870.45	21214
870.58	21135
870.71	21408
870.84	21272
870.97	21192
871.1	21203
871.23	21363
871.36	21374
871.489	21405
871.619	21325
871.749	21435
871.879	21473
872.008	21496
872.138	21428
872.267	21256
872.397	21283
872.526	21199
872.656	21272
872.785	21150
872.915	21313
873.044	21530
873.173	21466
873.303	21530
873.432	21557
873.561	21542
873.69	21447
873.819	21405
873.948	21447
874.077	21382
874.206	21340
874.335	21488
874.464	21561
874.593	21682
874.722	21526
874.851	21728
874.979	21679
875.108	21789
875.237	21637
875.365	21553
875.494	21686
875.623	21739
875.751	21717
875.88	21641
876.008	21812
876.136	21789
876.265	22215
876.393	22124
876.521	22166
876.65	22188
876.778	22093
876.906	22067
877.034	22002
877.162	21987
877.29	21926
877.418	22135
877.546	22032
877.674	21934
877.802	21983
877.93	22002
878.058	21903
878.185	21854
878.313	22036
878.441	21972
878.568	21922
878.696	21945
878.824	22051
878.951	22070
879.079	22196
879.206	22325
879.333	22166
879.461	22032
879.588	22181
879.715	22200
879.842	22253
879.97	22169
880.097	21884
880.224	21739
880.351	21766
880.478	21850
880.605	21880
880.732	21857
880.859	22093
880.986	21857
881.112	21899
881.239	21762
881.366	21675
881.493	21504
881.619	21458
881.746	21618
881.872	21450
881.999	21462
882.125	21412
882.252	21450
882.378	21408
882.505	21523
882.631	21336
882.757	21207
882.883	21226
883.01	21104
883.136	21058
883.262	21005
883.388	21009
883.514	21184
883.64	21116
883.766	21096
883.892	20819
884.018	20963
884.143	21077
884.269	21184
884.395	20727
884.52	20800
884.646	20781
884.772	20785
884.897	20663
885.023	20678
885.148	20815
885.274	20944
885.399	20739
885.524	20815
885.65	20754
885.775	20765
885.9	20682
886.025	20857
886.15	20765
886.275	20773
886.4	20743
886.525	20731
886.65	20758
886.775	20678
886.9	20902
887.025	20963
887.149	20705
887.274	20594
887.399	20568
887.523	20530
887.648	20590
887.773	20492
887.897	20617
888.021	20613
888.146	20495
888.27	20648
888.395	20670
888.519	20587
888.643	20476
888.767	20606
888.891	20427
889.015	20351
889.139	20442
889.263	20423
889.387	20492
889.511	20545
889.635	20499
889.759	20347
889.883	20221
890.006	20480
890.13	20351
890.254	20206
890.377	20256
890.501	20164
890.624	20027
890.748	20119
890.871	20035
890.995	19822
891.118	19780
891.241	19932
891.364	19947
891.488	20069
891.611	19921
891.734	19921
891.857	19989
891.98	19803
892.103	19959
892.226	19917
892.349	19906
892.471	19666
892.594	19833
892.717	19928
892.839	19788
892.962	19757
893.085	19898
893.207	19719
893.33	19811
893.452	19818
893.575	19993
893.697	19826
893.819	20008
893.941	19906
894.064	19982
894.186	19761
894.308	19799
894.43	19917
894.552	19894
894.674	19830
894.796	19696
894.918	19780
895.04	19765
895.161	19944
895.283	19845
895.405	19757
895.526	19875
895.648	19795
895.769	19906
895.891	19772
896.012	19887
896.134	19940
896.255	19871
896.376	19795
896.498	19849
896.619	19890
896.74	19887
896.861	19780
896.982	20157
897.103	20225
897.224	20058
897.345	20111
897.466	19993
897.587	20107
897.708	20225
897.828	20130
897.949	20005
898.07	19890
898.19	19986
898.311	20130
898.431	20039
898.552	20020
898.672	20191
898.792	20126
898.913	20119
899.033	19951
899.153	19807
899.273	19719
899.393	19864
899.513	19807
899.633	19856
899.753	19864
899.873	19791
899.993	19753
900.113	19772
900.232	19738
900.352	19719
900.472	19639
900.591	19590
900.711	19620
900.83	19552
900.95	19696
901.069	19655
901.189	19449
901.308	19316
901.427	19122
901.546	19065
901.665	19133
901.784	19198
901.904	19168
902.023	18939
902.141	18783
902.26	18582
902.379	18833
902.498	18654
902.617	18616
902.735	18768
902.854	18734
902.973	18589
903.091	18376
903.21	18433
903.328	18422
903.446	18201
903.565	18163
903.683	18129
903.801	18041
903.919	18106
904.038	18125
904.156	17946
904.274	18057
904.392	17897
904.51	17942
904.627	17954
904.745	18045
904.863	18026
904.981	17684
905.098	17619
905.216	17486
905.334	17642
905.451	17581
905.569	17543
905.686	17592
905.803	17573
905.921	17391
906.038	17501
906.155	17364
906.272	17368
906.389	17269
906.506	17162
906.623	17170
906.74	17223
906.857	17071
906.974	17079
907.091	17117
907.208	17227
907.324	17178
907.441	17014
907.557	16949
907.674	16942
907.79	16664
907.907	16900
908.023	16816
908.139	16805
908.256	16809
908.372	16816
908.488	16740
908.604	16645
908.72	16561
908.836	16535
908.952	16706
909.068	16550
909.184	16691
909.3	16561
909.415	16660
909.531	16626
909.647	16261
909.762	16219
909.878	16265
909.993	16306
910.108	16261
910.224	16226
910.339	16234
910.454	16230
910.57	16162
910.685	16010
910.8	16356
910.915	16329
911.03	16078
911.145	15922
911.259	15861
911.374	15922
911.489	15781
911.604	15759
911.718	15701
911.833	15656
911.947	15622
912.062	15466
912.176	15629
912.291	15682
912.405	15572
912.519	15850
912.633	15838
912.748	15603
912.862	15690
912.976	15481
913.09	15321
913.204	15359
913.318	15469
913.431	15488
913.545	15545
913.659	15603
913.772	15424
913.886	15264
914	15146
914.113	15287
914.226	15393
914.34	15310
914.453	15192
914.566	15237
914.68	15192
914.793	15154
914.906	14921
915.019	14838
915.132	14804
915.245	14914
915.358	14826
915.47	14910
915.583	14853
915.696	14887
915.809	15051
915.921	14914
916.034	14758
916.146	14731
916.259	14670
916.371	14910
916.483	14769
916.595	14670
916.708	14708
916.82	14712
916.932	14724
917.044	14651
917.156	14602
917.268	14606
917.38	14518
917.491	14499
917.603	14594
917.715	14655
917.826	14606
917.938	14469
918.049	14450
918.161	14381
918.272	14712
918.384	14651
918.495	14507
918.606	14389
918.717	14313
918.828	14377
918.939	14419
919.05	14271
919.161	14313
919.272	14164
919.383	14210
919.494	14374
919.604	14606
919.715	14309
919.826	14168
919.936	14336
920.047	14309
920.157	14313
920.267	14438
920.378	14282
920.488	14256
920.598	14457
920.708	14640
920.818	14446
920.928	14381
921.038	14636
921.148	14480
921.258	14237
921.368	14142
921.477	14050
921.587	14065
921.697	13913
921.806	14043
921.916	13841
922.025	13727
922.134	13719
922.244	13628
922.353	13651
922.462	13636
922.571	13540
922.68	13388
922.789	13327
922.898	13419
923.007	13255
923.116	13358
923.224	13320
923.333	13331
923.442	13221
923.55	13179
923.659	13141
923.767	13251
923.876	13027
923.984	13164
924.092	13053
924.201	13095
924.309	13053
924.417	13061
924.525	13015
924.633	13061
924.741	13731
924.849	12734
924.956	12962
925.064	12783
925.172	12783
925.279	12741
925.387	12760
925.494	12776
925.602	12924
925.709	12909
925.816	12627
925.924	12707
926.031	12814
926.138	12719
926.245	12696
926.352	12528
926.459	12791
926.566	12707
926.673	12681
926.779	12513
926.886	12559
926.993	12407
927.099	12418
927.206	12350
927.312	12235
927.419	12353
927.525	12346
927.631	12437
927.737	12232
927.843	12213
927.95	12026
928.056	12213
928.162	12224
928.267	12220
928.373	12875
928.479	12311
928.585	12026
928.69	12076
928.796	12194
928.901	12045
929.007	11904
929.112	12041
929.218	11824
929.323	11882
929.428	11920
929.533	11977
929.638	11821
929.743	11863
929.848	11893
929.953	11851
930.058	11714
930.163	11551
930.267	11680
930.372	11802
930.477	11585
930.581	11824
930.685	11592
930.79	11455
930.894	11467
930.998	11429
931.103	11543
931.207	11273
931.311	11235
931.415	11105
931.519	10877
931.623	10908
