Data from test_V78500241_811.txt Node
Date: Fri Mar 25 15:15:30 CST 2022
User: usil
Spectrometer: V785-0024
Trigger mode: 0
Integration Time (sec): 4.000000E-1
Scans to average: 1
Nonlinearity correction enabled: false
Boxcar width: 0
Storing dark spectrum: false
XAxis mode: Wavelengths
Number of Pixels in Spectrum: 1024
>>>>>Begin Spectral Data<<<<<
801.071	28371
801.214	28341
801.356	28090
801.499	27934
801.641	27918
801.783	27831
801.926	27880
802.068	27895
802.211	27804
802.353	27747
802.496	27332
802.638	27622
802.78	27553
802.923	27443
803.065	27431
803.208	27614
803.35	27717
803.492	27679
803.635	27663
803.777	27648
803.919	27694
804.061	27998
804.204	27778
804.346	27644
804.488	27606
804.63	27701
804.773	27583
804.915	27739
805.057	27914
805.199	27568
805.341	27816
805.483	27926
805.626	27960
805.768	27690
805.91	27884
806.052	27873
806.194	27713
806.336	28135
806.478	27934
806.62	27934
806.762	28070
806.904	28150
807.046	28314
807.188	28295
807.33	28325
807.472	28242
807.614	28181
807.756	28261
807.898	28207
808.04	28166
808.182	28044
808.324	28135
808.465	28306
808.607	28352
808.749	28470
808.891	28542
809.033	28675
809.174	28611
809.316	28577
809.458	28573
809.6	28493
809.741	28508
809.883	28736
810.025	28816
810.166	28976
810.308	28767
810.45	28885
810.591	28961
810.733	28584
810.875	28592
811.016	28569
811.158	28363
811.299	28592
811.441	28713
811.582	28637
811.724	28523
811.865	28596
812.007	28451
812.148	28443
812.29	28531
812.431	28656
812.573	29056
812.714	28915
812.855	29018
812.997	29242
813.138	29349
813.279	29292
813.421	29140
813.562	29064
813.703	28854
813.845	28812
813.986	28557
814.127	28459
814.268	28280
814.41	28310
814.551	28143
814.692	28325
814.833	28268
814.974	28192
815.115	28344
815.256	28249
815.397	28101
815.539	28154
815.68	28074
815.821	27956
815.962	28036
816.103	28082
816.244	27918
816.385	27983
816.526	27892
816.666	27766
816.807	27583
816.948	27610
817.089	27823
817.23	27656
817.371	27884
817.512	27743
817.653	27675
817.793	27435
817.934	27572
818.075	27614
818.216	27595
818.356	27515
818.497	27466
818.638	27374
818.778	27469
818.919	27268
819.06	27397
819.2	27603
819.341	27492
819.481	27591
819.622	27789
819.762	27880
819.903	28059
820.043	27682
820.184	27732
820.324	27549
820.465	27876
820.605	27728
820.746	27656
820.886	27515
821.026	27603
821.167	27564
821.307	27686
821.447	27660
821.588	27534
821.728	27397
821.868	27218
822.008	27089
822.149	27096
822.289	27119
822.429	26792
822.569	26948
822.709	26609
822.849	26412
822.99	26621
823.13	26667
823.27	26636
823.41	26301
823.55	26389
823.69	26492
823.83	26400
823.97	26347
824.11	26263
824.25	26195
824.389	26259
824.529	26320
824.669	26267
824.809	26377
824.949	26377
825.089	26423
825.228	26298
825.368	26122
825.508	26176
825.648	26183
825.787	26225
825.927	26088
826.067	26157
826.206	26069
826.346	26191
826.485	26172
826.625	26081
826.765	26191
826.904	26313
827.044	25932
827.183	25852
827.323	25776
827.462	25807
827.601	25955
827.741	25932
827.88	26027
828.02	25715
828.159	25909
828.298	25776
828.437	25947
828.577	25662
828.716	26039
828.855	25784
828.994	25563
829.134	25422
829.273	25704
829.412	25510
829.551	25479
829.69	25499
829.829	25628
829.968	25533
830.107	25616
830.246	25635
830.385	25422
830.524	25506
830.663	25422
830.802	25217
830.941	25213
831.08	25129
831.219	25141
831.357	25213
831.496	25506
831.635	25175
831.774	25061
831.913	25156
832.051	24970
832.19	24882
832.329	24985
832.467	24825
832.606	24783
832.744	24844
832.883	24734
833.022	24783
833.16	24806
833.299	24810
833.437	24711
833.576	24943
833.714	24935
833.852	24951
833.991	24901
834.129	24825
834.267	24966
834.406	24817
834.544	24779
834.682	24856
834.821	24882
834.959	25023
835.097	24875
835.235	24924
835.373	24806
835.511	24985
835.65	24840
835.788	24738
835.926	24749
836.064	24528
836.202	24570
836.34	24703
836.478	24681
836.615	24719
836.753	24700
836.891	24700
837.029	24791
837.167	24589
837.305	24593
837.443	24585
837.58	24528
837.718	24559
837.856	24719
837.993	24498
838.131	24566
838.269	24498
838.406	24452
838.544	24391
838.681	24167
838.819	24072
838.956	23984
839.094	23958
839.231	23965
839.369	24182
839.506	24433
839.643	24281
839.781	24026
839.918	23988
840.055	24091
840.193	23999
840.33	24007
840.467	23855
840.604	23935
840.742	24266
840.879	23805
841.016	23802
841.153	23832
841.29	24007
841.427	23859
841.564	23969
841.701	23847
841.838	23805
841.975	23859
842.112	23882
842.249	23699
842.385	23646
842.522	23760
842.659	23703
842.796	23573
842.933	23619
843.069	23520
843.206	23687
843.343	23779
843.479	23684
843.616	23779
843.752	23402
843.889	23471
844.025	23551
844.162	23425
844.298	23566
844.435	23459
844.571	23433
844.708	23417
844.844	23653
844.98	23581
845.117	23547
845.253	23490
845.389	23265
845.525	23353
845.661	23353
845.798	23235
845.934	23204
846.07	23166
846.206	23124
846.342	23288
846.478	23166
846.614	23014
846.75	22790
846.886	22915
847.022	22968
847.158	22972
847.294	22812
847.429	23010
847.565	22919
847.701	22991
847.837	22687
847.972	22599
848.108	22687
848.244	22759
848.379	22672
848.515	22519
848.65	22367
848.786	22421
848.921	22653
849.057	22615
849.192	22500
849.328	22535
849.463	22470
849.598	22504
849.734	22394
849.869	22344
850.004	22109
850.14	22188
850.275	22360
850.41	22234
850.545	22249
850.68	22181
850.815	22272
850.95	22211
851.085	22363
851.22	22379
851.355	22188
851.49	22337
851.625	22265
851.76	22135
851.895	22135
852.03	22090
852.165	22246
852.299	22314
852.434	22162
852.569	22299
852.703	22337
852.838	22253
852.973	22382
853.107	22268
853.242	22204
853.376	21979
853.511	21861
853.645	22082
853.78	22101
853.914	22074
854.048	22044
854.183	21968
854.317	22101
854.451	22242
854.585	22032
854.72	22032
854.854	22207
854.988	21991
855.122	22021
855.256	21941
855.39	21987
855.524	22070
855.658	22078
855.792	22002
855.926	22234
856.06	22128
856.194	22017
856.327	22082
856.461	21964
856.595	21987
856.729	22078
856.862	22169
856.996	22048
857.13	22169
857.263	22169
857.397	22204
857.53	22097
857.664	22112
857.797	22128
857.931	22204
858.064	21934
858.197	22158
858.331	22013
858.464	21968
858.597	21934
858.731	21964
858.864	21941
858.997	22120
859.13	22120
859.263	22040
859.396	22196
859.529	21991
859.662	21987
859.795	21956
859.928	22097
860.061	22120
860.194	22200
860.327	22120
860.46	22070
860.592	22070
860.725	22143
860.858	22242
860.99	22090
861.123	22147
861.256	22025
861.388	22154
861.521	22908
861.653	21956
861.786	21827
861.918	21922
862.05	21926
862.183	22044
862.315	21907
862.447	22112
862.58	21979
862.712	21781
862.844	21850
862.976	21690
863.108	21800
863.24	22162
863.372	21679
863.504	21785
863.636	21739
863.768	21823
863.9	21682
864.032	21614
864.164	21736
864.296	21781
864.428	21823
864.559	21823
864.691	21804
864.823	21637
864.954	21732
865.086	21774
865.217	21690
865.349	21473
865.48	21591
865.612	21698
865.743	21694
865.875	21800
866.006	21603
866.137	21679
866.269	21747
866.4	21679
866.531	21496
866.662	21545
866.793	21652
866.924	21690
867.055	21496
867.186	21504
867.317	21568
867.448	21507
867.579	21641
867.71	21526
867.841	21416
867.972	21553
868.103	21587
868.233	21542
868.364	21667
868.495	21682
868.625	21823
868.756	21846
868.886	21743
869.017	21823
869.147	21892
869.278	21907
869.408	21781
869.539	21865
869.669	21941
869.799	21793
869.929	21876
870.06	21926
870.19	22078
870.32	22093
870.45	22112
870.58	22219
870.71	22219
870.84	22318
870.97	22303
871.1	22253
871.23	22394
871.36	22352
871.489	22257
871.619	22325
871.749	22360
871.879	22371
872.008	22584
872.138	22375
872.267	22287
872.397	22257
872.526	22306
872.656	22287
872.785	22116
872.915	22481
873.044	22386
873.173	22348
873.303	22432
873.432	22527
873.561	22535
873.69	22291
873.819	22432
873.948	22390
874.077	22432
874.206	22459
874.335	22462
874.464	22577
874.593	22660
874.722	22641
874.851	22599
874.979	22675
875.108	22752
875.237	22592
875.365	22557
875.494	22634
875.623	22702
875.751	22660
875.88	22698
876.008	22733
876.136	22816
876.265	23006
876.393	23109
876.521	23223
876.65	23140
876.778	23033
876.906	22980
877.034	22991
877.162	23003
877.29	22877
877.418	22972
877.546	23033
877.674	22820
877.802	23010
877.93	22927
878.058	23003
878.185	22828
878.313	22938
878.441	23090
878.568	22752
878.696	22774
878.824	22892
878.951	23113
879.079	23037
879.206	23208
879.333	23159
879.461	22873
879.588	23136
879.715	23052
879.842	23208
879.97	23185
880.097	22778
880.224	22725
880.351	22774
880.478	22786
880.605	22812
880.732	22767
880.859	23044
880.986	22809
881.112	22881
881.239	22687
881.366	22637
881.493	22436
881.619	22306
881.746	22348
881.872	22424
881.999	22246
882.125	22238
882.252	22371
882.378	22318
882.505	22390
882.631	22162
882.757	21972
882.883	22135
883.01	22051
883.136	22017
883.262	21991
883.388	21888
883.514	21975
883.64	22093
883.766	21972
883.892	21854
884.018	21785
884.143	22036
884.269	21994
884.395	21755
884.52	21637
884.646	21797
884.772	21534
884.897	21523
885.023	21606
885.148	21747
885.274	21759
885.399	21831
885.524	21713
885.65	21686
885.775	21709
885.9	21618
886.025	21857
886.15	21591
886.275	21652
886.4	21618
886.525	21561
886.65	21629
886.775	21561
886.9	21747
887.025	21937
887.149	21587
887.274	21389
887.399	21538
887.523	21492
887.648	21431
887.773	21325
887.897	21545
888.021	21473
888.146	21382
888.27	21519
888.395	21534
888.519	21572
888.643	21435
888.767	21447
888.891	21454
889.015	21275
889.139	21329
889.263	21211
889.387	21268
889.511	21462
889.635	21439
889.759	21127
889.883	21230
890.006	21142
890.13	21211
890.254	21066
890.377	21176
890.501	21013
890.624	20963
890.748	21112
890.871	20800
890.995	20705
891.118	20708
891.241	20762
891.364	20739
891.488	20925
891.611	20765
891.734	20929
891.857	20906
891.98	20804
892.103	20861
892.226	20857
892.349	20800
892.471	20552
892.594	20705
892.717	20807
892.839	20800
892.962	20743
893.085	20686
893.207	20617
893.33	20609
893.452	20682
893.575	20708
893.697	20564
893.819	20872
893.941	20861
894.064	20842
894.186	20625
894.308	20602
894.43	20895
894.552	20765
894.674	20678
894.796	20545
894.918	20663
895.04	20617
895.161	20594
895.283	20689
895.405	20522
895.526	20575
895.648	20644
895.769	20743
895.891	20609
896.012	20796
896.134	20640
896.255	20762
896.376	20670
896.498	20743
896.619	20727
896.74	20636
896.861	20804
896.982	21017
897.103	21100
897.224	20960
897.345	20906
897.466	20838
897.587	20880
897.708	20986
897.828	20815
897.949	20815
898.07	20533
898.19	20773
898.311	20937
898.431	20823
898.552	20804
898.672	20941
898.792	20823
898.913	20899
899.033	20701
899.153	20598
899.273	20503
899.393	20579
899.513	20632
899.633	20583
899.753	20655
899.873	20511
899.993	20636
900.113	20560
900.232	20488
900.352	20549
900.472	20495
900.591	20389
900.711	20507
900.83	20259
900.95	20495
901.069	20480
901.189	20263
901.308	20073
901.427	19906
901.546	20035
901.665	19974
901.784	20046
901.904	19776
902.023	19723
902.141	19578
902.26	19419
902.379	19544
902.498	19430
902.617	19605
902.735	19559
902.854	19388
902.973	19339
903.091	19228
903.21	19206
903.328	19175
903.446	19133
903.565	18977
903.683	18871
903.801	18821
903.919	18837
904.038	18913
904.156	18730
904.274	18962
904.392	18677
904.51	18654
904.627	18692
904.745	18688
904.863	18681
904.981	18437
905.098	18243
905.216	18296
905.334	18388
905.451	18338
905.569	18289
905.686	18342
905.803	18353
905.921	18254
906.038	18220
906.155	18197
906.272	17942
906.389	18011
906.506	17927
906.623	17927
906.74	17939
906.857	17847
906.974	17809
907.091	17824
907.208	17977
907.324	17942
907.441	17733
907.557	17608
907.674	17623
907.79	17604
907.907	17592
908.023	17592
908.139	17547
908.256	17596
908.372	17486
908.488	17467
908.604	17402
908.72	17318
908.836	17368
908.952	17353
909.068	17277
909.184	17383
909.3	17364
909.415	17322
909.531	17197
909.647	17090
909.762	17079
909.878	17037
909.993	16995
910.108	16816
910.224	17033
910.339	17064
910.454	16908
910.57	16790
910.685	16668
910.8	16984
910.915	16972
911.03	16809
911.145	16569
911.259	16577
911.374	16729
911.489	16535
911.604	16512
911.718	16478
911.833	16242
911.947	16242
912.062	16181
912.176	16352
912.291	16303
912.405	16257
912.519	16462
912.633	16558
912.748	16390
912.862	16352
912.976	16166
913.09	15983
913.204	16116
913.318	16154
913.431	16226
913.545	16196
913.659	16173
913.772	16029
913.886	16002
914	16063
914.113	16055
914.226	15979
914.34	16013
914.453	15903
914.566	15941
914.68	15869
914.793	15701
914.906	15618
915.019	15488
915.132	15504
915.245	15606
915.358	15584
915.47	15595
915.583	15606
915.696	15629
915.809	15644
915.921	15682
916.034	15412
916.146	15450
916.259	15424
916.371	15538
916.483	15477
916.595	15420
916.708	15359
916.82	15313
916.932	15351
917.044	15355
917.156	15256
917.268	15173
917.38	15184
917.491	15097
917.603	15188
917.715	15184
917.826	15173
917.938	15192
918.049	15028
918.161	15184
918.272	15275
918.384	15195
918.495	15188
918.606	14933
918.717	14941
918.828	14910
918.939	15024
919.05	14823
919.161	14910
919.272	14758
919.383	14819
919.494	14971
919.604	15089
919.715	14944
919.826	14830
919.936	14849
920.047	15036
920.157	14876
920.267	15112
920.378	14842
920.488	14952
920.598	15028
920.708	15218
920.818	15047
920.928	14998
921.038	15165
921.148	15077
921.258	14891
921.368	14842
921.477	14625
921.587	14594
921.697	14412
921.806	14541
921.916	14533
922.025	14237
922.134	14225
922.244	14195
922.353	14263
922.462	14084
922.571	14107
922.68	13955
922.789	13928
922.898	13906
923.007	13833
923.116	13898
923.224	13822
923.333	13887
923.442	13734
923.55	13647
923.659	13780
923.767	13791
923.876	13712
923.984	13624
924.092	13563
924.201	13567
924.309	13651
924.417	13662
924.525	13506
924.633	13540
924.741	14237
924.849	13339
924.956	13510
925.064	13407
925.172	13236
925.279	13282
925.387	13301
925.494	13373
925.602	13365
925.709	13289
925.816	13129
925.924	13194
926.031	13308
926.138	13190
926.245	13259
926.352	13168
926.459	13251
926.566	13266
926.673	13031
926.779	13076
926.886	13042
926.993	12863
927.099	12821
927.206	12772
927.312	12787
927.419	12859
927.525	12844
927.631	12886
927.737	12730
927.843	12650
927.95	12559
928.056	12631
928.162	12669
928.267	12642
928.373	13213
928.479	12783
928.585	12388
928.69	12582
928.796	12738
928.901	12555
929.007	12490
929.112	12536
929.218	12483
929.323	12429
929.428	12357
929.533	12433
929.638	12266
929.743	12270
929.848	12426
929.953	12315
930.058	12247
930.163	12011
930.267	12053
930.372	12197
930.477	11927
930.581	12243
930.685	12057
930.79	11927
930.894	11935
930.998	11927
931.103	12011
931.207	11661
931.311	11558
931.415	11497
931.519	11345
931.623	11326
