Data from test_V78500241_3054.txt Node
Date: Fri Mar 25 15:31:07 CST 2022
User: usil
Spectrometer: V785-0024
Trigger mode: 0
Integration Time (sec): 4.000000E-1
Scans to average: 1
Nonlinearity correction enabled: false
Boxcar width: 0
Storing dark spectrum: false
XAxis mode: Wavelengths
Number of Pixels in Spectrum: 1024
>>>>>Begin Spectral Data<<<<<
801.071	27116
801.214	27256
801.356	26971
801.499	27093
801.641	26788
801.783	26781
801.926	26674
802.068	26819
802.211	26769
802.353	26701
802.496	26461
802.638	26423
802.78	26488
802.923	26366
803.065	26400
803.208	26351
803.35	26473
803.492	26465
803.635	26731
803.777	26514
803.919	26701
804.061	26853
804.204	26651
804.346	26621
804.488	26446
804.63	26541
804.773	26453
804.915	26473
805.057	26686
805.199	26514
805.341	26636
805.483	26686
805.626	26697
805.768	26636
805.91	26587
806.052	26765
806.194	26606
806.336	26902
806.478	26682
806.62	26621
806.762	26857
806.904	26864
807.046	27264
807.188	27195
807.33	26986
807.472	27207
807.614	27089
807.756	27123
807.898	26971
808.04	26834
808.182	26895
808.324	27036
808.465	27142
808.607	27161
808.749	27351
808.891	27431
809.033	27424
809.174	27313
809.316	27526
809.458	27310
809.6	27386
809.741	27435
809.883	27507
810.025	27618
810.166	27686
810.308	27568
810.45	27542
810.591	27519
810.733	27504
810.875	27321
811.016	27298
811.158	27275
811.299	27500
811.441	27576
811.582	27306
811.724	27386
811.865	27386
812.007	27222
812.148	27374
812.29	27222
812.431	27401
812.573	27599
812.714	27538
812.855	27835
812.997	27914
813.138	27979
813.279	27873
813.421	27899
813.562	27686
813.703	27660
813.845	27370
813.986	27275
814.127	27150
814.268	27051
814.41	27077
814.551	26899
814.692	27009
814.833	26902
814.974	26906
815.115	26998
815.256	27024
815.397	26838
815.539	26853
815.68	26777
815.821	26705
815.962	26705
816.103	26739
816.244	26552
816.385	26629
816.526	26530
816.666	26343
816.807	26107
816.948	26317
817.089	26381
817.23	26370
817.371	26221
817.512	26145
817.653	26252
817.793	26142
817.934	26027
818.075	26153
818.216	26358
818.356	26092
818.497	26062
818.638	25944
818.778	25951
818.919	26008
819.06	25959
819.2	26180
819.341	26225
819.481	26195
819.622	26317
819.762	26571
819.903	26377
820.043	26343
820.184	26457
820.324	26393
820.465	26328
820.605	26374
820.746	26191
820.886	26134
821.026	26362
821.167	26320
821.307	26480
821.447	26157
821.588	26069
821.728	25883
821.868	25966
822.008	25689
822.149	25670
822.289	25578
822.429	25578
822.569	25320
822.709	25263
822.849	25251
822.99	25164
823.13	25266
823.27	25152
823.41	24992
823.55	24730
823.69	25031
823.83	25065
823.97	24886
824.11	24753
824.25	24764
824.389	24635
824.529	24833
824.669	24943
824.809	24954
824.949	24943
825.089	24871
825.228	24886
825.368	24585
825.508	24578
825.648	24620
825.787	24631
825.927	24779
826.067	24585
826.206	24635
826.346	24734
826.485	24658
826.625	24707
826.765	24905
826.904	24753
827.044	24620
827.183	24319
827.323	24426
827.462	24422
827.601	24395
827.741	24376
827.88	24464
828.02	24273
828.159	24330
828.298	24433
828.437	24445
828.577	24239
828.716	24433
828.855	24277
828.994	24121
829.134	24148
829.273	24197
829.412	24038
829.551	24076
829.69	24038
829.829	24003
829.968	24220
830.107	24015
830.246	24144
830.385	24087
830.524	24007
830.663	23988
830.802	23878
830.941	23760
831.08	23657
831.219	23794
831.357	23672
831.496	23885
831.635	23703
831.774	23703
831.913	23459
832.051	23581
832.19	23551
832.329	23501
832.467	23444
832.606	23322
832.744	23277
832.883	23406
833.022	23349
833.16	23337
833.299	23417
833.437	23356
833.576	23509
833.714	23402
833.852	23566
833.991	23421
834.129	23684
834.267	23558
834.406	23478
834.544	23566
834.682	23429
834.821	23452
834.959	23668
835.097	23356
835.235	23505
835.373	23383
835.511	23520
835.65	23296
835.788	23269
835.926	23273
836.064	23025
836.202	23181
836.34	23277
836.478	23379
836.615	23220
836.753	23185
836.891	23280
837.029	23318
837.167	23105
837.305	23075
837.443	23254
837.58	23143
837.718	23204
837.856	23265
837.993	23041
838.131	23121
838.269	22976
838.406	23033
838.544	22957
838.681	22736
838.819	22793
838.956	22580
839.094	22508
839.231	22748
839.369	22828
839.506	22961
839.643	22828
839.781	22675
839.918	22557
840.055	22660
840.193	22710
840.33	22630
840.467	22584
840.604	22691
840.742	22805
840.879	22519
841.016	22386
841.153	22409
841.29	22622
841.427	22519
841.564	22592
841.701	22577
841.838	22474
841.975	22417
842.112	22405
842.249	22348
842.385	22447
842.522	22550
842.659	22394
842.796	22253
842.933	22306
843.069	22386
843.206	22219
843.343	22398
843.479	22363
843.616	22325
843.752	22120
843.889	22128
844.025	22371
844.162	22021
844.298	22070
844.435	22093
844.571	21998
844.708	22147
844.844	22097
844.98	22105
845.117	22139
845.253	22036
845.389	21816
845.525	21949
845.661	21869
845.798	21720
845.934	21903
846.07	21766
846.206	21903
846.342	21960
846.478	21785
846.614	21622
846.75	21526
846.886	21485
847.022	21591
847.158	21610
847.294	21496
847.429	21599
847.565	21496
847.701	21732
847.837	21233
847.972	21260
848.108	21279
848.244	21336
848.379	21169
848.515	21112
848.65	21096
848.786	21226
848.921	21070
849.057	21313
849.192	21264
849.328	21161
849.463	21089
849.598	21131
849.734	20925
849.869	20971
850.004	20853
850.14	20979
850.275	20838
850.41	20727
850.545	20731
850.68	20834
850.815	20933
850.95	20880
851.085	21081
851.22	20994
851.355	20853
851.49	20925
851.625	20826
851.76	20883
851.895	20826
852.03	20868
852.165	20979
852.299	20929
852.434	20963
852.569	20899
852.703	20750
852.838	20868
852.973	20971
853.107	20914
853.242	20864
853.376	20807
853.511	20678
853.645	20648
853.78	20937
853.914	20773
854.048	20613
854.183	20701
854.317	20811
854.451	20941
854.585	20693
854.72	20587
854.854	20857
854.988	20686
855.122	20727
855.256	20564
855.39	20727
855.524	20781
855.658	20712
855.792	20758
855.926	20575
856.06	20705
856.194	20754
856.327	20708
856.461	20617
856.595	20667
856.729	20712
856.862	20887
856.996	20716
857.13	20864
857.263	20800
857.397	20743
857.53	20701
857.664	20785
857.797	20701
857.931	20800
858.064	20686
858.197	20750
858.331	20629
858.464	20750
858.597	20598
858.731	20731
858.864	20705
858.997	20693
859.13	20674
859.263	20678
859.396	20720
859.529	20632
859.662	20579
859.795	20583
859.928	20663
860.061	20864
860.194	20956
860.327	20811
860.46	20697
860.592	20823
860.725	20864
860.858	20891
860.99	20708
861.123	20602
861.256	20659
861.388	20807
861.521	21340
861.653	20503
861.786	20412
861.918	20613
862.05	20564
862.183	20537
862.315	20651
862.447	20758
862.58	20655
862.712	20442
862.844	20347
862.976	20495
863.108	20571
863.24	20785
863.372	20317
863.504	20469
863.636	20431
863.768	20431
863.9	20351
864.032	20400
864.164	20400
864.296	20442
864.428	20480
864.559	20507
864.691	20708
864.823	20492
864.954	20362
865.086	20507
865.217	20320
865.349	20332
865.48	20214
865.612	20199
865.743	20408
865.875	20423
866.006	20362
866.137	20282
866.269	20339
866.4	20138
866.531	20286
866.662	20199
866.793	20343
866.924	20244
867.055	20240
867.186	20130
867.317	20256
867.448	20195
867.579	20275
867.71	20145
867.841	20195
867.972	20210
868.103	20320
868.233	20271
868.364	20347
868.495	20313
868.625	20537
868.756	20651
868.886	20492
869.017	20590
869.147	20579
869.278	20556
869.408	20579
869.539	20507
869.669	20583
869.799	20575
869.929	20644
870.06	20590
870.19	20845
870.32	20838
870.45	20868
870.58	20921
870.71	21017
870.84	21028
870.97	20883
871.1	20910
871.23	21203
871.36	21146
871.489	21039
871.619	21119
871.749	21142
871.879	21127
872.008	21161
872.138	21123
872.267	21085
872.397	20994
872.526	20982
872.656	20956
872.785	20994
872.915	21116
873.044	21207
873.173	21199
873.303	21142
873.432	21154
873.561	21283
873.69	21199
873.819	21135
873.948	21100
874.077	21150
874.206	21150
874.335	21226
874.464	21203
874.593	21272
874.722	21306
874.851	21519
874.979	21378
875.108	21351
875.237	21351
875.365	21249
875.494	21321
875.623	21492
875.751	21264
875.88	21374
876.008	21553
876.136	21500
876.265	21854
876.393	21953
876.521	21846
876.65	21941
876.778	21831
876.906	21690
877.034	21701
877.162	21724
877.29	21717
877.418	21747
877.546	21797
877.674	21793
877.802	21660
877.93	21850
878.058	21637
878.185	21603
878.313	21583
878.441	21686
878.568	21534
878.696	21747
878.824	21720
878.951	21747
879.079	21819
879.206	22025
879.333	21850
879.461	21850
879.588	21846
879.715	21869
879.842	21994
879.97	21797
880.097	21679
880.224	21557
880.351	21610
880.478	21644
880.605	21580
880.732	21538
880.859	21789
880.986	21561
881.112	21568
881.239	21420
881.366	21378
881.493	21249
881.619	21165
881.746	21203
881.872	21055
881.999	21184
882.125	21116
882.252	21161
882.378	21024
882.505	21321
882.631	21085
882.757	20830
882.883	20994
883.01	20834
883.136	20781
883.262	20739
883.388	20739
883.514	20944
883.64	20910
883.766	20663
883.892	20659
884.018	20765
884.143	20857
884.269	20967
884.395	20541
884.52	20431
884.646	20533
884.772	20408
884.897	20374
885.023	20488
885.148	20617
885.274	20594
885.399	20674
885.524	20552
885.65	20530
885.775	20526
885.9	20522
886.025	20571
886.15	20545
886.275	20545
886.4	20393
886.525	20473
886.65	20446
886.775	20549
886.9	20503
887.025	20667
887.149	20450
887.274	20339
887.399	20248
887.523	20221
887.648	20313
887.773	20176
887.897	20343
888.021	20370
888.146	20225
888.27	20488
888.395	20332
888.519	20309
888.643	20313
888.767	20320
888.891	20199
889.015	20149
889.139	20103
889.263	20107
889.387	20206
889.511	20199
889.635	20298
889.759	19993
889.883	20054
890.006	20119
890.13	20199
890.254	20065
890.377	19989
890.501	19837
890.624	19849
890.748	19864
890.871	19830
890.995	19708
891.118	19605
891.241	19738
891.364	19647
891.488	19765
891.611	19620
891.734	19795
891.857	19708
891.98	19586
892.103	19746
892.226	19689
892.349	19529
892.471	19499
892.594	19559
892.717	19700
892.839	19514
892.962	19704
893.085	19761
893.207	19616
893.33	19415
893.452	19582
893.575	19616
893.697	19533
893.819	19674
893.941	19757
894.064	19704
894.186	19563
894.308	19491
894.43	19578
894.552	19677
894.674	19639
894.796	19502
894.918	19441
895.04	19540
895.161	19655
895.283	19362
895.405	19624
895.526	19567
895.648	19529
895.769	19590
895.891	19639
896.012	19647
896.134	19662
896.255	19571
896.376	19502
896.498	19582
896.619	19594
896.74	19518
896.861	19655
896.982	19917
897.103	19986
897.224	19860
897.345	19841
897.466	19750
897.587	19852
897.708	19871
897.828	19845
897.949	19712
898.07	19712
898.19	19628
898.311	19856
898.431	19700
898.552	19890
898.672	19879
898.792	19955
898.913	19818
899.033	19811
899.153	19693
899.273	19468
899.393	19499
899.513	19597
899.633	19533
899.753	19590
899.873	19525
899.993	19556
900.113	19483
900.232	19506
900.352	19487
900.472	19419
900.591	19449
900.711	19392
900.83	19327
900.95	19350
901.069	19419
901.189	19244
901.308	19019
901.427	19061
901.546	19042
901.665	18943
901.784	18932
901.904	18760
902.023	18745
902.141	18574
902.26	18517
902.379	18563
902.498	18475
902.617	18414
902.735	18410
902.854	18361
902.973	18441
903.091	18266
903.21	18064
903.328	18178
903.446	18144
903.565	18038
903.683	17969
903.801	17901
903.919	17965
904.038	17847
904.156	17729
904.274	17760
904.392	17752
904.51	17703
904.627	17760
904.745	17805
904.863	17813
904.981	17611
905.098	17395
905.216	17414
905.334	17452
905.451	17356
905.569	17448
905.686	17402
905.803	17315
905.921	17105
906.038	17231
906.155	17162
906.272	17117
906.389	17143
906.506	16866
906.623	16824
906.74	16892
906.857	16877
906.974	16862
907.091	16930
907.208	17048
907.324	16919
907.441	16850
907.557	16706
907.674	16713
907.79	16599
907.907	16611
908.023	16656
908.139	16675
908.256	16645
908.372	16584
908.488	16519
908.604	16375
908.72	16398
908.836	16447
908.952	16337
909.068	16348
909.184	16402
909.3	16485
909.415	16417
909.531	16329
909.647	16162
909.762	16029
909.878	16150
909.993	16071
910.108	16055
910.224	16013
910.339	16105
910.454	15968
910.57	15861
910.685	15797
910.8	16112
910.915	16040
911.03	15873
911.145	15686
911.259	15667
911.374	15751
911.489	15671
911.604	15603
911.718	15420
911.833	15488
911.947	15435
912.062	15348
912.176	15530
912.291	15485
912.405	15485
912.519	15682
912.633	15701
912.748	15504
912.862	15504
912.976	15283
913.09	15161
913.204	15241
913.318	15287
913.431	15317
913.545	15420
913.659	15329
913.772	15230
913.886	15047
914	15077
914.113	15218
914.226	15142
914.34	15161
914.453	15032
914.566	15104
914.68	15051
914.793	14876
914.906	14838
915.019	14739
915.132	14629
915.245	14640
915.358	14667
915.47	14727
915.583	14667
915.696	14689
915.809	14693
915.921	14746
916.034	14644
916.146	14610
916.259	14590
916.371	14621
916.483	14659
916.595	14480
916.708	14575
916.82	14473
916.932	14404
917.044	14495
917.156	14423
917.268	14347
917.38	14431
917.491	14278
917.603	14332
917.715	14446
917.826	14511
917.938	14267
918.049	14092
918.161	14320
918.272	14385
918.384	14400
918.495	14218
918.606	14081
918.717	14164
918.828	14084
918.939	14058
919.05	14012
919.161	14088
919.272	13887
919.383	13944
919.494	14221
919.604	14275
919.715	14138
919.826	14001
919.936	14126
920.047	14199
920.157	14218
920.267	14374
920.378	14088
920.488	14035
920.598	14286
920.708	14484
920.818	14233
920.928	14252
921.038	14324
921.148	14324
921.258	14100
921.368	14031
921.477	13925
921.587	13769
921.697	13643
921.806	13940
921.916	13689
922.025	13609
922.134	13525
922.244	13487
922.353	13548
922.462	13362
922.571	13335
922.68	13141
922.789	13137
922.898	13141
923.007	13183
923.116	13175
923.224	13145
923.333	13069
923.442	12996
923.55	12882
923.659	12924
923.767	13053
923.876	13034
923.984	12981
924.092	12817
924.201	12958
924.309	12943
924.417	12897
924.525	12840
924.633	12856
924.741	13788
924.849	12566
924.956	12753
925.064	12677
925.172	12494
925.279	12627
925.387	12525
925.494	12555
925.602	12692
925.709	12631
925.816	12506
925.924	12574
926.031	12597
926.138	12563
926.245	12582
926.352	12422
926.459	12570
926.566	12582
926.673	12475
926.779	12308
926.886	12372
926.993	12254
927.099	12190
927.206	12091
927.312	12007
927.419	12224
927.525	12079
927.631	12102
927.737	12072
927.843	11988
927.95	11916
928.056	11996
928.162	11984
928.267	12091
928.373	12745
928.479	12102
928.585	11821
928.69	11973
928.796	12057
928.901	11817
929.007	11760
929.112	11904
929.218	11832
929.323	11752
929.428	11695
929.533	11836
929.638	11676
929.743	11630
929.848	11741
929.953	11695
930.058	11570
930.163	11406
930.267	11520
930.372	11577
930.477	11356
930.581	11653
930.685	11566
930.79	11391
930.894	11376
930.998	11277
931.103	11429
931.207	11075
931.311	11003
931.415	10839
931.519	10801
931.623	10706
