Data from test_V78500241_3133.txt Node
Date: Fri Mar 25 15:31:40 CST 2022
User: usil
Spectrometer: V785-0024
Trigger mode: 0
Integration Time (sec): 4.000000E-1
Scans to average: 1
Nonlinearity correction enabled: false
Boxcar width: 0
Storing dark spectrum: false
XAxis mode: Wavelengths
Number of Pixels in Spectrum: 1024
>>>>>Begin Spectral Data<<<<<
801.071	27127
801.214	27131
801.356	26781
801.499	26735
801.641	26655
801.783	26659
801.926	26530
802.068	26583
802.211	26412
802.353	26446
802.496	26252
802.638	26225
802.78	26130
802.923	26100
803.065	26073
803.208	26145
803.35	26180
803.492	26343
803.635	26362
803.777	26202
803.919	26469
804.061	26606
804.204	26438
804.346	26351
804.488	26305
804.63	26275
804.773	26202
804.915	26195
805.057	26374
805.199	26176
805.341	26374
805.483	26549
805.626	26317
805.768	26362
805.91	26484
806.052	26461
806.194	26332
806.336	26587
806.478	26446
806.62	26362
806.762	26499
806.904	26792
807.046	26842
807.188	26853
807.33	26899
807.472	26826
807.614	26811
807.756	26769
807.898	26632
808.04	26560
808.182	26674
808.324	26594
808.465	26815
808.607	27058
808.749	27017
808.891	27157
809.033	27123
809.174	27074
809.316	26944
809.458	27066
809.6	26998
809.741	27104
809.883	27279
810.025	27161
810.166	27150
810.308	27329
810.45	27237
810.591	27142
810.733	27020
810.875	27017
811.016	26971
811.158	26906
811.299	27142
811.441	27283
811.582	27127
811.724	26807
811.865	26899
812.007	27017
812.148	26975
812.29	27005
812.431	27195
812.573	27252
812.714	27298
812.855	27564
812.997	27538
813.138	27572
813.279	27656
813.421	27515
813.562	27329
813.703	27374
813.845	27199
813.986	26868
814.127	26769
814.268	26568
814.41	26815
814.551	26583
814.692	26788
814.833	26533
814.974	26446
815.115	26670
815.256	26655
815.397	26533
815.539	26453
815.68	26480
815.821	26298
815.962	26541
816.103	26370
816.244	26240
816.385	26278
816.526	26138
816.666	26005
816.807	25803
816.948	25959
817.089	25982
817.23	25890
817.371	25959
817.512	25871
817.653	25871
817.793	25708
817.934	25845
818.075	26058
818.216	25928
818.356	25951
818.497	25742
818.638	25575
818.778	25605
818.919	25696
819.06	25616
819.2	25799
819.341	25871
819.481	25700
819.622	26096
819.762	26187
819.903	26149
820.043	26115
820.184	26062
820.324	26122
820.465	26088
820.605	26031
820.746	25966
820.886	25746
821.026	26077
821.167	25894
821.307	25902
821.447	25894
821.588	25856
821.728	25780
821.868	25521
822.008	25320
822.149	25377
822.289	25426
822.429	25141
822.569	25145
822.709	25050
822.849	24966
822.99	24916
823.13	24806
823.27	24772
823.41	24715
823.55	24601
823.69	24700
823.83	24696
823.97	24601
824.11	24597
824.25	24494
824.389	24540
824.529	24555
824.669	24532
824.809	24692
824.949	24604
825.089	24623
825.228	24544
825.368	24429
825.508	24422
825.648	24464
825.787	24528
825.927	24460
826.067	24357
826.206	24369
826.346	24414
826.485	24391
826.625	24509
826.765	24521
826.904	24525
827.044	24091
827.183	24045
827.323	24201
827.462	24155
827.601	24087
827.741	24091
827.88	24072
828.02	23904
828.159	24068
828.298	24102
828.437	24190
828.577	24026
828.716	24254
828.855	24057
828.994	23901
829.134	23836
829.273	23893
829.412	23726
829.551	23741
829.69	23745
829.829	23893
829.968	23935
830.107	23912
830.246	23817
830.385	23878
830.524	23802
830.663	23703
830.802	23482
830.941	23353
831.08	23440
831.219	23619
831.357	23440
831.496	23726
831.635	23505
831.774	23368
831.913	23261
832.051	23353
832.19	23117
832.329	23254
832.467	23178
832.606	23052
832.744	23079
832.883	23086
833.022	22999
833.16	23018
833.299	23029
833.437	22984
833.576	23086
833.714	23223
833.852	23132
833.991	23288
834.129	23360
834.267	23166
834.406	23231
834.544	23193
834.682	23288
834.821	23147
834.959	23330
835.097	23094
835.235	23212
835.373	23178
835.511	23162
835.65	23006
835.788	23075
835.926	22889
836.064	22774
836.202	22873
836.34	23086
836.478	23079
836.615	22934
836.753	22923
836.891	23014
837.029	23006
837.167	22889
837.305	22953
837.443	22930
837.58	22816
837.718	22900
837.856	22801
837.993	22740
838.131	22904
838.269	22786
838.406	22668
838.544	22713
838.681	22584
838.819	22436
838.956	22276
839.094	22344
839.231	22417
839.369	22630
839.506	22698
839.643	22554
839.781	22310
839.918	22261
840.055	22402
840.193	22291
840.33	22188
840.467	22261
840.604	22287
840.742	22554
840.879	22036
841.016	22207
841.153	22223
841.29	22344
841.427	22303
841.564	22204
841.701	22310
841.838	22181
841.975	22253
842.112	22382
842.249	22162
842.385	22051
842.522	22219
842.659	22048
842.796	22082
842.933	21979
843.069	21968
843.206	22101
843.343	22097
843.479	21922
843.616	22006
843.752	21873
843.889	21823
844.025	22055
844.162	21622
844.298	21964
844.435	21831
844.571	21755
844.708	21819
844.844	21979
844.98	21854
845.117	21918
845.253	21797
845.389	21739
845.525	21816
845.661	21785
845.798	21568
845.934	21656
846.07	21549
846.206	21606
846.342	21660
846.478	21454
846.614	21313
846.75	21283
846.886	21340
847.022	21370
847.158	21416
847.294	21222
847.429	21344
847.565	21287
847.701	21542
847.837	21047
847.972	21036
848.108	21150
848.244	20982
848.379	20902
848.515	20925
848.65	20819
848.786	20716
848.921	20902
849.057	20998
849.192	20956
849.328	20937
849.463	20883
849.598	20849
849.734	20804
849.869	20648
850.004	20651
850.14	20670
850.275	20632
850.41	20796
850.545	20598
850.68	20659
850.815	20594
850.95	20609
851.085	20765
851.22	20724
851.355	20705
851.49	20609
851.625	20533
851.76	20682
851.895	20511
852.03	20533
852.165	20670
852.299	20590
852.434	20739
852.569	20712
852.703	20670
852.838	20663
852.973	20750
853.107	20697
853.242	20575
853.376	20594
853.511	20408
853.645	20446
853.78	20552
853.914	20427
854.048	20396
854.183	20450
854.317	20450
854.451	20731
854.585	20492
854.72	20492
854.854	20541
854.988	20271
855.122	20514
855.256	20377
855.39	20442
855.524	20556
855.658	20583
855.792	20476
855.926	20492
856.06	20415
856.194	20541
856.327	20533
856.461	20484
856.595	20473
856.729	20473
856.862	20583
856.996	20431
857.13	20480
857.263	20556
857.397	20606
857.53	20465
857.664	20503
857.797	20556
857.931	20537
858.064	20518
858.197	20606
858.331	20355
858.464	20507
858.597	20214
858.731	20507
858.864	20461
858.997	20427
859.13	20469
859.263	20560
859.396	20560
859.529	20469
859.662	20377
859.795	20461
859.928	20571
860.061	20689
860.194	20670
860.327	20484
860.46	20431
860.592	20537
860.725	20636
860.858	20651
860.99	20385
861.123	20339
861.256	20438
861.388	20469
861.521	20925
861.653	20290
861.786	20187
861.918	20286
862.05	20339
862.183	20309
862.315	20412
862.447	20400
862.58	20362
862.712	20149
862.844	20229
862.976	20305
863.108	20370
863.24	20686
863.372	20199
863.504	20229
863.636	20206
863.768	20263
863.9	20153
864.032	20096
864.164	20107
864.296	20176
864.428	20176
864.559	20282
864.691	20180
864.823	20317
864.954	20172
865.086	20252
865.217	20122
865.349	20069
865.48	20092
865.612	20046
865.743	20202
865.875	20126
866.006	20100
866.137	20122
866.269	19963
866.4	20084
866.531	20111
866.662	20065
866.793	19982
866.924	20069
867.055	20077
867.186	20126
867.317	20065
867.448	20081
867.579	19944
867.71	19944
867.841	19894
867.972	20062
868.103	20050
868.233	20035
868.364	20122
868.495	20069
868.625	20328
868.756	20320
868.886	20206
869.017	20237
869.147	20415
869.278	20320
869.408	20339
869.539	20305
869.669	20278
869.799	20446
869.929	20465
870.06	20480
870.19	20560
870.32	20469
870.45	20594
870.58	20663
870.71	20853
870.84	20788
870.97	20705
871.1	20750
871.23	20861
871.36	20830
871.489	20834
871.619	20853
871.749	20849
871.879	20910
872.008	20895
872.138	20883
872.267	21024
872.397	20769
872.526	20693
872.656	20678
872.785	20655
872.915	20937
873.044	21032
873.173	20826
873.303	20914
873.432	20952
873.561	20929
873.69	21028
873.819	20887
873.948	21032
874.077	21005
874.206	20921
874.335	20804
874.464	21047
874.593	21108
874.722	21108
874.851	21192
874.979	21074
875.108	21176
875.237	21165
875.365	21104
875.494	21112
875.623	21142
875.751	21081
875.88	21207
876.008	21359
876.136	21249
876.265	21469
876.393	21583
876.521	21618
876.65	21610
876.778	21572
876.906	21473
877.034	21386
877.162	21496
877.29	21447
877.418	21587
877.546	21667
877.674	21393
877.802	21481
877.93	21519
878.058	21504
878.185	21450
878.313	21408
878.441	21450
878.568	21302
878.696	21488
878.824	21564
878.951	21564
879.079	21751
879.206	21747
879.333	21641
879.461	21564
879.588	21564
879.715	21701
879.842	21770
879.97	21587
880.097	21340
880.224	21313
880.351	21386
880.478	21351
880.605	21203
880.732	21310
880.859	21523
880.986	21435
881.112	21306
881.239	21192
881.366	21222
881.493	21032
881.619	20986
881.746	20956
881.872	20971
881.999	20830
882.125	20880
882.252	20986
882.378	20944
882.505	21001
882.631	20838
882.757	20811
882.883	20731
883.01	20644
883.136	20621
883.262	20571
883.388	20415
883.514	20571
883.64	20731
883.766	20545
883.892	20495
884.018	20564
884.143	20629
884.269	20670
884.395	20389
884.52	20324
884.646	20358
884.772	20191
884.897	20183
885.023	20305
885.148	20415
885.274	20415
885.399	20423
885.524	20180
885.65	20298
885.775	20404
885.9	20195
886.025	20518
886.15	20343
886.275	20096
886.4	20199
886.525	20294
886.65	20077
886.775	20168
886.9	20355
887.025	20396
887.149	20256
887.274	20035
887.399	20035
887.523	20073
887.648	20092
887.773	19947
887.897	20138
888.021	20195
888.146	20035
888.27	20035
888.395	20088
888.519	20088
888.643	20119
888.767	20168
888.891	19936
889.015	19860
889.139	19955
889.263	19791
889.387	19982
889.511	19940
889.635	19963
889.759	19849
889.883	19887
890.006	19890
890.13	19803
890.254	19807
890.377	19723
890.501	19639
890.624	19635
890.748	19761
890.871	19571
890.995	19403
891.118	19221
891.241	19388
891.364	19502
891.488	19590
891.611	19521
891.734	19468
891.857	19354
891.98	19460
892.103	19575
892.226	19453
892.349	19388
892.471	19274
892.594	19392
892.717	19343
892.839	19171
892.962	19377
893.085	19388
893.207	19381
893.33	19266
893.452	19247
893.575	19400
893.697	19415
893.819	19426
893.941	19624
894.064	19487
894.186	19304
894.308	19297
894.43	19472
894.552	19426
894.674	19316
894.796	19297
894.918	19381
895.04	19358
895.161	19304
895.283	19350
895.405	19324
895.526	19320
895.648	19320
895.769	19274
895.891	19308
896.012	19521
896.134	19480
896.255	19289
896.376	19289
896.498	19308
896.619	19403
896.74	19365
896.861	19430
896.982	19761
897.103	19803
897.224	19674
897.345	19544
897.466	19521
897.587	19677
897.708	19635
897.828	19578
897.949	19445
898.07	19362
898.19	19495
898.311	19658
898.431	19525
898.552	19552
898.672	19647
898.792	19685
898.913	19620
899.033	19453
899.153	19388
899.273	19168
899.393	19487
899.513	19449
899.633	19350
899.753	19335
899.873	19270
899.993	19487
900.113	19266
900.232	19445
900.352	19263
900.472	19194
900.591	19046
900.711	19247
900.83	19145
900.95	19183
901.069	19335
901.189	19088
901.308	18802
901.427	18669
901.546	18810
901.665	18806
901.784	18726
901.904	18654
902.023	18570
902.141	18380
902.26	18327
902.379	18330
902.498	18315
902.617	18300
902.735	18319
902.854	18213
902.973	18201
903.091	17996
903.21	17973
903.328	18022
903.446	17794
903.565	17855
903.683	17779
903.801	17554
903.919	17794
904.038	17737
904.156	17589
904.274	17687
904.392	17581
904.51	17577
904.627	17486
904.745	17630
904.863	17516
904.981	17345
905.098	17239
905.216	17277
905.334	17277
905.451	17254
905.569	17143
905.686	17197
905.803	17288
905.921	16999
906.038	17079
906.155	17048
906.272	16915
906.389	16953
906.506	16736
906.623	16710
906.74	16820
906.857	16565
906.974	16729
907.091	16702
907.208	16809
907.324	16668
907.441	16599
907.557	16584
907.674	16379
907.79	16303
907.907	16440
908.023	16531
908.139	16504
908.256	16443
908.372	16371
908.488	16291
908.604	16188
908.72	16124
908.836	16238
908.952	16211
909.068	16169
909.184	16261
909.3	16314
909.415	16265
909.531	16124
909.647	15915
909.762	15899
909.878	15960
909.993	15911
910.108	15842
910.224	15873
910.339	15800
910.454	15724
910.57	15671
910.685	15682
910.8	15899
910.915	15835
911.03	15694
911.145	15545
911.259	15435
911.374	15534
911.489	15435
911.604	15439
911.718	15218
911.833	15249
911.947	15131
912.062	15195
912.176	15317
912.291	15294
912.405	15294
912.519	15431
912.633	15469
912.748	15393
912.862	15260
912.976	15100
913.09	15036
913.204	15112
913.318	15123
913.431	15222
913.545	15154
913.659	15199
913.772	15043
913.886	14948
914	14891
914.113	14925
914.226	14986
914.34	14929
914.453	14781
914.566	14815
914.68	14891
914.793	14819
914.906	14651
915.019	14530
915.132	14476
915.245	14514
915.358	14579
915.47	14507
915.583	14514
915.696	14518
915.809	14632
915.921	14701
916.034	14457
916.146	14412
916.259	14320
916.371	14473
916.483	14461
916.595	14271
916.708	14415
916.82	14389
916.932	14298
917.044	14343
917.156	14244
917.268	14286
917.38	14180
917.491	14252
917.603	14126
917.715	14259
917.826	14336
917.938	14123
918.049	14016
918.161	14164
918.272	14343
918.384	14263
918.495	14172
918.606	13993
918.717	13887
918.828	13928
918.939	14031
919.05	13921
919.161	13970
919.272	13761
919.383	13917
919.494	13921
919.604	14172
919.715	13993
919.826	13932
919.936	13902
920.047	13978
920.157	13986
920.267	14252
920.378	13947
920.488	13997
920.598	14115
920.708	14263
920.818	14069
920.928	14092
921.038	14233
921.148	14183
921.258	13803
921.368	13757
921.477	13693
921.587	13750
921.697	13571
921.806	13639
921.916	13643
922.025	13407
922.134	13426
922.244	13381
922.353	13384
922.462	13259
922.571	13194
922.68	13042
922.789	12939
922.898	13015
923.007	12962
923.116	12951
923.224	12958
923.333	12920
923.442	12856
923.55	12764
923.659	12875
923.767	12852
923.876	12806
923.984	12791
924.092	12757
924.201	12844
924.309	12791
924.417	12730
924.525	12662
924.633	12715
924.741	13582
924.849	12486
924.956	12650
925.064	12513
925.172	12308
925.279	12464
925.387	12445
925.494	12475
925.602	12574
925.709	12479
925.816	12308
925.924	12414
926.031	12490
926.138	12380
926.245	12418
926.352	12273
926.459	12445
926.566	12464
926.673	12391
926.779	12106
926.886	12125
926.993	12038
927.099	11965
927.206	12011
927.312	11973
927.419	12083
927.525	11999
927.631	12022
927.737	11946
927.843	11870
927.95	11813
928.056	11923
928.162	11882
928.267	11893
928.373	12479
928.479	11939
928.585	11688
928.69	11756
928.796	11870
928.901	11786
929.007	11668
929.112	11771
929.218	11722
929.323	11585
929.428	11665
929.533	11771
929.638	11600
929.743	11512
929.848	11512
929.953	11600
930.058	11414
930.163	11292
930.267	11341
930.372	11402
930.477	11318
930.581	11509
930.685	11349
930.79	11212
930.894	11208
930.998	11136
931.103	11181
931.207	10984
931.311	10820
931.415	10824
931.519	10554
931.623	10611
