Data from test_V78500241_3492.txt Node
Date: Fri Mar 25 15:34:10 CST 2022
User: usil
Spectrometer: V785-0024
Trigger mode: 0
Integration Time (sec): 4.000000E-1
Scans to average: 1
Nonlinearity correction enabled: false
Boxcar width: 0
Storing dark spectrum: false
XAxis mode: Wavelengths
Number of Pixels in Spectrum: 1024
>>>>>Begin Spectral Data<<<<<
801.071	27218
801.214	27355
801.356	27051
801.499	26967
801.641	26895
801.783	26769
801.926	26701
802.068	26785
802.211	26872
802.353	26705
802.496	26552
802.638	26541
802.78	26499
802.923	26317
803.065	26275
803.208	26351
803.35	26583
803.492	26678
803.635	26587
803.777	26545
803.919	26613
804.061	27001
804.204	26667
804.346	26617
804.488	26476
804.63	26625
804.773	26453
804.915	26640
805.057	26804
805.199	26564
805.341	26705
805.483	26663
805.626	26727
805.768	26648
805.91	26720
806.052	26762
806.194	26758
806.336	26792
806.478	26644
806.62	26575
806.762	26781
806.904	27108
807.046	27321
807.188	27180
807.33	27154
807.472	27287
807.614	27062
807.756	27089
807.898	26891
808.04	26940
808.182	26948
808.324	27017
808.465	27093
808.607	27173
808.749	27310
808.891	27260
809.033	27515
809.174	27481
809.316	27355
809.458	27302
809.6	27165
809.741	27431
809.883	27523
810.025	27496
810.166	27618
810.308	27553
810.45	27553
810.591	27515
810.733	27397
810.875	27317
811.016	27123
811.158	27192
811.299	27332
811.441	27279
811.582	27431
811.724	27382
811.865	27351
812.007	27218
812.148	27249
812.29	27241
812.431	27454
812.573	27545
812.714	27739
812.855	27816
812.997	27865
813.138	28051
813.279	28010
813.421	27861
813.562	27705
813.703	27747
813.845	27485
813.986	27344
814.127	27070
814.268	26960
814.41	26990
814.551	26940
814.692	27096
814.833	26876
814.974	27009
815.115	27001
815.256	26804
815.397	26891
815.539	26807
815.68	26705
815.821	26602
815.962	26826
816.103	26743
816.244	26606
816.385	26484
816.526	26412
816.666	26336
816.807	26256
816.948	26358
817.089	26248
817.23	26214
817.371	26244
817.512	26294
817.653	26027
817.793	26233
817.934	26218
818.075	26161
818.216	26282
818.356	26153
818.497	26202
818.638	25997
818.778	25966
818.919	26008
819.06	26005
819.2	26138
819.341	26259
819.481	26111
819.622	26317
819.762	26625
819.903	26442
820.043	26317
820.184	26347
820.324	26202
820.465	26355
820.605	26343
820.746	26290
820.886	26119
821.026	26358
821.167	26145
821.307	26393
821.447	26298
821.588	25997
821.728	25982
821.868	25868
822.008	25791
822.149	25601
822.289	25784
822.429	25506
822.569	25339
822.709	25301
822.849	25152
822.99	25160
823.13	25152
823.27	25126
823.41	25004
823.55	24875
823.69	25004
823.83	24947
823.97	25000
824.11	24791
824.25	24787
824.389	24856
824.529	24844
824.669	24711
824.809	24932
824.949	24939
825.089	24909
825.228	24837
825.368	24738
825.508	24673
825.648	24593
825.787	24722
825.927	24719
826.067	24623
826.206	24635
826.346	24738
826.485	24650
826.625	24620
826.765	24814
826.904	24688
827.044	24479
827.183	24441
827.323	24266
827.462	24407
827.601	24441
827.741	24376
827.88	24471
828.02	24410
828.159	24422
828.298	24308
828.437	24498
828.577	24483
828.716	24452
828.855	24353
828.994	24015
829.134	24106
829.273	24136
829.412	24110
829.551	24072
829.69	24171
829.829	24159
829.968	24205
830.107	24190
830.246	24186
830.385	24106
830.524	23996
830.663	23836
830.802	23942
830.941	23714
831.08	23608
831.219	23889
831.357	23897
831.496	23813
831.635	23684
831.774	23722
831.913	23463
832.051	23589
832.19	23501
832.329	23539
832.467	23516
832.606	23436
832.744	23292
832.883	23280
833.022	23303
833.16	23516
833.299	23471
833.437	23364
833.576	23421
833.714	23421
833.852	23539
833.991	23493
834.129	23611
834.267	23512
834.406	23486
834.544	23455
834.682	23486
834.821	23406
834.959	23707
835.097	23315
835.235	23581
835.373	23543
835.511	23395
835.65	23406
835.788	23478
835.926	23200
836.064	23261
836.202	23075
836.34	23269
836.478	23372
836.615	23204
836.753	23288
836.891	23341
837.029	23524
837.167	23360
837.305	23170
837.443	23193
837.58	23121
837.718	23254
837.856	23147
837.993	23132
838.131	23178
838.269	23147
838.406	23174
838.544	22965
838.681	22736
838.819	22858
838.956	22710
839.094	22763
839.231	22710
839.369	22900
839.506	22972
839.643	22866
839.781	22816
839.918	22679
840.055	22664
840.193	22557
840.33	22573
840.467	22626
840.604	22672
840.742	22923
840.879	22462
841.016	22561
841.153	22519
841.29	22687
841.427	22641
841.564	22504
841.701	22599
841.838	22550
841.975	22504
842.112	22538
842.249	22447
842.385	22538
842.522	22580
842.659	22523
842.796	22360
842.933	22287
843.069	22306
843.206	22402
843.343	22432
843.479	22314
843.616	22310
843.752	22185
843.889	22166
844.025	22303
844.162	22101
844.298	22352
844.435	22188
844.571	22253
844.708	22143
844.844	22246
844.98	22287
845.117	22169
845.253	22097
845.389	21937
845.525	22051
845.661	21994
845.798	21994
845.934	21941
846.07	21797
846.206	21934
846.342	22078
846.478	21831
846.614	21679
846.75	21557
846.886	21542
847.022	21648
847.158	21595
847.294	21591
847.429	21667
847.565	21538
847.701	21857
847.837	21329
847.972	21485
848.108	21386
848.244	21481
848.379	21310
848.515	21138
848.65	21252
848.786	21135
848.921	21310
849.057	21264
849.192	21329
849.328	21325
849.463	21256
849.598	21138
849.734	21096
849.869	20998
850.004	21077
850.14	21043
850.275	20948
850.41	21005
850.545	20796
850.68	20902
850.815	20941
850.95	20902
851.085	21051
851.22	21013
851.355	21032
851.49	20902
851.625	20876
851.76	20971
851.895	20830
852.03	20948
852.165	20944
852.299	21039
852.434	21047
852.569	20941
852.703	20963
852.838	20914
852.973	21203
853.107	21150
853.242	20948
853.376	20792
853.511	20659
853.645	20750
853.78	20834
853.914	20796
854.048	20849
854.183	20663
854.317	20868
854.451	21043
854.585	20788
854.72	20720
854.854	20861
854.988	20807
855.122	20815
855.256	20678
855.39	20849
855.524	20849
855.658	20781
855.792	20769
855.926	20686
856.06	20864
856.194	20933
856.327	20724
856.461	20777
856.595	20682
856.729	20758
856.862	20765
856.996	20815
857.13	20967
857.263	20925
857.397	21009
857.53	20720
857.664	20796
857.797	20883
857.931	20960
858.064	20861
858.197	20918
858.331	20716
858.464	20853
858.597	20716
858.731	20792
858.864	20762
858.997	20708
859.13	20762
859.263	20834
859.396	20937
859.529	20826
859.662	20838
859.795	20864
859.928	20830
860.061	20880
860.194	21024
860.327	20941
860.46	20743
860.592	21024
860.725	20979
860.858	20853
860.99	20864
861.123	20739
861.256	20883
861.388	20765
861.521	21485
861.653	20545
861.786	20545
861.918	20674
862.05	20667
862.183	20701
862.315	20716
862.447	20811
862.58	20609
862.712	20556
862.844	20533
862.976	20571
863.108	20579
863.24	20994
863.372	20355
863.504	20404
863.636	20518
863.768	20594
863.9	20545
864.032	20492
864.164	20484
864.296	20473
864.428	20602
864.559	20640
864.691	20511
864.823	20602
864.954	20469
865.086	20393
865.217	20381
865.349	20450
865.48	20465
865.612	20400
865.743	20484
865.875	20351
866.006	20412
866.137	20457
866.269	20404
866.4	20480
866.531	20347
866.662	20309
866.793	20495
866.924	20419
867.055	20385
867.186	20351
867.317	20343
867.448	20339
867.579	20298
867.71	20362
867.841	20374
867.972	20267
868.103	20237
868.233	20370
868.364	20355
868.495	20377
868.625	20579
868.756	20640
868.886	20621
869.017	20545
869.147	20674
869.278	20655
869.408	20640
869.539	20541
869.669	20636
869.799	20659
869.929	20781
870.06	20804
870.19	20937
870.32	20834
870.45	20895
870.58	20906
870.71	21055
870.84	21142
870.97	20982
871.1	21024
871.23	21256
871.36	21070
871.489	21165
871.619	21169
871.749	21142
871.879	21192
872.008	21310
872.138	21317
872.267	21203
872.397	21081
872.526	21176
872.656	21039
872.785	21058
872.915	21195
873.044	21329
873.173	21161
873.303	21108
873.432	21306
873.561	21310
873.69	21264
873.819	21165
873.948	21408
874.077	21287
874.206	21066
874.335	21256
874.464	21363
874.593	21610
874.722	21405
874.851	21488
874.979	21431
875.108	21458
875.237	21412
875.365	21359
875.494	21405
875.623	21507
875.751	21397
875.88	21572
876.008	21606
876.136	21751
876.265	21888
876.393	22082
876.521	21915
876.65	21918
876.778	21930
876.906	21755
877.034	21789
877.162	21827
877.29	21823
877.418	21918
877.546	21873
877.674	21857
877.802	21785
877.93	21778
878.058	21747
878.185	21675
878.313	21781
878.441	21861
878.568	21625
878.696	21694
878.824	21755
878.951	21892
879.079	22051
879.206	22086
879.333	22006
879.461	21895
879.588	21930
879.715	22086
879.842	21949
879.97	21869
880.097	21625
880.224	21644
880.351	21652
880.478	21823
880.605	21530
880.732	21641
880.859	21812
880.986	21698
881.112	21644
881.239	21511
881.366	21420
881.493	21344
881.619	21157
881.746	21268
881.872	21207
881.999	21146
882.125	21131
882.252	21123
882.378	21119
882.505	21348
882.631	21112
882.757	21028
882.883	21024
883.01	20967
883.136	20899
883.262	20731
883.388	20785
883.514	21058
883.64	20986
883.766	20838
883.892	20693
884.018	20697
884.143	20807
884.269	20872
884.395	20651
884.52	20564
884.646	20682
884.772	20545
884.897	20488
885.023	20514
885.148	20663
885.274	20765
885.399	20663
885.524	20625
885.65	20640
885.775	20587
885.9	20571
886.025	20632
886.15	20708
886.275	20575
886.4	20503
886.525	20495
886.65	20427
886.775	20651
886.9	20632
887.025	20792
887.149	20549
887.274	20518
887.399	20400
887.523	20294
887.648	20358
887.773	20389
887.897	20442
888.021	20408
888.146	20282
888.27	20427
888.395	20450
888.519	20465
888.643	20488
888.767	20396
888.891	20286
889.015	20122
889.139	20256
889.263	20229
889.387	20256
889.511	20267
889.635	20358
889.759	20107
889.883	20142
890.006	20153
890.13	20115
890.254	20012
890.377	20164
890.501	19898
890.624	19894
890.748	19970
890.871	19643
890.995	19693
891.118	19677
891.241	19689
891.364	19814
891.488	19841
891.611	19670
891.734	19658
891.857	19814
891.98	19715
892.103	19871
892.226	19727
892.349	19647
892.471	19590
892.594	19693
892.717	19715
892.839	19521
892.962	19693
893.085	19738
893.207	19734
893.33	19537
893.452	19575
893.575	19772
893.697	19605
893.819	19746
893.941	19795
894.064	19708
894.186	19552
894.308	19616
894.43	19723
894.552	19685
894.674	19734
894.796	19590
894.918	19750
895.04	19594
895.161	19658
895.283	19727
895.405	19616
895.526	19742
895.648	19578
895.769	19700
895.891	19708
896.012	19738
896.134	19689
896.255	19746
896.376	19620
896.498	19689
896.619	19772
896.74	19674
896.861	19582
896.982	20035
897.103	20138
897.224	19989
897.345	19845
897.466	19761
897.587	19841
897.708	19887
897.828	19898
897.949	19776
898.07	19715
898.19	19864
898.311	20008
898.431	19811
898.552	19925
898.672	19925
898.792	19959
898.913	19986
899.033	19757
899.153	19670
899.273	19533
899.393	19438
899.513	19670
899.633	19727
899.753	19658
899.873	19502
899.993	19639
900.113	19575
900.232	19552
900.352	19556
900.472	19639
900.591	19438
900.711	19510
900.83	19327
900.95	19468
901.069	19434
901.189	19274
901.308	19118
901.427	19027
901.546	19008
901.665	18954
901.784	19034
901.904	18859
902.023	18646
902.141	18639
902.26	18589
902.379	18593
902.498	18551
902.617	18479
902.735	18521
902.854	18555
902.973	18426
903.091	18304
903.21	18186
903.328	18228
903.446	18076
903.565	18041
903.683	18022
903.801	17969
903.919	17927
904.038	17996
904.156	17859
904.274	17847
904.392	17836
904.51	17733
904.627	17714
904.745	17824
904.863	17703
904.981	17623
905.098	17509
905.216	17509
905.334	17543
905.451	17501
905.569	17516
905.686	17471
905.803	17444
905.921	17349
906.038	17372
906.155	17235
906.272	17220
906.389	17124
906.506	17109
906.623	16999
906.74	17060
906.857	16949
906.974	16892
907.091	17071
907.208	17010
907.324	17033
907.441	16835
907.557	16729
907.674	16744
907.79	16645
907.907	16748
908.023	16831
908.139	16721
908.256	16592
908.372	16706
908.488	16710
908.604	16565
908.72	16322
908.836	16432
908.952	16459
909.068	16405
909.184	16561
909.3	16443
909.415	16424
909.531	16428
909.647	16177
909.762	16150
909.878	16109
909.993	16158
910.108	16082
910.224	16063
910.339	16105
910.454	16002
910.57	15964
910.685	15816
910.8	16120
910.915	16185
911.03	15934
911.145	15884
911.259	15736
911.374	15671
911.489	15675
911.604	15633
911.718	15515
911.833	15481
911.947	15450
912.062	15386
912.176	15515
912.291	15572
912.405	15496
912.519	15622
912.633	15705
912.748	15534
912.862	15450
912.976	15275
913.09	15207
913.204	15306
913.318	15389
913.431	15405
913.545	15435
913.659	15412
913.772	15401
913.886	15256
914	15135
914.113	15222
914.226	15252
914.34	15161
914.453	15108
914.566	15165
914.68	15036
914.793	15017
914.906	14872
915.019	14807
915.132	14689
915.245	14785
915.358	14762
915.47	14697
915.583	14705
915.696	14743
915.809	14830
915.921	14838
916.034	14754
916.146	14651
916.259	14724
916.371	14754
916.483	14659
916.595	14514
916.708	14697
916.82	14621
916.932	14480
917.044	14545
917.156	14541
917.268	14476
917.38	14393
917.491	14415
917.603	14465
917.715	14427
917.826	14499
917.938	14396
918.049	14237
918.161	14370
918.272	14492
918.384	14530
918.495	14381
918.606	14248
918.717	14145
918.828	14153
918.939	14324
919.05	14164
919.161	14218
919.272	13963
919.383	14084
919.494	14221
919.604	14396
919.715	14221
919.826	14096
919.936	14096
920.047	14191
920.157	14172
920.267	14362
920.378	14134
920.488	14111
920.598	14309
920.708	14465
920.818	14252
920.928	14199
921.038	14507
921.148	14271
921.258	14126
921.368	13997
921.477	13925
921.587	13944
921.697	13784
921.806	13871
921.916	13704
922.025	13556
922.134	13590
922.244	13556
922.353	13575
922.462	13457
922.571	13430
922.68	13263
922.789	13240
922.898	13221
923.007	13247
923.116	13206
923.224	13145
923.333	13126
923.442	13076
923.55	13057
923.659	13107
923.767	12989
923.876	12970
923.984	13042
924.092	12791
924.201	12901
924.309	12947
924.417	12890
924.525	12871
924.633	12913
924.741	13636
924.849	12620
924.956	12886
925.064	12612
925.172	12566
925.279	12612
925.387	12555
925.494	12631
925.602	12779
925.709	12677
925.816	12604
925.924	12525
926.031	12658
926.138	12627
926.245	12654
926.352	12547
926.459	12589
926.566	12688
926.673	12490
926.779	12350
926.886	12330
926.993	12273
927.099	12171
927.206	12175
927.312	12136
927.419	12228
927.525	12136
927.631	12239
927.737	12129
927.843	12068
927.95	12030
928.056	12060
928.162	12034
928.267	12125
928.373	12646
928.479	12136
928.585	11885
928.69	11988
928.796	12087
928.901	11908
929.007	11809
929.112	11882
929.218	11855
929.323	11767
929.428	11821
929.533	11821
929.638	11722
929.743	11764
929.848	11722
929.953	11646
930.058	11600
930.163	11436
930.267	11482
930.372	11585
930.477	11410
930.581	11611
930.685	11448
930.79	11383
930.894	11387
930.998	11372
931.103	11493
931.207	11113
931.311	10915
931.415	10919
931.519	10801
931.623	10698
