Data from test_V78500241_1017.txt Node
Date: Fri Mar 25 15:16:56 CST 2022
User: usil
Spectrometer: V785-0024
Trigger mode: 0
Integration Time (sec): 4.000000E-1
Scans to average: 1
Nonlinearity correction enabled: false
Boxcar width: 0
Storing dark spectrum: false
XAxis mode: Wavelengths
Number of Pixels in Spectrum: 1024
>>>>>Begin Spectral Data<<<<<
801.071	28360
801.214	28360
801.356	28242
801.499	28040
801.641	27945
801.783	27972
801.926	28063
802.068	27949
802.211	27987
802.353	27816
802.496	27690
802.638	27614
802.78	27572
802.923	27812
803.065	27583
803.208	27481
803.35	27519
803.492	27679
803.635	27835
803.777	27686
803.919	27778
804.061	28215
804.204	27800
804.346	27774
804.488	27751
804.63	27774
804.773	27854
804.915	27850
805.057	27922
805.199	27895
805.341	27914
805.483	28135
805.626	27979
805.768	27876
805.91	27934
806.052	27975
806.194	27953
806.336	28093
806.478	28074
806.62	28002
806.762	28204
806.904	28253
807.046	28634
807.188	28424
807.33	28466
807.472	28310
807.614	28455
807.756	28394
807.898	28424
808.04	28173
808.182	28246
808.324	28204
808.465	28421
808.607	28653
808.749	28599
808.891	28778
809.033	28736
809.174	28831
809.316	28641
809.458	28550
809.6	28755
809.741	28713
809.883	28725
810.025	28995
810.166	28980
810.308	28927
810.45	28934
810.591	28854
810.733	28668
810.875	28679
811.016	28550
811.158	28588
811.299	28710
811.441	28953
811.582	28679
811.724	28622
811.865	28687
812.007	28675
812.148	28721
812.29	28729
812.431	28915
812.573	29037
812.714	29151
812.855	29159
812.997	29261
813.138	29292
813.279	29318
813.421	29231
813.562	29056
813.703	29041
813.845	28828
813.986	28725
814.127	28546
814.268	28428
814.41	28421
814.551	28371
814.692	28341
814.833	28322
814.974	28333
815.115	28394
815.256	28192
815.397	28238
815.539	28253
815.68	28177
815.821	28204
815.962	28185
816.103	28093
816.244	27972
816.385	28120
816.526	27968
816.666	27861
816.807	27736
816.948	27774
817.089	27869
817.23	27656
817.371	27724
817.512	27576
817.653	27781
817.793	27701
817.934	27599
818.075	27595
818.216	27728
818.356	27587
818.497	27587
818.638	27469
818.778	27386
818.919	27534
819.06	27473
819.2	27660
819.341	27747
819.481	27694
819.622	27907
819.762	28006
819.903	27937
820.043	27926
820.184	27903
820.324	27827
820.465	27759
820.605	27827
820.746	27663
820.886	27739
821.026	27652
821.167	27842
821.307	28021
821.447	27679
821.588	27568
821.728	27549
821.868	27370
822.008	27135
822.149	27039
822.289	27199
822.429	26868
822.569	26705
822.709	26716
822.849	26693
822.99	26834
823.13	26781
823.27	26648
823.41	26511
823.55	26404
823.69	26575
823.83	26568
823.97	26507
824.11	26339
824.25	26286
824.389	26370
824.529	26446
824.669	26358
824.809	26446
824.949	26518
825.089	26503
825.228	26427
825.368	26225
825.508	26271
825.648	26248
825.787	26195
825.927	26366
826.067	26153
826.206	26176
826.346	26229
826.485	26271
826.625	26195
826.765	26225
826.904	26324
827.044	25944
827.183	26024
827.323	25989
827.462	26001
827.601	25868
827.741	25906
827.88	25932
828.02	25864
828.159	25955
828.298	26046
828.437	26039
828.577	25902
828.716	25993
828.855	25947
828.994	25704
829.134	25658
829.273	25731
829.412	25662
829.551	25597
829.69	25670
829.829	25681
829.968	25784
830.107	25761
830.246	25655
830.385	25655
830.524	25441
830.663	25525
830.802	25350
830.941	25259
831.08	25171
831.219	25415
831.357	25274
831.496	25411
831.635	25400
831.774	25088
831.913	25213
832.051	25038
832.19	25042
832.329	25019
832.467	25004
832.606	25004
832.744	24829
832.883	24981
833.022	25000
833.16	24951
833.299	25190
833.437	25038
833.576	25004
833.714	25015
833.852	25088
833.991	25160
834.129	25122
834.267	25088
834.406	24985
834.544	25027
834.682	25095
834.821	24985
834.959	25304
835.097	24951
835.235	25118
835.373	25080
835.511	24962
835.65	25057
835.788	25008
835.926	24787
836.064	24589
836.202	24715
836.34	24829
836.478	24973
836.615	24928
836.753	24837
836.891	24924
837.029	25019
837.167	24856
837.305	24840
837.443	24627
837.58	24745
837.718	24681
837.856	24650
837.993	24722
838.131	24646
838.269	24551
838.406	24483
838.544	24433
838.681	24346
838.819	24300
838.956	24133
839.094	24102
839.231	24136
839.369	24285
839.506	24559
839.643	24547
839.781	24072
839.918	24133
840.055	24201
840.193	24197
840.33	24216
840.467	24148
840.604	24114
840.742	24357
840.879	23939
841.016	24083
841.153	23958
841.29	24133
841.427	24121
841.564	24171
841.701	23965
841.838	23939
841.975	23954
842.112	24083
842.249	23874
842.385	23885
842.522	24022
842.659	23790
842.796	23733
842.933	23824
843.069	23954
843.206	23836
843.343	23965
843.479	23885
843.616	23874
843.752	23577
843.889	23493
844.025	23714
844.162	23558
844.298	23672
844.435	23661
844.571	23497
844.708	23680
844.844	23786
844.98	23707
845.117	23691
845.253	23608
845.389	23406
845.525	23395
845.661	23455
845.798	23250
845.934	23379
846.07	23254
846.206	23387
846.342	23459
846.478	23315
846.614	23216
846.75	23022
846.886	23102
847.022	23178
847.158	23124
847.294	23128
847.429	23079
847.565	23037
847.701	23269
847.837	22805
847.972	22778
848.108	22824
848.244	22877
848.379	22713
848.515	22645
848.65	22622
848.786	22729
848.921	22672
849.057	22809
849.192	22881
849.328	22626
849.463	22752
849.598	22691
849.734	22508
849.869	22382
850.004	22413
850.14	22550
850.275	22485
850.41	22428
850.545	22375
850.68	22306
850.815	22325
850.95	22322
851.085	22599
851.22	22523
851.355	22478
851.49	22405
851.625	22329
851.76	22337
851.895	22291
852.03	22238
852.165	22363
852.299	22428
852.434	22455
852.569	22375
852.703	22481
852.838	22440
852.973	22512
853.107	22618
853.242	22348
853.376	22261
853.511	22124
853.645	22226
853.78	22299
853.914	22207
854.048	22211
854.183	22158
854.317	22265
854.451	22344
854.585	22215
854.72	22143
854.854	22261
854.988	22185
855.122	22215
855.256	22082
855.39	22223
855.524	22280
855.658	22101
855.792	22215
855.926	22318
856.06	22173
856.194	22337
856.327	22067
856.461	22177
856.595	22226
856.729	22139
856.862	22428
856.996	22196
857.13	22348
857.263	22310
857.397	22226
857.53	22318
857.664	22223
857.797	22276
857.931	22348
858.064	22116
858.197	22268
858.331	22112
858.464	22207
858.597	22051
858.731	22318
858.864	22128
858.997	22276
859.13	22158
859.263	22147
859.396	22223
859.529	22196
859.662	22177
859.795	22207
859.928	22234
860.061	22337
860.194	22413
860.327	22246
860.46	22105
860.592	22272
860.725	22310
860.858	22402
860.99	22280
861.123	21987
861.256	22143
861.388	22280
861.521	22809
861.653	22112
861.786	22025
861.918	22112
862.05	21960
862.183	22150
862.315	22204
862.447	22166
862.58	22097
862.712	21888
862.844	21926
862.976	22029
863.108	21979
863.24	22261
863.372	21945
863.504	21945
863.636	21949
863.768	21918
863.9	21945
864.032	21781
864.164	21876
864.296	21949
864.428	21941
864.559	22017
864.691	21987
864.823	21941
864.954	21972
865.086	21861
865.217	21739
865.349	21766
865.48	21804
865.612	21793
865.743	21911
865.875	21778
866.006	21781
866.137	21819
866.269	21941
866.4	21682
866.531	21682
866.662	21812
866.793	21739
866.924	21755
867.055	21888
867.186	21660
867.317	21728
867.448	21561
867.579	21671
867.71	21698
867.841	21656
867.972	21831
868.103	21618
868.233	21774
868.364	21823
868.495	21880
868.625	22082
868.756	21941
868.886	21861
869.017	21937
869.147	22010
869.278	22074
869.408	21941
869.539	21865
869.669	21991
869.799	22017
869.929	22162
870.06	22013
870.19	22306
870.32	22310
870.45	22322
870.58	22276
870.71	22577
870.84	22500
870.97	22443
871.1	22337
871.23	22478
871.36	22516
871.489	22497
871.619	22527
871.749	22664
871.879	22721
872.008	22599
872.138	22554
872.267	22538
872.397	22382
872.526	22325
872.656	22440
872.785	22257
872.915	22573
873.044	22615
873.173	22599
873.303	22656
873.432	22717
873.561	22687
873.69	22615
873.819	22493
873.948	22694
874.077	22546
874.206	22550
874.335	22538
874.464	22679
874.593	22752
874.722	22736
874.851	22911
874.979	22839
875.108	22824
875.237	22740
875.365	22622
875.494	22755
875.623	22786
875.751	22679
875.88	22816
876.008	22995
876.136	22889
876.265	23239
876.393	23296
876.521	23208
876.65	23284
876.778	23242
876.906	23052
877.034	23204
877.162	23174
877.29	23223
877.418	23117
877.546	23113
877.674	23033
877.802	23079
877.93	23143
878.058	23105
878.185	22869
878.313	23136
878.441	23136
878.568	22984
878.696	23052
878.824	23250
878.951	23250
879.079	23341
879.206	23452
879.333	23239
879.461	23159
879.588	23265
879.715	23185
879.842	23360
879.97	23216
880.097	22957
880.224	22999
880.351	22892
880.478	22942
880.605	22892
880.732	22869
880.859	23258
880.986	22938
881.112	22946
881.239	22755
881.366	22713
881.493	22637
881.619	22500
881.746	22603
881.872	22493
881.999	22413
882.125	22428
882.252	22596
882.378	22417
882.505	22675
882.631	22405
882.757	22352
882.883	22181
883.01	22154
883.136	22173
883.262	22082
883.388	22070
883.514	22211
883.64	22367
883.766	22109
883.892	22010
884.018	21983
884.143	22090
884.269	22131
884.395	21808
884.52	21892
884.646	21759
884.772	21720
884.897	21831
885.023	21880
885.148	21895
885.274	21968
885.399	22032
885.524	21823
885.65	21842
885.775	21930
885.9	21747
886.025	21899
886.15	22010
886.275	21728
886.4	21705
886.525	21743
886.65	21819
886.775	21823
886.9	21842
887.025	22006
887.149	21819
887.274	21606
887.399	21698
887.523	21572
887.648	21485
887.773	21420
887.897	21762
888.021	21682
888.146	21519
888.27	21606
888.395	21698
888.519	21622
888.643	21526
888.767	21724
888.891	21485
889.015	21386
889.139	21408
889.263	21344
889.387	21523
889.511	21580
889.635	21549
889.759	21374
889.883	21420
890.006	21420
890.13	21424
890.254	21260
890.377	21332
890.501	21070
890.624	21081
890.748	21081
890.871	20971
890.995	20906
891.118	20929
891.241	20971
891.364	21005
891.488	21039
891.611	20956
891.734	20967
891.857	20971
891.98	20986
892.103	20929
892.226	20819
892.349	20887
892.471	20792
892.594	20929
892.717	20876
892.839	20834
892.962	20868
893.085	21081
893.207	20952
893.33	20788
893.452	20693
893.575	20994
893.697	20853
893.819	21009
893.941	20891
894.064	20979
894.186	20864
894.308	20811
894.43	20895
894.552	21009
894.674	20971
894.796	20823
894.918	20785
895.04	20804
895.161	20960
895.283	20895
895.405	20880
895.526	20830
895.648	20883
895.769	20895
895.891	20899
896.012	20960
896.134	20891
896.255	20845
896.376	20834
896.498	20785
896.619	20819
896.74	20800
896.861	20941
896.982	21260
897.103	21313
897.224	21176
897.345	21074
897.466	21020
897.587	20967
897.708	21195
897.828	21150
897.949	21009
898.07	20944
898.19	20944
898.311	21222
898.431	21017
898.552	21036
898.672	21028
898.792	21123
898.913	21001
899.033	20880
899.153	20785
899.273	20857
899.393	20887
899.513	20864
899.633	20762
899.753	20823
899.873	20834
899.993	20735
900.113	20792
900.232	20777
900.352	20602
900.472	20720
900.591	20514
900.711	20602
900.83	20419
900.95	20617
901.069	20568
901.189	20446
901.308	20298
901.427	20183
901.546	20084
901.665	20199
901.784	20096
901.904	20035
902.023	19887
902.141	19788
902.26	19609
902.379	19700
902.498	19563
902.617	19582
902.735	19616
902.854	19552
902.973	19510
903.091	19183
903.21	19293
903.328	19358
903.446	19183
903.565	19152
903.683	19069
903.801	19019
903.919	19050
904.038	19038
904.156	18795
904.274	19031
904.392	18924
904.51	18867
904.627	18833
904.745	18985
904.863	18852
904.981	18684
905.098	18528
905.216	18506
905.334	18578
905.451	18498
905.569	18464
905.686	18422
905.803	18532
905.921	18239
906.038	18315
906.155	18224
906.272	18148
906.389	18213
906.506	18178
906.623	18114
906.74	18129
906.857	17912
906.974	17927
907.091	17984
907.208	18216
907.324	17961
907.441	17954
907.557	17802
907.674	17908
907.79	17630
907.907	17680
908.023	17752
908.139	17771
908.256	17630
908.372	17623
908.488	17600
908.604	17497
908.72	17486
908.836	17524
908.952	17391
909.068	17406
909.184	17585
909.3	17387
909.415	17486
909.531	17440
909.647	17265
909.762	17166
909.878	17181
909.993	17239
910.108	17143
910.224	17121
910.339	17200
910.454	16961
910.57	16942
910.685	16850
910.8	17231
910.915	17105
911.03	17010
911.145	16797
911.259	16702
911.374	16736
911.489	16740
911.604	16634
911.718	16497
911.833	16504
911.947	16306
912.062	16432
912.176	16554
912.291	16584
912.405	16447
912.519	16725
912.633	16645
912.748	16436
912.862	16481
912.976	16322
913.09	16242
913.204	16276
913.318	16329
913.431	16265
913.545	16402
913.659	16474
913.772	16363
913.886	16120
914	16169
914.113	16181
914.226	16166
914.34	16166
914.453	15899
914.566	16128
914.68	15930
914.793	15903
914.906	15747
915.019	15728
915.132	15568
915.245	15660
915.358	15743
915.47	15591
915.583	15755
915.696	15812
915.809	15846
915.921	15941
916.034	15591
916.146	15587
916.259	15622
916.371	15633
916.483	15549
916.595	15595
916.708	15450
916.82	15515
916.932	15435
917.044	15500
917.156	15500
917.268	15291
917.38	15386
917.491	15351
917.603	15306
917.715	15367
917.826	15412
917.938	15283
918.049	15127
918.161	15393
918.272	15386
918.384	15443
918.495	15264
918.606	15150
918.717	15032
918.828	15051
918.939	15032
919.05	14937
919.161	15036
919.272	14891
919.383	15051
919.494	15089
919.604	15211
919.715	15108
919.826	14960
919.936	15085
920.047	15138
920.157	15036
920.267	15142
920.378	15009
920.488	15005
920.598	15154
920.708	15283
920.818	15085
920.928	15100
921.038	15260
921.148	15260
921.258	14910
921.368	14883
921.477	14826
921.587	14693
921.697	14663
921.806	14792
921.916	14625
922.025	14480
922.134	14400
922.244	14309
922.353	14476
922.462	14294
922.571	14168
922.68	14043
922.789	14058
922.898	14096
923.007	14058
923.116	14024
923.224	13974
923.333	13974
923.442	13902
923.55	13890
923.659	13795
923.767	13940
923.876	13811
923.984	13864
924.092	13677
924.201	13769
924.309	13734
924.417	13715
924.525	13651
924.633	13620
924.741	14575
924.849	13438
924.956	13548
925.064	13552
925.172	13365
925.279	13415
925.387	13392
925.494	13449
925.602	13518
925.709	13388
925.816	13396
925.924	13388
926.031	13422
926.138	13354
926.245	13403
926.352	13221
926.459	13377
926.566	13358
926.673	13270
926.779	13072
926.886	13046
926.993	12935
927.099	12947
927.206	12905
927.312	12932
927.419	12909
927.525	12977
927.631	13050
927.737	12913
927.843	12734
927.95	12745
928.056	12711
928.162	12730
928.267	12814
928.373	13373
928.479	12867
928.585	12585
928.69	12753
928.796	12741
928.901	12540
929.007	12536
929.112	12639
929.218	12555
929.323	12528
929.428	12448
929.533	12726
929.638	12486
929.743	12323
929.848	12532
929.953	12403
930.058	12319
930.163	12163
930.267	12213
930.372	12308
930.477	12114
930.581	12403
930.685	12323
930.79	11999
930.894	12019
930.998	11954
931.103	12140
931.207	11752
931.311	11608
931.415	11680
931.519	11474
931.623	11379
