Data from test_V78500241_2106.txt Node
Date: Fri Mar 25 15:24:31 CST 2022
User: usil
Spectrometer: V785-0024
Trigger mode: 0
Integration Time (sec): 4.000000E-1
Scans to average: 1
Nonlinearity correction enabled: false
Boxcar width: 0
Storing dark spectrum: false
XAxis mode: Wavelengths
Number of Pixels in Spectrum: 1024
>>>>>Begin Spectral Data<<<<<
801.071	27968
801.214	27895
801.356	27610
801.499	27606
801.641	27427
801.783	27542
801.926	27420
802.068	27374
802.211	27272
802.353	27332
802.496	27264
802.638	27188
802.78	27089
802.923	27032
803.065	27028
803.208	27070
803.35	26971
803.492	27184
803.635	27233
803.777	27188
803.919	27272
804.061	27580
804.204	27355
804.346	27127
804.488	27222
804.63	27283
804.773	27230
804.915	27378
805.057	27329
805.199	27241
805.341	27329
805.483	27287
805.626	27325
805.768	27256
805.91	27496
806.052	27313
806.194	27378
806.336	27492
806.478	27439
806.62	27348
806.762	27530
806.904	27652
807.046	27800
807.188	27728
807.33	27861
807.472	27876
807.614	27819
807.756	27804
807.898	27739
808.04	27709
808.182	27698
808.324	27591
808.465	27770
808.607	27949
808.749	28055
808.891	28135
809.033	28230
809.174	28139
809.316	27918
809.458	28010
809.6	28040
809.741	28105
809.883	28124
810.025	28291
810.166	28329
810.308	28257
810.45	28242
810.591	28230
810.733	28109
810.875	27953
811.016	27800
811.158	27991
811.299	28074
811.441	28169
811.582	28112
811.724	28128
811.865	27911
812.007	27987
812.148	28055
812.29	27987
812.431	28314
812.573	28428
812.714	28371
812.855	28481
812.997	28793
813.138	28702
813.279	28557
813.421	28519
813.562	28512
813.703	28234
813.845	28337
813.986	27930
814.127	27827
814.268	27694
814.41	27800
814.551	27667
814.692	27816
814.833	27857
814.974	27728
815.115	27808
815.256	27652
815.397	27599
815.539	27599
815.68	27538
815.821	27515
815.962	27485
816.103	27686
816.244	27348
816.385	27249
816.526	27401
816.666	27123
816.807	26921
816.948	27074
817.089	27169
817.23	27199
817.371	27024
817.512	26937
817.653	26990
817.793	26990
817.934	26982
818.075	26849
818.216	26967
818.356	26979
818.497	26925
818.638	26758
818.778	26640
818.919	26842
819.06	26697
819.2	26910
819.341	27024
819.481	27051
819.622	27218
819.762	27370
819.903	27260
820.043	27142
820.184	27108
820.324	27237
820.465	27237
820.605	26982
820.746	27070
820.886	27154
821.026	27055
821.167	27074
821.307	26975
821.447	27028
821.588	26842
821.728	26819
821.868	26606
822.008	26461
822.149	26530
822.289	26385
822.429	26115
822.569	26138
822.709	26111
822.849	26088
822.99	25970
823.13	25966
823.27	26088
823.41	25715
823.55	25727
823.69	25769
823.83	25776
823.97	25734
824.11	25567
824.25	25559
824.389	25563
824.529	25601
824.669	25571
824.809	25658
824.949	25757
825.089	25750
825.228	25628
825.368	25483
825.508	25388
825.648	25590
825.787	25419
825.927	25476
826.067	25464
826.206	25388
826.346	25556
826.485	25552
826.625	25316
826.765	25677
826.904	25491
827.044	25213
827.183	25301
827.323	25304
827.462	25156
827.601	25118
827.741	25084
827.88	25304
828.02	25004
828.159	25118
828.298	25114
828.437	25164
828.577	25008
828.716	25369
828.855	25000
828.994	24882
829.134	24867
829.273	25031
829.412	24897
829.551	24897
829.69	24913
829.829	24882
829.968	24954
830.107	24878
830.246	24886
830.385	24894
830.524	24859
830.663	24692
830.802	24620
830.941	24551
831.08	24471
831.219	24658
831.357	24627
831.496	24749
831.635	24540
831.774	24300
831.913	24429
832.051	24228
832.19	24399
832.329	24319
832.467	24155
832.606	24136
832.744	24060
832.883	24117
833.022	23969
833.16	24060
833.299	24190
833.437	24216
833.576	24174
833.714	24209
833.852	24171
833.991	24338
834.129	24232
834.267	24285
834.406	24273
834.544	24232
834.682	24083
834.821	24205
834.959	24327
835.097	24091
835.235	24414
835.373	24266
835.511	24201
835.65	24152
835.788	24053
835.926	23973
836.064	23851
836.202	23916
836.34	24098
836.478	24018
836.615	24045
836.753	24049
836.891	24041
837.029	24053
837.167	23999
837.305	23961
837.443	23946
837.58	23851
837.718	23916
837.856	23916
837.993	23745
838.131	23889
838.269	23786
838.406	23783
838.544	23836
838.681	23516
838.819	23520
838.956	23440
839.094	23315
839.231	23467
839.369	23539
839.506	23764
839.643	23566
839.781	23421
839.918	23178
840.055	23387
840.193	23455
840.33	23056
840.467	23269
840.604	23189
840.742	23509
840.879	23220
841.016	23273
841.153	23231
841.29	23307
841.427	23147
841.564	23303
841.701	23322
841.838	23299
841.975	23109
842.112	23273
842.249	22961
842.385	23006
842.522	23239
842.659	23060
842.796	23071
842.933	23098
843.069	23067
843.206	22980
843.343	23185
843.479	23018
843.616	22972
843.752	22790
843.889	22919
844.025	22946
844.162	22809
844.298	22812
844.435	22839
844.571	22725
844.708	22771
844.844	22946
844.98	22889
845.117	22930
845.253	22850
845.389	22771
845.525	22622
845.661	22653
845.798	22508
845.934	22615
846.07	22535
846.206	22607
846.342	22641
846.478	22557
846.614	22322
846.75	22211
846.886	22211
847.022	22379
847.158	22280
847.294	22314
847.429	22341
847.565	22223
847.701	22474
847.837	22021
847.972	21994
848.108	22082
848.244	22158
848.379	21956
848.515	21911
848.65	21759
848.786	21876
848.921	21892
849.057	21964
849.192	21930
849.328	21846
849.463	21846
849.598	21701
849.734	21797
849.869	21557
850.004	21564
850.14	21629
850.275	21622
850.41	21389
850.545	21561
850.68	21469
850.815	21538
850.95	21583
851.085	21652
851.22	21656
851.355	21618
851.49	21599
851.625	21637
851.76	21587
851.895	21553
852.03	21401
852.165	21519
852.299	21553
852.434	21762
852.569	21682
852.703	21515
852.838	21679
852.973	21812
853.107	21793
853.242	21599
853.376	21325
853.511	21275
853.645	21428
853.78	21606
853.914	21542
854.048	21378
854.183	21382
854.317	21496
854.451	21633
854.585	21477
854.72	21401
854.854	21504
854.988	21329
855.122	21313
855.256	21260
855.39	21431
855.524	21401
855.658	21408
855.792	21500
855.926	21488
856.06	21439
856.194	21553
856.327	21466
856.461	21363
856.595	21511
856.729	21408
856.862	21633
856.996	21496
857.13	21523
857.263	21572
857.397	21542
857.53	21351
857.664	21344
857.797	21469
857.931	21523
858.064	21481
858.197	21439
858.331	21424
858.464	21424
858.597	21397
858.731	21504
858.864	21363
858.997	21370
859.13	21386
859.263	21492
859.396	21408
859.529	21462
859.662	21340
859.795	21450
859.928	21477
860.061	21481
860.194	21667
860.327	21500
860.46	21534
860.592	21511
860.725	21553
860.858	21526
860.99	21393
861.123	21336
861.256	21340
861.388	21450
861.521	22128
861.653	21355
861.786	21336
861.918	21173
862.05	21344
862.183	21279
862.315	21348
862.447	21443
862.58	21336
862.712	21184
862.844	21085
862.976	21161
863.108	21211
863.24	21618
863.372	21013
863.504	21169
863.636	21047
863.768	21192
863.9	21203
864.032	21096
864.164	21062
864.296	21237
864.428	21165
864.559	21195
864.691	21135
864.823	21142
864.954	21020
865.086	21081
865.217	21024
865.349	21039
865.48	21024
865.612	21070
865.743	21112
865.875	21058
866.006	21062
866.137	21013
866.269	20986
866.4	20994
866.531	20925
866.662	20998
866.793	20952
866.924	20986
867.055	21020
867.186	21009
867.317	20914
867.448	21001
867.579	20910
867.71	20899
867.841	20853
867.972	20910
868.103	20986
868.233	20967
868.364	20990
868.495	21043
868.625	21108
868.756	21336
868.886	21272
869.017	21252
869.147	21245
869.278	21287
869.408	21264
869.539	21176
869.669	21207
869.799	21245
869.929	21363
870.06	21336
870.19	21492
870.32	21538
870.45	21599
870.58	21576
870.71	21804
870.84	21637
870.97	21576
871.1	21507
871.23	21679
871.36	21743
871.489	21679
871.619	21747
871.749	21713
871.879	21690
872.008	21827
872.138	21720
872.267	21781
872.397	21831
872.526	21652
872.656	21724
872.785	21648
872.915	21918
873.044	21766
873.173	21857
873.303	21892
873.432	21895
873.561	21972
873.69	21751
873.819	21789
873.948	21926
874.077	21892
874.206	21835
874.335	21827
874.464	21937
874.593	21941
874.722	22048
874.851	22070
874.979	22002
875.108	22017
875.237	22025
875.365	21827
875.494	21937
875.623	22074
875.751	21983
875.88	22101
876.008	22143
876.136	22272
876.265	22436
876.393	22542
876.521	22497
876.65	22386
876.778	22432
876.906	22310
877.034	22535
877.162	22413
877.29	22344
877.418	22367
877.546	22356
877.674	22375
877.802	22390
877.93	22557
878.058	22375
878.185	22246
878.313	22295
878.441	22299
878.568	22257
878.696	22257
878.824	22356
878.951	22371
879.079	22428
879.206	22744
879.333	22485
879.461	22428
879.588	22531
879.715	22630
879.842	22675
879.97	22497
880.097	22150
880.224	22097
880.351	22120
880.478	22280
880.605	22078
880.732	22215
880.859	22333
880.986	22303
881.112	22120
881.239	22082
881.366	21918
881.493	21964
881.619	21800
881.746	21835
881.872	21660
881.999	21724
882.125	21778
882.252	21743
882.378	21747
882.505	21930
882.631	21576
882.757	21519
882.883	21648
883.01	21424
883.136	21416
883.262	21393
883.388	21351
883.514	21545
883.64	21469
883.766	21393
883.892	21260
884.018	21313
884.143	21363
884.269	21530
884.395	21199
884.52	21066
884.646	21161
884.772	20982
884.897	20944
885.023	21199
885.148	21119
885.274	21233
885.399	21207
885.524	21112
885.65	21058
885.775	21051
885.9	21135
886.025	21173
886.15	21184
886.275	21036
886.4	21051
886.525	21116
886.65	21138
886.775	21077
886.9	21176
887.025	21245
887.149	21074
887.274	20842
887.399	20880
887.523	20937
887.648	20853
887.773	20807
887.897	20941
888.021	21020
888.146	20868
888.27	20963
888.395	20937
888.519	20872
888.643	20804
888.767	20910
888.891	20785
889.015	20697
889.139	20712
889.263	20590
889.387	20804
889.511	20830
889.635	20777
889.759	20743
889.883	20670
890.006	20613
890.13	20777
890.254	20663
890.377	20651
890.501	20488
890.624	20499
890.748	20492
890.871	20317
890.995	20233
891.118	20256
891.241	20278
891.364	20202
891.488	20492
891.611	20225
891.734	20191
891.857	20336
891.98	20233
892.103	20199
892.226	20202
892.349	20138
892.471	20126
892.594	20126
892.717	20286
892.839	20176
892.962	20168
893.085	20195
893.207	20145
893.33	20039
893.452	20153
893.575	20202
893.697	20054
893.819	20237
893.941	20248
894.064	20301
894.186	20043
894.308	20050
894.43	20214
894.552	20355
894.674	20282
894.796	20031
894.918	20225
895.04	20122
895.161	20214
895.283	20122
895.405	20073
895.526	20149
895.648	20096
895.769	20084
895.891	20252
896.012	20180
896.134	20237
896.255	20107
896.376	20065
896.498	20122
896.619	20145
896.74	20115
896.861	20195
896.982	20541
897.103	20651
897.224	20393
897.345	20374
897.466	20336
897.587	20492
897.708	20541
897.828	20408
897.949	20355
898.07	20278
898.19	20374
898.311	20431
898.431	20339
898.552	20328
898.672	20324
898.792	20480
898.913	20434
899.033	20309
899.153	20153
899.273	20145
899.393	20164
899.513	20168
899.633	20096
899.753	20221
899.873	20119
899.993	20126
900.113	19974
900.232	20225
900.352	20145
900.472	20024
900.591	20039
900.711	19970
900.83	19795
900.95	19989
901.069	19947
901.189	19852
901.308	19605
901.427	19525
901.546	19582
901.665	19575
901.784	19502
901.904	19449
902.023	19270
902.141	19099
902.26	19099
902.379	19088
902.498	19160
902.617	19072
902.735	18966
902.854	18932
902.973	18966
903.091	18760
903.21	18772
903.328	18688
903.446	18570
903.565	18547
903.683	18525
903.801	18479
903.919	18414
904.038	18471
904.156	18300
904.274	18334
904.392	18330
904.51	18205
904.627	18247
904.745	18403
904.863	18292
904.981	18030
905.098	17988
905.216	17980
905.334	17988
905.451	18083
905.569	17920
905.686	17958
905.803	17908
905.921	17718
906.038	17809
906.155	17764
906.272	17558
906.389	17687
906.506	17463
906.623	17455
906.74	17558
906.857	17410
906.974	17455
907.091	17592
907.208	17608
907.324	17547
907.441	17395
907.557	17258
907.674	17178
907.79	17033
907.907	17132
908.023	17239
908.139	17124
908.256	17121
908.372	17098
908.488	17117
908.604	16908
908.72	16854
908.836	16984
908.952	16866
909.068	16904
909.184	16953
909.3	16892
909.415	17014
909.531	16938
909.647	16653
909.762	16649
909.878	16653
909.993	16672
910.108	16641
910.224	16615
910.339	16493
910.454	16413
910.57	16344
910.685	16371
910.8	16660
910.915	16478
911.03	16329
911.145	16154
911.259	16177
911.374	16253
911.489	16207
911.604	16124
911.718	15998
911.833	15987
911.947	15785
912.062	15747
912.176	15888
912.291	15941
912.405	15892
912.519	16192
912.633	16017
912.748	15949
912.862	15949
912.976	15846
913.09	15572
913.204	15751
913.318	15728
913.431	15865
913.545	15835
913.659	15789
913.772	15694
913.886	15584
914	15549
914.113	15614
914.226	15667
914.34	15553
914.453	15336
914.566	15644
914.68	15473
914.793	15325
914.906	15279
915.019	15226
915.132	15119
915.245	15135
915.358	15226
915.47	15222
915.583	15104
915.696	15165
915.809	15317
915.921	15325
916.034	15112
916.146	15142
916.259	15077
916.371	15222
916.483	15131
916.595	14975
916.708	14963
916.82	14990
916.932	15001
917.044	14899
917.156	14800
917.268	14883
917.38	14769
917.491	14842
917.603	14823
917.715	14895
917.826	14971
917.938	14796
918.049	14731
918.161	14705
918.272	14872
918.384	14925
918.495	14815
918.606	14651
918.717	14568
918.828	14590
918.939	14514
919.05	14484
919.161	14545
919.272	14385
919.383	14473
919.494	14530
919.604	14811
919.715	14537
919.826	14518
919.936	14533
920.047	14621
920.157	14480
920.267	14705
920.378	14526
920.488	14393
920.598	14701
920.708	14830
920.818	14632
920.928	14670
921.038	14895
921.148	14796
921.258	14408
921.368	14419
921.477	14332
921.587	14168
921.697	14218
921.806	14278
921.916	14096
922.025	14020
922.134	13989
922.244	13814
922.353	13932
922.462	13925
922.571	13681
922.68	13525
922.789	13575
922.898	13605
923.007	13514
923.116	13533
923.224	13575
923.333	13552
923.442	13411
923.55	13365
923.659	13453
923.767	13434
923.876	13365
923.984	13422
924.092	13335
924.201	13289
924.309	13320
924.417	13274
924.525	13183
924.633	13110
924.741	13944
924.849	13061
924.956	13171
925.064	13061
925.172	12916
925.279	13034
925.387	13027
925.494	12890
925.602	13122
925.709	13027
925.816	12954
925.924	12909
926.031	12928
926.138	12894
926.245	12996
926.352	12791
926.459	12947
926.566	12886
926.673	12852
926.779	12688
926.886	12623
926.993	12620
927.099	12555
927.206	12494
927.312	12502
927.419	12593
927.525	12566
927.631	12608
927.737	12422
927.843	12464
927.95	12296
928.056	12308
928.162	12407
928.267	12361
928.373	12958
928.479	12433
928.585	12277
928.69	12300
928.796	12365
928.901	12197
929.007	12133
929.112	12270
929.218	12140
929.323	12098
929.428	12140
929.533	12220
929.638	12095
929.743	12019
929.848	12072
929.953	11942
930.058	11863
930.163	11714
930.267	11855
930.372	11920
930.477	11756
930.581	11908
930.685	11805
930.79	11672
930.894	11684
930.998	11638
931.103	11729
931.207	11410
931.311	11334
931.415	11223
931.519	11041
931.623	10999
