Data from test_V78500241_666.txt Node
Date: Fri Mar 25 15:14:29 CST 2022
User: usil
Spectrometer: V785-0024
Trigger mode: 0
Integration Time (sec): 4.000000E-1
Scans to average: 1
Nonlinearity correction enabled: false
Boxcar width: 0
Storing dark spectrum: false
XAxis mode: Wavelengths
Number of Pixels in Spectrum: 1024
>>>>>Begin Spectral Data<<<<<
801.071	27979
801.214	27808
801.356	27561
801.499	27515
801.641	27435
801.783	27572
801.926	27469
802.068	27382
802.211	27294
802.353	27359
802.496	27093
802.638	27062
802.78	27062
802.923	27024
803.065	27108
803.208	27146
803.35	27020
803.492	27180
803.635	27283
803.777	27214
803.919	27264
804.061	27557
804.204	27325
804.346	27317
804.488	27157
804.63	27264
804.773	27104
804.915	27241
805.057	27325
805.199	27294
805.341	27355
805.483	27329
805.626	27447
805.768	27131
805.91	27340
806.052	27515
806.194	27355
806.336	27614
806.478	27492
806.62	27329
806.762	27614
806.904	27720
807.046	27914
807.188	27785
807.33	27660
807.472	27983
807.614	27713
807.756	27819
807.898	27770
808.04	27671
808.182	27576
808.324	27789
808.465	27648
808.607	27964
808.749	27835
808.891	28192
809.033	28188
809.174	28101
809.316	28044
809.458	27998
809.6	28074
809.741	28059
809.883	28109
810.025	28356
810.166	28371
810.308	28348
810.45	28299
810.591	28253
810.733	28177
810.875	27968
811.016	27937
811.158	27907
811.299	28158
811.441	28219
811.582	28120
811.724	28067
811.865	28021
812.007	28017
812.148	28090
812.29	28109
812.431	28272
812.573	28508
812.714	28409
812.855	28744
812.997	28763
813.138	28801
813.279	28858
813.421	28637
813.562	28607
813.703	28367
813.845	28303
813.986	28059
814.127	27930
814.268	27838
814.41	27888
814.551	27648
814.692	27800
814.833	27793
814.974	27690
815.115	27694
815.256	27587
815.397	27507
815.539	27492
815.68	27667
815.821	27397
815.962	27534
816.103	27507
816.244	27530
816.385	27507
816.526	27291
816.666	27142
816.807	27077
816.948	27165
817.089	27169
817.23	27108
817.371	27100
817.512	27188
817.653	26990
817.793	26887
817.934	27017
818.075	27116
818.216	27093
818.356	26929
818.497	26937
818.638	26727
818.778	26754
818.919	26724
819.06	27032
819.2	26990
819.341	27131
819.481	26975
819.622	27249
819.762	27538
819.903	27279
820.043	27268
820.184	26990
820.324	27131
820.465	27272
820.605	27036
820.746	27272
820.886	27074
821.026	27119
821.167	27154
821.307	27211
821.447	27108
821.588	26902
821.728	26952
821.868	26682
822.008	26598
822.149	26530
822.289	26377
822.429	26248
822.569	26202
822.709	26142
822.849	26046
822.99	26077
823.13	26039
823.27	25978
823.41	25887
823.55	25734
823.69	25837
823.83	25830
823.97	25841
824.11	25552
824.25	25472
824.389	25662
824.529	25715
824.669	25628
824.809	25772
824.949	25723
825.089	25693
825.228	25704
825.368	25552
825.508	25510
825.648	25556
825.787	25563
825.927	25540
826.067	25529
826.206	25449
826.346	25594
826.485	25510
826.625	25540
826.765	25563
826.904	25586
827.044	25228
827.183	25297
827.323	25122
827.462	25194
827.601	25137
827.741	25400
827.88	25285
828.02	25148
828.159	25320
828.298	25270
828.437	25339
828.577	25209
828.716	25324
828.855	25301
828.994	24973
829.134	25012
829.273	24935
829.412	24859
829.551	24715
829.69	24886
829.829	24772
829.968	24977
830.107	25004
830.246	24981
830.385	24905
830.524	24719
830.663	24798
830.802	24566
830.941	24620
831.08	24528
831.219	24791
831.357	24566
831.496	24726
831.635	24623
831.774	24456
831.913	24566
832.051	24456
832.19	24277
832.329	24441
832.467	24338
832.606	24239
832.744	24266
832.883	24235
833.022	24243
833.16	24285
833.299	24292
833.437	24296
833.576	24414
833.714	24281
833.852	24380
833.991	24334
834.129	24346
834.267	24369
834.406	24372
834.544	24292
834.682	24296
834.821	24251
834.959	24479
835.097	24273
835.235	24353
835.373	24395
835.511	24258
835.65	24194
835.788	24194
835.926	23988
836.064	24026
836.202	23942
836.34	24190
836.478	24205
836.615	24155
836.753	24022
836.891	24289
837.029	24201
837.167	24083
837.305	24057
837.443	23992
837.58	23961
837.718	24163
837.856	24057
837.993	23969
838.131	23874
838.269	23851
838.406	23786
838.544	23718
838.681	23665
838.819	23524
838.956	23486
839.094	23505
839.231	23573
839.369	23547
839.506	23897
839.643	23592
839.781	23573
839.918	23345
840.055	23524
840.193	23501
840.33	23379
840.467	23425
840.604	23459
840.742	23589
840.879	23212
841.016	23288
841.153	23254
841.29	23360
841.427	23383
841.564	23452
841.701	23299
841.838	23273
841.975	23189
842.112	23250
842.249	23079
842.385	23048
842.522	23258
842.659	23151
842.796	23189
842.933	23086
843.069	23060
843.206	23132
843.343	23239
843.479	23136
843.616	23124
843.752	22980
843.889	22957
844.025	23041
844.162	22938
844.298	22847
844.435	22790
844.571	22908
844.708	22866
844.844	23052
844.98	23075
845.117	23071
845.253	22858
845.389	22622
845.525	22771
845.661	22713
845.798	22573
845.934	22713
846.07	22611
846.206	22687
846.342	22733
846.478	22603
846.614	22447
846.75	22337
846.886	22382
847.022	22386
847.158	22261
847.294	22352
847.429	22451
847.565	22348
847.701	22634
847.837	22143
847.972	21987
848.108	22265
848.244	22223
848.379	22002
848.515	22029
848.65	21949
848.786	21968
848.921	21945
849.057	22169
849.192	22082
849.328	21926
849.463	21903
849.598	21934
849.734	21861
849.869	21789
850.004	21812
850.14	21762
850.275	21751
850.41	21694
850.545	21663
850.68	21713
850.815	21667
850.95	21610
851.085	21911
851.22	21854
851.355	21766
851.49	21709
851.625	21637
851.76	21667
851.895	21633
852.03	21618
852.165	21705
852.299	21785
852.434	21789
852.569	21686
852.703	21789
852.838	21755
852.973	21899
853.107	21762
853.242	21637
853.376	21633
853.511	21515
853.645	21530
853.78	21606
853.914	21564
854.048	21515
854.183	21515
854.317	21515
854.451	21648
854.585	21462
854.72	21564
854.854	21568
854.988	21595
855.122	21576
855.256	21329
855.39	21428
855.524	21549
855.658	21420
855.792	21526
855.926	21507
856.06	21576
856.194	21580
856.327	21435
856.461	21420
856.595	21397
856.729	21542
856.862	21663
856.996	21515
857.13	21610
857.263	21572
857.397	21652
857.53	21580
857.664	21538
857.797	21523
857.931	21717
858.064	21485
858.197	21629
858.331	21538
858.464	21469
858.597	21294
858.731	21450
858.864	21443
858.997	21519
859.13	21591
859.263	21534
859.396	21660
859.529	21511
859.662	21473
859.795	21481
859.928	21401
860.061	21663
860.194	21682
860.327	21599
860.46	21583
860.592	21785
860.725	21690
860.858	21591
860.99	21549
861.123	21428
861.256	21523
861.388	21580
861.521	22291
861.653	21500
861.786	21382
861.918	21416
862.05	21439
862.183	21416
862.315	21424
862.447	21439
862.58	21386
862.712	21150
862.844	21070
862.976	21336
863.108	21260
863.24	21701
863.372	21211
863.504	21214
863.636	21355
863.768	21264
863.9	21325
864.032	21230
864.164	21222
864.296	21298
864.428	21408
864.559	21359
864.691	21340
864.823	21222
864.954	21306
865.086	21245
865.217	21131
865.349	21020
865.48	21096
865.612	21241
865.743	21298
865.875	21135
866.006	21146
866.137	21108
866.269	21112
866.4	21157
866.531	21051
866.662	21001
866.793	21058
866.924	21165
867.055	21043
867.186	21096
867.317	21039
867.448	21043
867.579	21093
867.71	21112
867.841	21077
867.972	21020
868.103	20956
868.233	21024
868.364	21077
868.495	21169
868.625	21272
868.756	21329
868.886	21256
869.017	21424
869.147	21329
869.278	21393
869.408	21393
869.539	21287
869.669	21355
869.799	21405
869.929	21424
870.06	21359
870.19	21709
870.32	21648
870.45	21648
870.58	21652
870.71	21808
870.84	21800
870.97	21667
871.1	21686
871.23	21838
871.36	21873
871.489	21770
871.619	21953
871.749	22013
871.879	21899
872.008	22010
872.138	21892
872.267	21846
872.397	21762
872.526	21759
872.656	21656
872.785	21599
872.915	21937
873.044	22105
873.173	21812
873.303	21926
873.432	21964
873.561	22128
873.69	21949
873.819	21888
873.948	21968
874.077	22044
874.206	22006
874.335	21850
874.464	21956
874.593	22284
874.722	22078
874.851	22211
874.979	22162
875.108	22280
875.237	22097
875.365	22013
875.494	22124
875.623	22242
875.751	22097
875.88	22169
876.008	22226
876.136	22371
876.265	22470
876.393	22626
876.521	22615
876.65	22607
876.778	22554
876.906	22550
877.034	22497
877.162	22538
877.29	22451
877.418	22550
877.546	22497
877.674	22382
877.802	22596
877.93	22451
878.058	22337
878.185	22424
878.313	22413
878.441	22455
878.568	22306
878.696	22542
878.824	22436
878.951	22382
879.079	22672
879.206	22729
879.333	22599
879.461	22512
879.588	22592
879.715	22626
879.842	22706
879.97	22565
880.097	22329
880.224	22367
880.351	22386
880.478	22253
880.605	22185
880.732	22211
880.859	22489
880.986	22303
881.112	22295
881.239	22226
881.366	22090
881.493	21941
881.619	21854
881.746	22013
881.872	21835
881.999	21873
882.125	21857
882.252	21850
882.378	21789
882.505	21827
882.631	21679
882.757	21663
882.883	21580
883.01	21500
883.136	21428
883.262	21386
883.388	21500
883.514	21557
883.64	21679
883.766	21450
883.892	21302
884.018	21355
884.143	21568
884.269	21675
884.395	21325
884.52	21237
884.646	21294
884.772	21066
884.897	21055
885.023	21161
885.148	21199
885.274	21302
885.399	21351
885.524	21184
885.65	21214
885.775	21222
885.9	21256
886.025	21428
886.15	21313
886.275	21108
886.4	21066
886.525	21070
886.65	21112
886.775	21085
886.9	21348
887.025	21351
887.149	21294
887.274	21009
887.399	21001
887.523	20925
887.648	21039
887.773	20895
887.897	21127
888.021	20994
888.146	20861
888.27	21104
888.395	20971
888.519	20937
888.643	21108
888.767	21043
888.891	20883
889.015	20842
889.139	20826
889.263	20792
889.387	20826
889.511	21005
889.635	20895
889.759	20769
889.883	20769
890.006	20727
890.13	20872
890.254	20796
890.377	20663
890.501	20526
890.624	20469
890.748	20560
890.871	20469
890.995	20252
891.118	20271
891.241	20381
891.364	20377
891.488	20537
891.611	20252
891.734	20393
891.857	20442
891.98	20332
892.103	20396
892.226	20347
892.349	20313
892.471	20157
892.594	20252
892.717	20305
892.839	20218
892.962	20153
893.085	20244
893.207	20187
893.33	20069
893.452	20176
893.575	20145
893.697	20195
893.819	20381
893.941	20412
894.064	20351
894.186	20233
894.308	20187
894.43	20377
894.552	20362
894.674	20419
894.796	20161
894.918	20195
895.04	20214
895.161	20385
895.283	20339
895.405	20153
895.526	20202
895.648	20225
895.769	20180
895.891	20324
896.012	20301
896.134	20210
896.255	20248
896.376	20077
896.498	20263
896.619	20240
896.74	20191
896.861	20161
896.982	20499
897.103	20632
897.224	20412
897.345	20438
897.466	20442
897.587	20381
897.708	20541
897.828	20427
897.949	20389
898.07	20252
898.19	20347
898.311	20434
898.431	20347
898.552	20313
898.672	20476
898.792	20476
898.913	20442
899.033	20199
899.153	20263
899.273	20180
899.393	20172
899.513	20157
899.633	20142
899.753	20229
899.873	20202
899.993	20191
900.113	20176
900.232	20206
900.352	20107
900.472	20100
900.591	20005
900.711	19951
900.83	19894
900.95	19997
901.069	20058
901.189	19837
901.308	19708
901.427	19472
901.546	19624
901.665	19518
901.784	19578
901.904	19358
902.023	19324
902.141	19259
902.26	19057
902.379	19133
902.498	19175
902.617	18993
902.735	19057
902.854	19057
902.973	18970
903.091	18772
903.21	18726
903.328	18684
903.446	18623
903.565	18494
903.683	18494
903.801	18407
903.919	18483
904.038	18456
904.156	18338
904.274	18372
904.392	18308
904.51	18174
904.627	18304
904.745	18334
904.863	18315
904.981	18125
905.098	18019
905.216	18091
905.334	18003
905.451	17973
905.569	17961
905.686	17961
905.803	17942
905.921	17733
906.038	17931
906.155	17764
906.272	17687
906.389	17790
906.506	17558
906.623	17486
906.74	17524
906.857	17493
906.974	17471
907.091	17558
907.208	17672
907.324	17467
907.441	17425
907.557	17208
907.674	17170
907.79	17170
907.907	17124
908.023	17269
908.139	17174
908.256	17174
908.372	17105
908.488	17136
908.604	16984
908.72	16889
908.836	16942
908.952	17018
909.068	16946
909.184	17022
909.3	16968
909.415	17056
909.531	17037
909.647	16774
909.762	16790
909.878	16611
909.993	16668
910.108	16519
910.224	16596
910.339	16599
910.454	16569
910.57	16474
910.685	16447
910.8	16645
910.915	16664
911.03	16508
911.145	16280
911.259	16249
911.374	16352
911.489	16192
911.604	16169
911.718	15964
911.833	16063
911.947	15892
912.062	15918
912.176	15937
912.291	16105
912.405	15972
912.519	16120
912.633	16200
912.748	16059
912.862	16029
912.976	15857
913.09	15766
913.204	15831
913.318	15850
913.431	15956
913.545	15945
913.659	15907
913.772	15816
913.886	15709
914	15694
914.113	15781
914.226	15724
914.34	15682
914.453	15492
914.566	15660
914.68	15542
914.793	15523
914.906	15336
915.019	15344
915.132	15211
915.245	15241
915.358	15211
915.47	15222
915.583	15157
915.696	15378
915.809	15298
915.921	15367
916.034	15264
916.146	15203
916.259	15157
916.371	15252
916.483	15188
916.595	15142
916.708	15146
916.82	15081
916.932	14937
917.044	14994
917.156	14982
917.268	14948
917.38	14891
917.491	14845
917.603	14925
917.715	14925
917.826	15009
917.938	14823
918.049	14754
918.161	14876
918.272	14864
918.384	15097
918.495	14823
918.606	14686
918.717	14693
918.828	14712
918.939	14644
919.05	14526
919.161	14480
919.272	14446
919.383	14393
919.494	14644
919.604	14823
919.715	14613
919.826	14457
919.936	14640
920.047	14651
920.157	14651
920.267	14876
920.378	14667
920.488	14564
920.598	14758
920.708	14891
920.818	14762
920.928	14743
921.038	15047
921.148	14872
921.258	14522
921.368	14541
921.477	14332
921.587	14450
921.697	14290
921.806	14339
921.916	14237
922.025	14035
922.134	13951
922.244	13871
922.353	14027
922.462	13826
922.571	13765
922.68	13552
922.789	13624
922.898	13597
923.007	13552
923.116	13605
923.224	13616
923.333	13636
923.442	13457
923.55	13487
923.659	13544
923.767	13400
923.876	13354
923.984	13457
924.092	13327
924.201	13415
924.309	13415
924.417	13339
924.525	13350
924.633	13255
924.741	13967
924.849	13069
924.956	13202
925.064	13034
925.172	12966
925.279	13034
925.387	12970
925.494	12973
925.602	13179
925.709	13088
925.816	12928
925.924	13027
926.031	13149
926.138	12993
926.245	13076
926.352	12837
926.459	13088
926.566	13004
926.673	12913
926.779	12757
926.886	12783
926.993	12616
927.099	12639
927.206	12547
927.312	12555
927.419	12642
927.525	12654
927.631	12578
927.737	12486
927.843	12509
927.95	12327
928.056	12448
928.162	12285
928.267	12483
928.373	13042
928.479	12559
928.585	12190
928.69	12334
928.796	12361
928.901	12289
929.007	12159
929.112	12376
929.218	12266
929.323	12224
929.428	12186
929.533	12209
929.638	12053
929.743	12102
929.848	12144
929.953	12030
930.058	11999
930.163	11729
930.267	11897
930.372	12060
930.477	11809
930.581	12030
930.685	11931
930.79	11733
930.894	11767
930.998	11695
931.103	11794
931.207	11509
931.311	11471
931.415	11318
931.519	11102
931.623	11060
