Data from test_V78500241_834.txt Node
Date: Fri Mar 25 15:15:39 CST 2022
User: usil
Spectrometer: V785-0024
Trigger mode: 0
Integration Time (sec): 4.000000E-1
Scans to average: 1
Nonlinearity correction enabled: false
Boxcar width: 0
Storing dark spectrum: false
XAxis mode: Wavelengths
Number of Pixels in Spectrum: 1024
>>>>>Begin Spectral Data<<<<<
801.071	28421
801.214	28284
801.356	28082
801.499	28013
801.641	27861
801.783	27907
801.926	28010
802.068	27918
802.211	27827
802.353	27778
802.496	27656
802.638	27610
802.78	27549
802.923	27481
803.065	27561
803.208	27545
803.35	27564
803.492	27667
803.635	27789
803.777	27736
803.919	27705
804.061	27994
804.204	27808
804.346	27732
804.488	27846
804.63	27766
804.773	27595
804.915	27865
805.057	27880
805.199	27644
805.341	27842
805.483	27991
805.626	27914
805.768	27888
805.91	27857
806.052	27873
806.194	27922
806.336	28090
806.478	27994
806.62	27914
806.762	28021
806.904	28291
807.046	28276
807.188	28318
807.33	28234
807.472	28382
807.614	28261
807.756	28337
807.898	28234
808.04	28090
808.182	28143
808.324	28188
808.465	28276
808.607	28459
808.749	28565
808.891	28622
809.033	28710
809.174	28584
809.316	28565
809.458	28618
809.6	28596
809.741	28774
809.883	28824
810.025	28900
810.166	28915
810.308	28953
810.45	28908
810.591	28790
810.733	28634
810.875	28607
811.016	28622
811.158	28451
811.299	28592
811.441	28847
811.582	28653
811.724	28565
811.865	28462
812.007	28554
812.148	28660
812.29	28649
812.431	28793
812.573	28923
812.714	28965
812.855	29105
812.997	29280
813.138	29429
813.279	29311
813.421	29193
813.562	29102
813.703	28900
813.845	28953
813.986	28622
814.127	28401
814.268	28413
814.41	28443
814.551	28306
814.692	28322
814.833	28341
814.974	28382
815.115	28462
815.256	28150
815.397	28090
815.539	28097
815.68	28128
815.821	28109
815.962	28116
816.103	28177
816.244	27892
816.385	27972
816.526	27797
816.666	27606
816.807	27553
816.948	27694
817.089	27762
817.23	27644
817.371	27564
817.512	27622
817.653	27644
817.793	27644
817.934	27618
818.075	27724
818.216	27583
818.356	27572
818.497	27538
818.638	27291
818.778	27359
818.919	27283
819.06	27382
819.2	27488
819.341	27603
819.481	27808
819.622	27690
819.762	27895
819.903	27918
820.043	27736
820.184	27800
820.324	27694
820.465	27800
820.605	27686
820.746	27728
820.886	27576
821.026	27720
821.167	27800
821.307	27816
821.447	27534
821.588	27549
821.728	27504
821.868	27241
822.008	27066
822.149	27180
822.289	27081
822.429	26887
822.569	26754
822.709	26800
822.849	26594
822.99	26564
823.13	26632
823.27	26609
823.41	26389
823.55	26351
823.69	26495
823.83	26400
823.97	26282
824.11	26431
824.25	26320
824.389	26324
824.529	26385
824.669	26237
824.809	26370
824.949	26408
825.089	26320
825.228	26358
825.368	26088
825.508	26153
825.648	26161
825.787	26233
825.927	26290
826.067	26111
826.206	26130
826.346	26278
826.485	26252
826.625	26119
826.765	26324
826.904	26115
827.044	25966
827.183	25856
827.323	25909
827.462	26084
827.601	25902
827.741	25936
827.88	25830
828.02	25742
828.159	25871
828.298	25928
828.437	25887
828.577	25753
828.716	25860
828.855	25822
828.994	25506
829.134	25609
829.273	25590
829.412	25548
829.551	25495
829.69	25594
829.829	25518
829.968	25578
830.107	25472
830.246	25552
830.385	25499
830.524	25540
830.663	25419
830.802	25316
830.941	25145
831.08	25061
831.219	25438
831.357	25228
831.496	25320
831.635	25320
831.774	25122
831.913	25171
832.051	24970
832.19	24943
832.329	25129
832.467	24871
832.606	24916
832.744	24852
832.883	24859
833.022	24768
833.16	24730
833.299	24844
833.437	24871
833.576	24829
833.714	24829
833.852	24977
833.991	24939
834.129	24966
834.267	24856
834.406	24966
834.544	25008
834.682	25042
834.821	24897
834.959	25042
835.097	24825
835.235	24814
835.373	24939
835.511	24958
835.65	24802
835.788	24814
835.926	24582
836.064	24578
836.202	24509
836.34	24741
836.478	24878
836.615	24639
836.753	24795
836.891	24840
837.029	24719
837.167	24623
837.305	24688
837.443	24707
837.58	24688
837.718	24620
837.856	24604
837.993	24540
838.131	24601
838.269	24502
838.406	24479
838.544	24350
838.681	24182
838.819	24254
838.956	24095
839.094	24007
839.231	24072
839.369	24087
839.506	24486
839.643	24311
839.781	24182
839.918	24007
840.055	24015
840.193	23916
840.33	23851
840.467	24095
840.604	23950
840.742	24125
840.879	23851
841.016	23832
841.153	23821
841.29	23973
841.427	23946
841.564	23920
841.701	23908
841.838	23912
841.975	23817
842.112	23923
842.249	23775
842.385	23573
842.522	23859
842.659	23733
842.796	23687
842.933	23600
843.069	23649
843.206	23676
843.343	23863
843.479	23760
843.616	23630
843.752	23509
843.889	23543
844.025	23672
844.162	23440
844.298	23558
844.435	23471
844.571	23402
844.708	23547
844.844	23668
844.98	23577
845.117	23653
845.253	23528
845.389	23280
845.525	23398
845.661	23318
845.798	23197
845.934	23299
846.07	23174
846.206	23159
846.342	23345
846.478	23143
846.614	23003
846.75	22877
846.886	22999
847.022	23037
847.158	23018
847.294	22942
847.429	22923
847.565	22858
847.701	23090
847.837	22717
847.972	22649
848.108	22786
848.244	22793
848.379	22607
848.515	22459
848.65	22478
848.786	22512
848.921	22516
849.057	22626
849.192	22592
849.328	22588
849.463	22478
849.598	22531
849.734	22443
849.869	22470
850.004	22291
850.14	22409
850.275	22242
850.41	22215
850.545	22238
850.68	22200
850.815	22314
850.95	22257
851.085	22504
851.22	22409
851.355	22276
851.49	22230
851.625	22238
851.76	22394
851.895	22105
852.03	22211
852.165	22226
852.299	22375
852.434	22417
852.569	22280
852.703	22375
852.838	22261
852.973	22516
853.107	22379
853.242	22238
853.376	21987
853.511	22059
853.645	21945
853.78	22265
853.914	22067
854.048	22040
854.183	22173
854.317	22109
854.451	22276
854.585	22139
854.72	22154
854.854	22109
854.988	22070
855.122	22173
855.256	21979
855.39	22112
855.524	22177
855.658	22226
855.792	22253
855.926	22120
856.06	22128
856.194	22086
856.327	22002
856.461	22017
856.595	22013
856.729	22105
856.862	22135
856.996	22074
857.13	22150
857.263	22139
857.397	22162
857.53	22135
857.664	22242
857.797	22215
857.931	22128
858.064	22090
858.197	22169
858.331	22078
858.464	22025
858.597	21983
858.731	22101
858.864	22074
858.997	22067
859.13	22063
859.263	22074
859.396	22207
859.529	22010
859.662	22112
859.795	22063
859.928	22135
860.061	22337
860.194	22169
860.327	22048
860.46	22120
860.592	22188
860.725	22284
860.858	22185
860.99	22097
861.123	22040
861.256	22097
861.388	22078
861.521	22991
861.653	22086
861.786	21907
861.918	21926
862.05	21972
862.183	21945
862.315	21953
862.447	22211
862.58	22021
862.712	21857
862.844	21785
862.976	21778
863.108	21876
863.24	22204
863.372	21682
863.504	21774
863.636	21804
863.768	21800
863.9	21865
864.032	21823
864.164	21785
864.296	21778
864.428	21876
864.559	21873
864.691	21945
864.823	21766
864.954	21835
865.086	21857
865.217	21690
865.349	21652
865.48	21625
865.612	21618
865.743	21774
865.875	21793
866.006	21701
866.137	21743
866.269	21720
866.4	21823
866.531	21557
866.662	21580
866.793	21462
866.924	21576
867.055	21717
867.186	21591
867.317	21572
867.448	21462
867.579	21568
867.71	21466
867.841	21515
867.972	21606
868.103	21701
868.233	21686
868.364	21648
868.495	21603
868.625	21770
868.756	21983
868.886	21785
869.017	21892
869.147	21972
869.278	21930
869.408	21968
869.539	21861
869.669	21930
869.799	21838
869.929	21934
870.06	21953
870.19	22154
870.32	22070
870.45	22276
870.58	22169
870.71	22356
870.84	22436
870.97	22143
871.1	22219
871.23	22356
871.36	22443
871.489	22356
871.619	22417
871.749	22394
871.879	22424
872.008	22592
872.138	22428
872.267	22424
872.397	22223
872.526	22238
872.656	22234
872.785	22272
872.915	22303
873.044	22573
873.173	22451
873.303	22443
873.432	22478
873.561	22493
873.69	22363
873.819	22497
873.948	22493
874.077	22394
874.206	22459
874.335	22417
874.464	22584
874.593	22691
874.722	22622
874.851	22622
874.979	22793
875.108	22672
875.237	22645
875.365	22580
875.494	22672
875.623	22763
875.751	22687
875.88	22744
876.008	22805
876.136	22866
876.265	23159
876.393	23292
876.521	23117
876.65	23227
876.778	23025
876.906	22934
877.034	23022
877.162	23052
877.29	22828
877.418	22991
877.546	23033
877.674	22885
877.802	22991
877.93	22995
878.058	22911
878.185	22843
878.313	22831
878.441	23056
878.568	22790
878.696	22873
878.824	23048
878.951	23037
879.079	23102
879.206	23223
879.333	23189
879.461	23018
879.588	22991
879.715	23128
879.842	23220
879.97	22991
880.097	22862
880.224	22771
880.351	22816
880.478	22896
880.605	22694
880.732	22809
880.859	22987
880.986	22790
881.112	22835
881.239	22660
881.366	22588
881.493	22470
881.619	22295
881.746	22481
881.872	22379
881.999	22314
882.125	22291
882.252	22398
882.378	22284
882.505	22371
882.631	22169
882.757	22093
882.883	22173
883.01	22044
883.136	22048
883.262	22021
883.388	21903
883.514	22120
883.64	22086
883.766	21945
883.892	21918
884.018	21903
884.143	22036
884.269	22029
884.395	21823
884.52	21641
884.646	21690
884.772	21625
884.897	21564
885.023	21713
885.148	21682
885.274	21876
885.399	21842
885.524	21656
885.65	21637
885.775	21739
885.9	21774
886.025	21762
886.15	21785
886.275	21720
886.4	21553
886.525	21720
886.65	21610
886.775	21629
886.9	21888
887.025	21842
887.149	21450
887.274	21595
887.399	21435
887.523	21431
887.648	21420
887.773	21313
887.897	21564
888.021	21523
888.146	21542
888.27	21545
888.395	21534
888.519	21511
888.643	21336
888.767	21447
888.891	21363
889.015	21176
889.139	21298
889.263	21112
889.387	21439
889.511	21458
889.635	21275
889.759	21203
889.883	21279
890.006	21264
890.13	21382
890.254	21203
890.377	21161
890.501	21104
890.624	21009
890.748	21154
890.871	20906
890.995	20785
891.118	20769
891.241	20785
891.364	20868
891.488	20876
891.611	20838
891.734	20868
891.857	20864
891.98	20762
892.103	20823
892.226	20861
892.349	20724
892.471	20606
892.594	20739
892.717	20758
892.839	20655
892.962	20735
893.085	20716
893.207	20746
893.33	20579
893.452	20575
893.575	20762
893.697	20636
893.819	20826
893.941	20804
894.064	20762
894.186	20571
894.308	20617
894.43	20769
894.552	20868
894.674	20807
894.796	20579
894.918	20697
895.04	20602
895.161	20796
895.283	20716
895.405	20720
895.526	20648
895.648	20655
895.769	20800
895.891	20765
896.012	20724
896.134	20651
896.255	20708
896.376	20693
896.498	20640
896.619	20693
896.74	20629
896.861	20689
896.982	21009
897.103	21085
897.224	20948
897.345	20906
897.466	20800
897.587	20887
897.708	20925
897.828	21024
897.949	20853
898.07	20716
898.19	20754
898.311	20982
898.431	20853
898.552	20800
898.672	21058
898.792	20880
898.913	20883
899.033	20804
899.153	20739
899.273	20545
899.393	20609
899.513	20769
899.633	20617
899.753	20632
899.873	20640
899.993	20708
900.113	20594
900.232	20606
900.352	20609
900.472	20396
900.591	20271
900.711	20469
900.83	20271
900.95	20522
901.069	20568
901.189	20324
901.308	20092
901.427	19982
901.546	20035
901.665	20058
901.784	20062
901.904	19875
902.023	19757
902.141	19529
902.26	19590
902.379	19635
902.498	19597
902.617	19548
902.735	19468
902.854	19476
902.973	19411
903.091	19190
903.21	19133
903.328	19168
903.446	19099
903.565	18977
903.683	19015
903.801	18897
903.919	18970
904.038	18817
904.156	18821
904.274	18821
904.392	18757
904.51	18764
904.627	18578
904.745	18795
904.863	18669
904.981	18445
905.098	18437
905.216	18391
905.334	18369
905.451	18380
905.569	18350
905.686	18445
905.803	18380
905.921	18194
906.038	18384
906.155	18285
906.272	17980
906.389	18045
906.506	17977
906.623	17950
906.74	17916
906.857	17863
906.974	17843
907.091	18041
907.208	18125
907.324	17923
907.441	17783
907.557	17596
907.674	17710
907.79	17585
907.907	17539
908.023	17676
908.139	17657
908.256	17532
908.372	17486
908.488	17455
908.604	17402
908.72	17330
908.836	17227
908.952	17376
909.068	17368
909.184	17368
909.3	17296
909.415	17250
909.531	17341
909.647	17064
909.762	17197
909.878	16942
909.993	17048
910.108	17052
910.224	16942
910.339	16984
910.454	16927
910.57	16869
910.685	16790
910.8	17143
910.915	17071
911.03	16740
911.145	16599
911.259	16656
911.374	16615
911.489	16630
911.604	16417
911.718	16577
911.833	16470
911.947	16333
912.062	16116
912.176	16360
912.291	16253
912.405	16287
912.519	16607
912.633	16535
912.748	16337
912.862	16356
912.976	16177
913.09	16162
913.204	16147
913.318	16131
913.431	16341
913.545	16265
913.659	16386
913.772	16128
913.886	16010
914	15956
914.113	16101
914.226	16150
914.34	15880
914.453	15854
914.566	16002
914.68	15838
914.793	15789
914.906	15747
915.019	15561
915.132	15534
915.245	15530
915.358	15561
915.47	15633
915.583	15644
915.696	15587
915.809	15644
915.921	15622
916.034	15469
916.146	15450
916.259	15530
916.371	15530
916.483	15507
916.595	15466
916.708	15443
916.82	15386
916.932	15397
917.044	15340
917.156	15287
917.268	15252
917.38	15283
917.491	15150
917.603	15264
917.715	15294
917.826	15298
917.938	15176
918.049	14956
918.161	15154
918.272	15195
918.384	15222
918.495	15157
918.606	14906
918.717	14914
918.828	14994
918.939	15028
919.05	14819
919.161	14880
919.272	14693
919.383	14743
919.494	14971
919.604	15199
919.715	14933
919.826	14792
919.936	14883
920.047	15017
920.157	15009
920.267	15131
920.378	14895
920.488	14804
920.598	15085
920.708	15123
920.818	14967
920.928	14929
921.038	15161
921.148	15081
921.258	14861
921.368	14708
921.477	14765
921.587	14762
921.697	14450
921.806	14625
921.916	14454
922.025	14358
922.134	14298
922.244	14233
922.353	14305
922.462	14153
922.571	14111
922.68	13936
922.789	13864
922.898	13887
923.007	13791
923.116	13921
923.224	13970
923.333	13803
923.442	13765
923.55	13700
923.659	13761
923.767	13807
923.876	13727
923.984	13704
924.092	13537
924.201	13693
924.309	13559
924.417	13616
924.525	13540
924.633	13643
924.741	14454
924.849	13381
924.956	13552
925.064	13251
925.172	13278
925.279	13339
925.387	13365
925.494	13350
925.602	13350
925.709	13377
925.816	13156
925.924	13240
926.031	13244
926.138	13213
926.245	13236
926.352	13156
926.459	13240
926.566	13343
926.673	13084
926.779	13072
926.886	12970
926.993	12905
927.099	12897
927.206	12783
927.312	12711
927.419	12894
927.525	12772
927.631	12817
927.737	12722
927.843	12673
927.95	12616
928.056	12620
928.162	12726
928.267	12688
928.373	13297
928.479	12719
928.585	12490
928.69	12650
928.796	12715
928.901	12456
929.007	12369
929.112	12551
929.218	12460
929.323	12422
929.428	12403
929.533	12448
929.638	12300
929.743	12353
929.848	12338
929.953	12224
930.058	12194
930.163	12114
930.267	12133
930.372	12228
930.477	12045
930.581	12205
930.685	12030
930.79	11912
930.894	12045
930.998	11904
931.103	12163
931.207	11630
931.311	11634
931.415	11459
931.519	11303
931.623	11318
