Data from test_V78500241_2802.txt Node
Date: Fri Mar 25 15:29:22 CST 2022
User: usil
Spectrometer: V785-0024
Trigger mode: 0
Integration Time (sec): 4.000000E-1
Scans to average: 1
Nonlinearity correction enabled: false
Boxcar width: 0
Storing dark spectrum: false
XAxis mode: Wavelengths
Number of Pixels in Spectrum: 1024
>>>>>Begin Spectral Data<<<<<
801.071	27233
801.214	27127
801.356	26838
801.499	26796
801.641	26933
801.783	26765
801.926	26921
802.068	26765
802.211	26674
802.353	26606
802.496	26484
802.638	26518
802.78	26358
802.923	26271
803.065	26275
803.208	26339
803.35	26419
803.492	26598
803.635	26602
803.777	26507
803.919	26488
804.061	26998
804.204	26556
804.346	26495
804.488	26461
804.63	26328
804.773	26317
804.915	26575
805.057	26686
805.199	26400
805.341	26682
805.483	26670
805.626	26773
805.768	26564
805.91	26705
806.052	26518
806.194	26514
806.336	26773
806.478	26659
806.62	26617
806.762	26651
806.904	26781
807.046	27108
807.188	27157
807.33	27131
807.472	27009
807.614	27116
807.756	27001
807.898	26940
808.04	26906
808.182	26838
808.324	27005
808.465	27047
808.607	27131
808.749	27382
808.891	27321
809.033	27370
809.174	27230
809.316	27188
809.458	27256
809.6	27230
809.741	27283
809.883	27370
810.025	27519
810.166	27564
810.308	27485
810.45	27454
810.591	27329
810.733	27245
810.875	27344
811.016	27188
811.158	27222
811.299	27317
811.441	27427
811.582	27348
811.724	27291
811.865	27127
812.007	27230
812.148	27077
812.29	27252
812.431	27218
812.573	27477
812.714	27492
812.855	27663
812.997	27865
813.138	27857
813.279	27823
813.421	27797
813.562	27705
813.703	27504
813.845	27481
813.986	27074
814.127	26948
814.268	26906
814.41	26910
814.551	26842
814.692	26998
814.833	26842
814.974	26861
815.115	26830
815.256	26842
815.397	26686
815.539	26823
815.68	26640
815.821	26537
815.962	26632
816.103	26689
816.244	26564
816.385	26415
816.526	26396
816.666	26103
816.807	26183
816.948	26187
817.089	26366
817.23	26214
817.371	26084
817.512	26180
817.653	26115
817.793	26084
817.934	26096
818.075	26161
818.216	26115
818.356	26081
818.497	26027
818.638	25856
818.778	25822
818.919	25902
819.06	25913
819.2	26058
819.341	25997
819.481	26107
819.622	26305
819.762	26461
819.903	26377
820.043	26278
820.184	26229
820.324	26168
820.465	26408
820.605	26176
820.746	26248
820.886	26084
821.026	26092
821.167	26183
821.307	26206
821.447	26077
821.588	26058
821.728	25765
821.868	25837
822.008	25624
822.149	25616
822.289	25616
822.429	25422
822.569	25365
822.709	25453
822.849	25107
822.99	25122
823.13	25072
823.27	25046
823.41	24947
823.55	24935
823.69	24992
823.83	25156
823.97	24894
824.11	24677
824.25	24783
824.389	24711
824.529	24886
824.669	24798
824.809	24833
824.949	24905
825.089	24897
825.228	24833
825.368	24681
825.508	24574
825.648	24601
825.787	24490
825.927	24677
826.067	24776
826.206	24486
826.346	24673
826.485	24688
826.625	24589
826.765	24806
826.904	24738
827.044	24437
827.183	24342
827.323	24357
827.462	24429
827.601	24338
827.741	24338
827.88	24426
828.02	24247
828.159	24292
828.298	24315
828.437	24338
828.577	24262
828.716	24346
828.855	24178
828.994	23992
829.134	23999
829.273	24041
829.412	24030
829.551	24049
829.69	23961
829.829	24045
829.968	24129
830.107	24060
830.246	24057
830.385	24076
830.524	23999
830.663	23965
830.802	23813
830.941	23539
831.08	23509
831.219	23745
831.357	23859
831.496	23817
831.635	23646
831.774	23524
831.913	23539
832.051	23505
832.19	23528
832.329	23391
832.467	23242
832.606	23292
832.744	23220
832.883	23277
833.022	23204
833.16	23311
833.299	23482
833.437	23341
833.576	23318
833.714	23398
833.852	23440
833.991	23528
834.129	23406
834.267	23429
834.406	23436
834.544	23337
834.682	23448
834.821	23376
834.959	23478
835.097	23334
835.235	23402
835.373	23520
835.511	23372
835.65	23322
835.788	23299
835.926	23064
836.064	23003
836.202	23121
836.34	23246
836.478	23303
836.615	23128
836.753	23364
836.891	23212
837.029	23117
837.167	23197
837.305	23159
837.443	23052
837.58	23029
837.718	23109
837.856	23178
837.993	23044
838.131	23105
838.269	22877
838.406	22972
838.544	22957
838.681	22774
838.819	22706
838.956	22565
839.094	22672
839.231	22691
839.369	22767
839.506	22904
839.643	22828
839.781	22645
839.918	22485
840.055	22436
840.193	22478
840.33	22474
840.467	22466
840.604	22580
840.742	22717
840.879	22360
841.016	22409
841.153	22367
841.29	22607
841.427	22390
841.564	22489
841.701	22375
841.838	22493
841.975	22295
842.112	22394
842.249	22348
842.385	22272
842.522	22512
842.659	22409
842.796	22253
842.933	22276
843.069	22249
843.206	22120
843.343	22325
843.479	22223
843.616	22246
843.752	21953
843.889	22097
844.025	22169
844.162	21941
844.298	22021
844.435	22025
844.571	21983
844.708	22109
844.844	22173
844.98	22063
845.117	22074
845.253	22021
845.389	21861
845.525	21922
845.661	21930
845.798	21572
845.934	21732
846.07	21675
846.206	21873
846.342	21880
846.478	21675
846.614	21614
846.75	21492
846.886	21439
847.022	21519
847.158	21477
847.294	21504
847.429	21462
847.565	21587
847.701	21675
847.837	21077
847.972	21066
848.108	21329
848.244	21294
848.379	21047
848.515	20933
848.65	21135
848.786	21051
848.921	21085
849.057	21203
849.192	21264
849.328	21127
849.463	21032
849.598	21005
849.734	20895
849.869	20815
850.004	20849
850.14	20933
850.275	20823
850.41	20823
850.545	20758
850.68	20731
850.815	20891
850.95	20819
851.085	20979
851.22	20963
851.355	20887
851.49	20785
851.625	20804
851.76	20777
851.895	20826
852.03	20765
852.165	20830
852.299	20990
852.434	20918
852.569	20777
852.703	20724
852.838	20880
852.973	21024
853.107	21020
853.242	20705
853.376	20735
853.511	20613
853.645	20499
853.78	20769
853.914	20632
854.048	20670
854.183	20636
854.317	20792
854.451	20872
854.585	20632
854.72	20587
854.854	20750
854.988	20533
855.122	20693
855.256	20522
855.39	20583
855.524	20758
855.658	20727
855.792	20815
855.926	20644
856.06	20781
856.194	20602
856.327	20724
856.461	20469
856.595	20613
856.729	20526
856.862	20735
856.996	20686
857.13	20689
857.263	20716
857.397	20750
857.53	20583
857.664	20629
857.797	20693
857.931	20777
858.064	20625
858.197	20754
858.331	20701
858.464	20473
858.597	20492
858.731	20648
858.864	20716
858.997	20667
859.13	20693
859.263	20724
859.396	20746
859.529	20659
859.662	20590
859.795	20651
859.928	20644
860.061	20800
860.194	20853
860.327	20556
860.46	20689
860.592	20777
860.725	20857
860.858	20845
860.99	20560
861.123	20442
861.256	20708
861.388	20629
861.521	21340
861.653	20385
861.786	20518
861.918	20526
862.05	20530
862.183	20533
862.315	20609
862.447	20716
862.58	20507
862.712	20355
862.844	20305
862.976	20552
863.108	20412
863.24	20982
863.372	20374
863.504	20259
863.636	20366
863.768	20362
863.9	20244
864.032	20377
864.164	20305
864.296	20423
864.428	20511
864.559	20389
864.691	20423
864.823	20355
864.954	20248
865.086	20298
865.217	20370
865.349	20126
865.48	20202
865.612	20332
865.743	20438
865.875	20298
866.006	20221
866.137	20229
866.269	20233
866.4	20275
866.531	20172
866.662	20161
866.793	20267
866.924	20324
867.055	20130
867.186	20187
867.317	20191
867.448	20233
867.579	20275
867.71	20138
867.841	20206
867.972	20199
868.103	20111
868.233	20134
868.364	20187
868.495	20309
868.625	20431
868.756	20541
868.886	20374
869.017	20396
869.147	20564
869.278	20629
869.408	20476
869.539	20518
869.669	20545
869.799	20492
869.929	20602
870.06	20541
870.19	20883
870.32	20773
870.45	20716
870.58	20769
870.71	20811
870.84	20883
870.97	20910
871.1	20819
871.23	21020
871.36	21001
871.489	20853
871.619	21119
871.749	21024
871.879	21058
872.008	21047
872.138	21100
872.267	21017
872.397	21013
872.526	20914
872.656	20963
872.785	20948
872.915	21123
873.044	21150
873.173	21055
873.303	21055
873.432	21051
873.561	21157
873.69	21245
873.819	21013
873.948	21066
874.077	21207
874.206	21005
874.335	21024
874.464	21180
874.593	21302
874.722	21226
874.851	21367
874.979	21226
875.108	21412
875.237	21252
875.365	21161
875.494	21279
875.623	21405
875.751	21264
875.88	21329
876.008	21488
876.136	21488
876.265	21713
876.393	21915
876.521	21766
876.65	21766
876.778	21850
876.906	21633
877.034	21614
877.162	21732
877.29	21530
877.418	21622
877.546	21648
877.674	21736
877.802	21717
877.93	21637
878.058	21583
878.185	21405
878.313	21701
878.441	21675
878.568	21488
878.696	21637
878.824	21705
878.951	21800
879.079	21785
879.206	21911
879.333	21774
879.461	21576
879.588	21766
879.715	21964
879.842	21907
879.97	21781
880.097	21515
880.224	21511
880.351	21431
880.478	21507
880.605	21496
880.732	21519
880.859	21644
880.986	21507
881.112	21583
881.239	21378
881.366	21237
881.493	21108
881.619	21058
881.746	21043
881.872	21017
881.999	21036
882.125	20986
882.252	21028
882.378	20979
882.505	21233
882.631	20933
882.757	20910
882.883	20845
883.01	20796
883.136	20720
883.262	20613
883.388	20682
883.514	20842
883.64	20849
883.766	20644
883.892	20606
884.018	20636
884.143	20689
884.269	20880
884.395	20461
884.52	20313
884.646	20419
884.772	20377
884.897	20355
885.023	20473
885.148	20518
885.274	20568
885.399	20541
885.524	20465
885.65	20526
885.775	20495
885.9	20434
886.025	20415
886.15	20492
886.275	20313
886.4	20309
886.525	20351
886.65	20389
886.775	20412
886.9	20438
887.025	20712
887.149	20488
887.274	20218
887.399	20164
887.523	20252
887.648	20183
887.773	20092
887.897	20267
888.021	20126
888.146	20126
888.27	20290
888.395	20199
888.519	20138
888.643	20168
888.767	20221
888.891	20145
889.015	20084
889.139	20119
889.263	20077
889.387	20221
889.511	20252
889.635	20050
889.759	19986
889.883	20050
890.006	19925
890.13	20145
890.254	19951
890.377	20001
890.501	19837
890.624	19795
890.748	19734
890.871	19658
890.995	19491
891.118	19563
891.241	19715
891.364	19556
891.488	19635
891.611	19613
891.734	19601
891.857	19491
891.98	19521
892.103	19658
892.226	19537
892.349	19571
892.471	19403
892.594	19578
892.717	19556
892.839	19597
892.962	19480
893.085	19548
893.207	19544
893.33	19441
893.452	19430
893.575	19590
893.697	19502
893.819	19571
893.941	19715
894.064	19655
894.186	19510
894.308	19381
894.43	19514
894.552	19582
894.674	19567
894.796	19510
894.918	19548
895.04	19552
895.161	19578
895.283	19540
895.405	19476
895.526	19525
895.648	19411
895.769	19563
895.891	19571
896.012	19597
896.134	19544
896.255	19499
896.376	19453
896.498	19635
896.619	19525
896.74	19400
896.861	19506
896.982	19776
897.103	19814
897.224	19795
897.345	19700
897.466	19681
897.587	19677
897.708	19826
897.828	19772
897.949	19651
898.07	19518
898.19	19616
898.311	19841
898.431	19670
898.552	19723
898.672	19780
898.792	19795
898.913	19841
899.033	19586
899.153	19544
899.273	19464
899.393	19586
899.513	19578
899.633	19533
899.753	19521
899.873	19518
899.993	19590
900.113	19460
900.232	19419
900.352	19426
900.472	19331
900.591	19259
900.711	19187
900.83	19270
900.95	19403
901.069	19392
901.189	19148
901.308	18848
901.427	18840
901.546	18932
901.665	18905
901.784	18924
901.904	18726
902.023	18658
902.141	18407
902.26	18365
902.379	18540
902.498	18445
902.617	18369
902.735	18414
902.854	18296
902.973	18281
903.091	18133
903.21	18155
903.328	18076
903.446	18087
903.565	17901
903.683	17847
903.801	17779
903.919	17874
904.038	17901
904.156	17783
904.274	17790
904.392	17589
904.51	17604
904.627	17665
904.745	17676
904.863	17619
904.981	17524
905.098	17216
905.216	17379
905.334	17391
905.451	17364
905.569	17250
905.686	17395
905.803	17258
905.921	17235
906.038	17242
906.155	17223
906.272	17003
906.389	17079
906.506	16889
906.623	16904
906.74	16866
906.857	16679
906.974	16828
907.091	16881
907.208	16927
907.324	16839
907.441	16683
907.557	16656
907.674	16538
907.79	16455
907.907	16542
908.023	16615
908.139	16622
908.256	16569
908.372	16497
908.488	16504
908.604	16341
908.72	16265
908.836	16348
908.952	16265
909.068	16394
909.184	16382
909.3	16280
909.415	16390
909.531	16310
909.647	16116
909.762	16074
909.878	15934
909.993	16101
910.108	16021
910.224	16010
910.339	15949
910.454	15949
910.57	15861
910.685	15705
910.8	16063
910.915	15987
911.03	15903
911.145	15682
911.259	15633
911.374	15690
911.489	15534
911.604	15488
911.718	15435
911.833	15424
911.947	15279
912.062	15192
912.176	15450
912.291	15435
912.405	15443
912.519	15599
912.633	15519
912.748	15473
912.862	15412
912.976	15241
913.09	15093
913.204	15226
913.318	15222
913.431	15389
913.545	15279
913.659	15386
913.772	15123
913.886	15062
914	15062
914.113	15100
914.226	15062
914.34	15161
914.453	14944
914.566	15066
914.68	14906
914.793	14937
914.906	14655
915.019	14651
915.132	14632
915.245	14693
915.358	14708
915.47	14743
915.583	14636
915.696	14769
915.809	14785
915.921	14777
916.034	14518
916.146	14442
916.259	14526
916.371	14598
916.483	14583
916.595	14499
916.708	14461
916.82	14537
916.932	14393
917.044	14393
917.156	14400
917.268	14320
917.38	14305
917.491	14358
917.603	14305
917.715	14336
917.826	14309
917.938	14263
918.049	14168
918.161	14301
918.272	14404
918.384	14404
918.495	14305
918.606	14096
918.717	13890
918.828	14149
918.939	14111
919.05	13989
919.161	14065
919.272	13890
919.383	13944
919.494	14157
919.604	14248
919.715	14123
919.826	14012
919.936	14050
920.047	14180
920.157	14024
920.267	14221
920.378	14027
920.488	13982
920.598	14218
920.708	14351
920.818	14161
920.928	14153
921.038	14202
921.148	14290
921.258	14050
921.368	13932
921.477	13849
921.587	13746
921.697	13757
921.806	13765
921.916	13651
922.025	13396
922.134	13548
922.244	13407
922.353	13571
922.462	13251
922.571	13221
922.68	13050
922.789	13088
922.898	13126
923.007	12977
923.116	13091
923.224	13069
923.333	13042
923.442	13012
923.55	12905
923.659	12932
923.767	12985
923.876	12928
923.984	12932
924.092	12901
924.201	12916
924.309	12878
924.417	12867
924.525	12802
924.633	12779
924.741	13453
924.849	12642
924.956	12719
925.064	12582
925.172	12540
925.279	12467
925.387	12601
925.494	12608
925.602	12749
925.709	12467
925.816	12418
925.924	12494
926.031	12627
926.138	12437
926.245	12597
926.352	12410
926.459	12517
926.566	12422
926.673	12403
926.779	12342
926.886	12292
926.993	12209
927.099	12117
927.206	12121
927.312	12114
927.419	12167
927.525	12022
927.631	12224
927.737	12083
927.843	11885
927.95	11866
928.056	12003
928.162	12003
928.267	12019
928.373	12635
928.479	12034
928.585	11805
928.69	11828
928.796	11965
928.901	11775
929.007	11756
929.112	11885
929.218	11878
929.323	11729
929.428	11657
929.533	11824
929.638	11573
929.743	11653
929.848	11688
929.953	11684
930.058	11535
930.163	11364
930.267	11398
930.372	11532
930.477	11258
930.581	11535
930.685	11345
930.79	11307
930.894	11265
930.998	11235
931.103	11433
931.207	11090
931.311	10961
931.415	10881
931.519	10672
931.623	10649
