Data from test_V78500241_1993.txt Node
Date: Fri Mar 25 15:23:44 CST 2022
User: usil
Spectrometer: V785-0024
Trigger mode: 0
Integration Time (sec): 4.000000E-1
Scans to average: 1
Nonlinearity correction enabled: false
Boxcar width: 0
Storing dark spectrum: false
XAxis mode: Wavelengths
Number of Pixels in Spectrum: 1024
>>>>>Begin Spectral Data<<<<<
801.071	27850
801.214	27667
801.356	27595
801.499	27469
801.641	27542
801.783	27466
801.926	27454
802.068	27481
802.211	27363
802.353	27142
802.496	27188
802.638	27127
802.78	26830
802.923	27001
803.065	26990
803.208	27165
803.35	27089
803.492	27173
803.635	27275
803.777	27135
803.919	27325
804.061	27625
804.204	27393
804.346	27131
804.488	27211
804.63	27351
804.773	27142
804.915	27211
805.057	27367
805.199	27264
805.341	27355
805.483	27431
805.626	27264
805.768	27199
805.91	27325
806.052	27492
806.194	27313
806.336	27583
806.478	27416
806.62	27401
806.762	27515
806.904	27549
807.046	27911
807.188	27861
807.33	27907
807.472	27785
807.614	27812
807.756	27736
807.898	27542
808.04	27614
808.182	27625
808.324	27747
808.465	27842
808.607	27964
808.749	27903
808.891	27991
809.033	28166
809.174	28215
809.316	28086
809.458	28112
809.6	27846
809.741	28112
809.883	28181
810.025	28287
810.166	28341
810.308	28181
810.45	28169
810.591	28181
810.733	27876
810.875	27953
811.016	27861
811.158	27884
811.299	28051
811.441	28207
811.582	28181
811.724	27949
811.865	27972
812.007	27907
812.148	28044
812.29	28032
812.431	28124
812.573	28451
812.714	28413
812.855	28550
812.997	28679
813.138	28839
813.279	28660
813.421	28497
813.562	28459
813.703	28413
813.845	28257
813.986	28059
814.127	27968
814.268	27793
814.41	27644
814.551	27713
814.692	27759
814.833	27633
814.974	27496
815.115	27679
815.256	27717
815.397	27606
815.539	27690
815.68	27481
815.821	27450
815.962	27485
816.103	27595
816.244	27443
816.385	27211
816.526	27359
816.666	26895
816.807	27039
816.948	27127
817.089	27188
817.23	27017
817.371	27074
817.512	27001
817.653	26948
817.793	26986
817.934	26967
818.075	27005
818.216	27001
818.356	27001
818.497	26807
818.638	26678
818.778	26804
818.919	26807
819.06	26708
819.2	26823
819.341	26921
819.481	26937
819.622	27070
819.762	27336
819.903	27165
820.043	27116
820.184	27112
820.324	27150
820.465	27043
820.605	27108
820.746	27077
820.886	26910
821.026	27062
821.167	26967
821.307	27135
821.447	27066
821.588	26944
821.728	26876
821.868	26575
822.008	26480
822.149	26579
822.289	26609
822.429	26164
822.569	26290
822.709	26244
822.849	25951
822.99	25951
823.13	25852
823.27	25944
823.41	25841
823.55	25693
823.69	25833
823.83	25875
823.97	25666
824.11	25552
824.25	25609
824.389	25685
824.529	25693
824.669	25639
824.809	25799
824.949	25643
825.089	25761
825.228	25674
825.368	25571
825.508	25594
825.648	25556
825.787	25628
825.927	25533
826.067	25582
826.206	25438
826.346	25495
826.485	25548
826.625	25514
826.765	25670
826.904	25624
827.044	25209
827.183	25343
827.323	25236
827.462	25381
827.601	25255
827.741	25175
827.88	25270
828.02	25141
828.159	25152
828.298	25324
828.437	25285
828.577	25225
828.716	25339
828.855	25080
828.994	24867
829.134	24939
829.273	25027
829.412	25000
829.551	24833
829.69	24920
829.829	24886
829.968	25004
830.107	24856
830.246	24981
830.385	24776
830.524	24852
830.663	24734
830.802	24639
830.941	24574
831.08	24490
831.219	24745
831.357	24627
831.496	24715
831.635	24669
831.774	24494
831.913	24464
832.051	24380
832.19	24433
832.329	24224
832.467	24270
832.606	24273
832.744	24285
832.883	24163
833.022	24224
833.16	23999
833.299	24197
833.437	24209
833.576	24304
833.714	24330
833.852	24311
833.991	24426
834.129	24433
834.267	24277
834.406	24353
834.544	24353
834.682	24182
834.821	24251
834.959	24357
835.097	24190
835.235	24395
835.373	24289
835.511	24292
835.65	24102
835.788	24220
835.926	23988
836.064	23988
836.202	24057
836.34	24064
836.478	24167
836.615	24064
836.753	24186
836.891	24155
837.029	24159
837.167	24133
837.305	24003
837.443	23946
837.58	23965
837.718	23958
837.856	23920
837.993	23999
838.131	24125
838.269	23783
838.406	23756
838.544	23855
838.681	23684
838.819	23592
838.956	23478
839.094	23429
839.231	23608
839.369	23604
839.506	23866
839.643	23703
839.781	23444
839.918	23341
840.055	23433
840.193	23395
840.33	23322
840.467	23273
840.604	23356
840.742	23630
840.879	23265
841.016	23315
841.153	23269
841.29	23478
841.427	23345
841.564	23326
841.701	23288
841.838	23372
841.975	23296
842.112	23235
842.249	23086
842.385	23109
842.522	23566
842.659	23155
842.796	23128
842.933	23098
843.069	23189
843.206	23102
843.343	23105
843.479	23121
843.616	23140
843.752	22877
843.889	22968
844.025	22999
844.162	22801
844.298	22972
844.435	22797
844.571	22911
844.708	22881
844.844	23052
844.98	23006
845.117	23041
845.253	22816
845.389	22755
845.525	22755
845.661	22569
845.798	22649
845.934	22622
846.07	22599
846.206	22542
846.342	22710
846.478	22618
846.614	22371
846.75	22261
846.886	22257
847.022	22436
847.158	22485
847.294	22417
847.429	22424
847.565	22371
847.701	22561
847.837	22074
847.972	22040
848.108	22204
848.244	22116
848.379	22070
848.515	21968
848.65	21968
848.786	21960
848.921	21884
849.057	21937
849.192	22036
849.328	21972
849.463	21941
849.598	21941
849.734	21846
849.869	21739
850.004	21732
850.14	21770
850.275	21629
850.41	21694
850.545	21804
850.68	21622
850.815	21694
850.95	21644
851.085	21812
851.22	21698
851.355	21724
851.49	21709
851.625	21698
851.76	21747
851.895	21583
852.03	21606
852.165	21724
852.299	21751
852.434	21785
852.569	21751
852.703	21656
852.838	21800
852.973	21751
853.107	21751
853.242	21671
853.376	21443
853.511	21431
853.645	21545
853.78	21656
853.914	21504
854.048	21564
854.183	21408
854.317	21595
854.451	21644
854.585	21439
854.72	21523
854.854	21481
854.988	21424
855.122	21526
855.256	21321
855.39	21447
855.524	21644
855.658	21511
855.792	21561
855.926	21625
856.06	21462
856.194	21576
856.327	21519
856.461	21523
856.595	21496
856.729	21618
856.862	21599
856.996	21576
857.13	21561
857.263	21671
857.397	21622
857.53	21504
857.664	21595
857.797	21523
857.931	21587
858.064	21572
858.197	21652
858.331	21488
858.464	21526
858.597	21572
858.731	21447
858.864	21424
858.997	21450
859.13	21553
859.263	21618
859.396	21580
859.529	21534
859.662	21488
859.795	21496
859.928	21526
860.061	21671
860.194	21644
860.327	21523
860.46	21355
860.592	21720
860.725	21675
860.858	21686
860.99	21572
861.123	21519
861.256	21515
861.388	21473
861.521	22265
861.653	21431
861.786	21317
861.918	21283
862.05	21412
862.183	21393
862.315	21481
862.447	21477
862.58	21553
862.712	21264
862.844	21150
862.976	21313
863.108	21332
863.24	21793
863.372	21173
863.504	21241
863.636	21096
863.768	21370
863.9	21313
864.032	21203
864.164	21119
864.296	21241
864.428	21344
864.559	21233
864.691	21321
864.823	21222
864.954	21142
865.086	21283
865.217	21116
865.349	21070
865.48	21188
865.612	21017
865.743	21264
865.875	21043
866.006	21058
866.137	21131
866.269	21116
866.4	21104
866.531	21127
866.662	21123
866.793	21009
866.924	21032
867.055	21009
867.186	21150
867.317	20982
867.448	21020
867.579	20872
867.71	20960
867.841	21074
867.972	21188
868.103	21005
868.233	21043
868.364	21039
868.495	21074
868.625	21241
868.756	21359
868.886	21188
869.017	21230
869.147	21241
869.278	21454
869.408	21431
869.539	21108
869.669	21329
869.799	21222
869.929	21454
870.06	21443
870.19	21641
870.32	21473
870.45	21641
870.58	21652
870.71	21701
870.84	21732
870.97	21648
871.1	21614
871.23	21835
871.36	21884
871.489	21682
871.619	21899
871.749	21797
871.879	21926
872.008	21903
872.138	21743
872.267	21884
872.397	21884
872.526	21736
872.656	21804
872.785	21686
872.915	21956
873.044	21994
873.173	21945
873.303	21915
873.432	21937
873.561	21964
873.69	21960
873.819	21770
873.948	21953
874.077	21979
874.206	21838
874.335	21892
874.464	22032
874.593	22086
874.722	22109
874.851	22093
874.979	22223
875.108	22207
875.237	22143
875.365	22059
875.494	22036
875.623	22158
875.751	22093
875.88	22139
876.008	22299
876.136	22424
876.265	22440
876.393	22736
876.521	22493
876.65	22550
876.778	22535
876.906	22538
877.034	22466
877.162	22459
877.29	22390
877.418	22459
877.546	22489
877.674	22443
877.802	22485
877.93	22421
878.058	22318
878.185	22344
878.313	22466
878.441	22371
878.568	22207
878.696	22451
878.824	22462
878.951	22588
879.079	22672
879.206	22736
879.333	22729
879.461	22546
879.588	22531
879.715	22626
879.842	22660
879.97	22565
880.097	22409
880.224	22268
880.351	22318
880.478	22325
880.605	22116
880.732	22211
880.859	22470
880.986	22226
881.112	22303
881.239	22105
881.366	22128
881.493	21987
881.619	21960
881.746	21785
881.872	21949
881.999	21804
882.125	21755
882.252	21865
882.378	21842
882.505	21972
882.631	21747
882.757	21622
882.883	21698
883.01	21492
883.136	21462
883.262	21538
883.388	21401
883.514	21572
883.64	21648
883.766	21389
883.892	21382
884.018	21359
884.143	21507
884.269	21496
884.395	21317
884.52	21146
884.646	21245
884.772	21142
884.897	20994
885.023	21173
885.148	21264
885.274	21321
885.399	21279
885.524	21150
885.65	21169
885.775	21043
885.9	21108
886.025	21351
886.15	21214
886.275	21176
886.4	21116
886.525	21077
886.65	21100
886.775	21157
886.9	21192
887.025	21325
887.149	21131
887.274	20986
887.399	20979
887.523	21001
887.648	20963
887.773	20979
887.897	20960
888.021	20971
888.146	20902
888.27	21062
888.395	21020
888.519	20994
888.643	20948
888.767	20994
888.891	20864
889.015	20819
889.139	20937
889.263	20754
889.387	20910
889.511	20963
889.635	20868
889.759	20598
889.883	20777
890.006	20598
890.13	20785
890.254	20667
890.377	20754
890.501	20332
890.624	20476
890.748	20549
890.871	20495
890.995	20248
891.118	20259
891.241	20332
891.364	20362
891.488	20385
891.611	20355
891.734	20389
891.857	20419
891.98	20225
892.103	20400
892.226	20393
892.349	20298
892.471	20142
892.594	20096
892.717	20298
892.839	20259
892.962	20172
893.085	20328
893.207	20103
893.33	20024
893.452	20130
893.575	20423
893.697	20191
893.819	20317
893.941	20309
894.064	20434
894.186	20115
894.308	20138
894.43	20328
894.552	20412
894.674	20313
894.796	20157
894.918	20172
895.04	20130
895.161	20252
895.283	20263
895.405	20187
895.526	20267
895.648	20168
895.769	20191
895.891	20122
896.012	20153
896.134	20214
896.255	20214
896.376	20199
896.498	20157
896.619	20320
896.74	20088
896.861	20267
896.982	20503
897.103	20613
897.224	20400
897.345	20404
897.466	20396
897.587	20450
897.708	20499
897.828	20476
897.949	20301
898.07	20275
898.19	20461
898.311	20442
898.431	20320
898.552	20339
898.672	20461
898.792	20434
898.913	20454
899.033	20370
899.153	20126
899.273	20142
899.393	20134
899.513	20130
899.633	20111
899.753	20130
899.873	20073
899.993	20183
900.113	20069
900.232	20214
900.352	20020
900.472	20035
900.591	19841
900.711	19970
900.83	19913
900.95	20100
901.069	19887
901.189	19845
901.308	19616
901.427	19540
901.546	19628
901.665	19563
901.784	19510
901.904	19381
902.023	19457
902.141	19152
902.26	19076
902.379	19156
902.498	19095
902.617	19099
902.735	19065
902.854	19038
902.973	18913
903.091	18776
903.21	18833
903.328	18707
903.446	18601
903.565	18578
903.683	18475
903.801	18372
903.919	18437
904.038	18388
904.156	18285
904.274	18414
904.392	18243
904.51	18129
904.627	18281
904.745	18395
904.863	18270
904.981	18030
905.098	17893
905.216	17901
905.334	18026
905.451	17878
905.569	17927
905.686	18041
905.803	17882
905.921	17665
906.038	17767
906.155	17745
906.272	17623
906.389	17714
906.506	17512
906.623	17543
906.74	17486
906.857	17368
906.974	17490
907.091	17535
907.208	17589
907.324	17509
907.441	17353
907.557	17334
907.674	17261
907.79	17128
907.907	17121
908.023	17284
908.139	17223
908.256	17178
908.372	17083
908.488	17147
908.604	16908
908.72	16942
908.836	16987
908.952	16889
909.068	16927
909.184	16995
909.3	16961
909.415	17037
909.531	16805
909.647	16755
909.762	16774
909.878	16558
909.993	16580
910.108	16573
910.224	16626
910.339	16683
910.454	16500
910.57	16436
910.685	16447
910.8	16599
910.915	16535
911.03	16432
911.145	16272
911.259	16135
911.374	16287
911.489	16090
911.604	16090
911.718	15934
911.833	15975
911.947	15884
912.062	15823
912.176	15949
912.291	15953
912.405	15949
912.519	16109
912.633	16215
912.748	15983
912.862	15937
912.976	15842
913.09	15724
913.204	15857
913.318	15644
913.431	15766
913.545	15854
913.659	15880
913.772	15770
913.886	15679
914	15591
914.113	15648
914.226	15633
914.34	15622
914.453	15507
914.566	15549
914.68	15469
914.793	15412
914.906	15302
915.019	15306
915.132	15138
915.245	15169
915.358	15211
915.47	15214
915.583	15214
915.696	15291
915.809	15386
915.921	15348
916.034	15077
916.146	15138
916.259	15001
916.371	15093
916.483	15169
916.595	15089
916.708	15039
916.82	15017
916.932	15043
917.044	14834
917.156	14952
917.268	14845
917.38	14979
917.491	14788
917.603	14918
917.715	14883
917.826	14956
917.938	14727
918.049	14617
918.161	14887
918.272	14868
918.384	14883
918.495	14682
918.606	14560
918.717	14549
918.828	14655
918.939	14530
919.05	14495
919.161	14632
919.272	14317
919.383	14541
919.494	14606
919.604	14720
919.715	14507
919.826	14469
919.936	14587
920.047	14625
920.157	14579
920.267	14632
920.378	14488
920.488	14457
920.598	14636
920.708	14750
920.818	14636
920.928	14587
921.038	14796
921.148	14834
921.258	14499
921.368	14381
921.477	14263
921.587	14252
921.697	14180
921.806	14221
921.916	14046
922.025	13913
922.134	13917
922.244	13841
922.353	13894
922.462	13852
922.571	13757
922.68	13601
922.789	13601
922.898	13575
923.007	13499
923.116	13578
923.224	13502
923.333	13597
923.442	13430
923.55	13384
923.659	13369
923.767	13422
923.876	13384
923.984	13457
924.092	13297
924.201	13339
924.309	13236
924.417	13278
924.525	13259
924.633	13213
924.741	14016
924.849	13031
924.956	13179
925.064	13133
925.172	12973
925.279	12981
925.387	13046
925.494	12977
925.602	13069
925.709	12958
925.816	12962
925.924	12913
926.031	12932
926.138	12890
926.245	12977
926.352	12852
926.459	13042
926.566	13076
926.673	12829
926.779	12677
926.886	12715
926.993	12635
927.099	12566
927.206	12490
927.312	12544
927.419	12513
927.525	12486
927.631	12525
927.737	12407
927.843	12437
927.95	12281
928.056	12369
928.162	12448
928.267	12391
928.373	13015
928.479	12330
928.585	12159
928.69	12285
928.796	12380
928.901	12292
929.007	12079
929.112	12262
929.218	12254
929.323	12136
929.428	12060
929.533	12262
929.638	12003
929.743	12026
929.848	12053
929.953	12049
930.058	11942
930.163	11840
930.267	11741
930.372	11893
930.477	11745
930.581	11927
930.685	11893
930.79	11665
930.894	11680
930.998	11638
931.103	11786
931.207	11444
931.311	11337
931.415	11296
931.519	11041
931.623	11067
