Data from test_V78500241_1052.txt Node
Date: Fri Mar 25 15:17:10 CST 2022
User: usil
Spectrometer: V785-0024
Trigger mode: 0
Integration Time (sec): 4.000000E-1
Scans to average: 1
Nonlinearity correction enabled: false
Boxcar width: 0
Storing dark spectrum: false
XAxis mode: Wavelengths
Number of Pixels in Spectrum: 1024
>>>>>Begin Spectral Data<<<<<
801.071	28055
801.214	28036
801.356	27770
801.499	27671
801.641	27641
801.783	27663
801.926	27838
802.068	27667
802.211	27549
802.353	27306
802.496	27241
802.638	27294
802.78	27268
802.923	27184
803.065	27214
803.208	27264
803.35	27199
803.492	27226
803.635	27287
803.777	27279
803.919	27458
804.061	27838
804.204	27587
804.346	27291
804.488	27420
804.63	27443
804.773	27294
804.915	27595
805.057	27386
805.199	27416
805.341	27450
805.483	27690
805.626	27568
805.768	27542
805.91	27603
806.052	27603
806.194	27603
806.336	27793
806.478	27667
806.62	27637
806.762	27888
806.904	27739
807.046	28169
807.188	28006
807.33	27956
807.472	28067
807.614	27850
807.756	27880
807.898	27914
808.04	27808
808.182	27838
808.324	27918
808.465	27994
808.607	28120
808.749	28394
808.891	28352
809.033	28325
809.174	28314
809.316	28181
809.458	28299
809.6	28207
809.741	28375
809.883	28375
810.025	28459
810.166	28451
810.308	28554
810.45	28394
810.591	28386
810.733	28284
810.875	28268
811.016	28223
811.158	28211
811.299	28291
811.441	28390
811.582	28432
811.724	28375
811.865	28204
812.007	28322
812.148	28325
812.29	28226
812.431	28421
812.573	28626
812.714	28854
812.855	28725
812.997	28972
813.138	28862
813.279	28923
813.421	28763
813.562	28748
813.703	28569
813.845	28542
813.986	28226
814.127	27975
814.268	27876
814.41	27869
814.551	27964
814.692	28021
814.833	27884
814.974	28013
815.115	27949
815.256	27736
815.397	27804
815.539	27865
815.68	27656
815.821	27690
815.962	27835
816.103	27694
816.244	27732
816.385	27382
816.526	27496
816.666	27294
816.807	27241
816.948	27222
817.089	27382
817.23	27355
817.371	27367
817.512	27298
817.653	27199
817.793	27260
817.934	27218
818.075	27306
818.216	27279
818.356	27249
818.497	27195
818.638	27093
818.778	27024
818.919	26971
819.06	27104
819.2	27028
819.341	27028
819.481	27222
819.622	27237
819.762	27523
819.903	27557
820.043	27477
820.184	27344
820.324	27279
820.465	27389
820.605	27466
820.746	27382
820.886	27306
821.026	27351
821.167	27264
821.307	27351
821.447	27237
821.588	27154
821.728	27142
821.868	26849
822.008	26792
822.149	26754
822.289	26705
822.429	26499
822.569	26549
822.709	26412
822.849	26248
822.99	26336
823.13	26180
823.27	26317
823.41	26069
823.55	25906
823.69	26233
823.83	26054
823.97	26077
824.11	25875
824.25	25955
824.389	25864
824.529	26039
824.669	25913
824.809	26069
824.949	26024
825.089	26035
825.228	26073
825.368	25845
825.508	25696
825.648	25757
825.787	25769
825.927	25909
826.067	25624
826.206	25769
826.346	25841
826.485	25784
826.625	25795
826.765	25841
826.904	25761
827.044	25529
827.183	25601
827.323	25358
827.462	25605
827.601	25563
827.741	25422
827.88	25483
828.02	25441
828.159	25434
828.298	25556
828.437	25487
828.577	25343
828.716	25575
828.855	25430
828.994	25285
829.134	25247
829.273	25129
829.412	25179
829.551	25122
829.69	25206
829.829	25206
829.968	25369
830.107	25217
830.246	25259
830.385	25206
830.524	25228
830.663	25088
830.802	25031
830.941	24939
831.08	24665
831.219	24932
831.357	24894
831.496	25038
831.635	24798
831.774	24715
831.913	24582
832.051	24627
832.19	24639
832.329	24639
832.467	24479
832.606	24547
832.744	24502
832.883	24441
833.022	24429
833.16	24418
833.299	24532
833.437	24589
833.576	24601
833.714	24684
833.852	24650
833.991	24460
834.129	24681
834.267	24681
834.406	24563
834.544	24654
834.682	24608
834.821	24601
834.959	24738
835.097	24654
835.235	24776
835.373	24479
835.511	24597
835.65	24403
835.788	24414
835.926	24273
836.064	24292
836.202	24414
836.34	24505
836.478	24525
836.615	24410
836.753	24361
836.891	24563
837.029	24353
837.167	24380
837.305	24372
837.443	24258
837.58	24251
837.718	24311
837.856	24266
837.993	24117
838.131	24247
838.269	24216
838.406	24140
838.544	23996
838.681	23927
838.819	23889
838.956	23756
839.094	23691
839.231	23870
839.369	23958
839.506	24148
839.643	24064
839.781	23722
839.918	23630
840.055	23775
840.193	23638
840.33	23684
840.467	23585
840.604	23775
840.742	23950
840.879	23592
841.016	23497
841.153	23535
841.29	23729
841.427	23627
841.564	23611
841.701	23592
841.838	23577
841.975	23417
842.112	23478
842.249	23410
842.385	23501
842.522	23615
842.659	23486
842.796	23376
842.933	23463
843.069	23528
843.206	23341
843.343	23535
843.479	23425
843.616	23433
843.752	23326
843.889	23136
844.025	23334
844.162	23113
844.298	23292
844.435	23162
844.571	23147
844.708	23239
844.844	23387
844.98	23353
845.117	23292
845.253	22976
845.389	23056
845.525	23143
845.661	23090
845.798	22854
845.934	23071
846.07	22889
846.206	22858
846.342	23109
846.478	22961
846.614	22679
846.75	22531
846.886	22668
847.022	22713
847.158	22729
847.294	22626
847.429	22565
847.565	22599
847.701	22847
847.837	22474
847.972	22405
848.108	22504
848.244	22512
848.379	22246
848.515	22261
848.65	22131
848.786	22310
848.921	22234
849.057	22409
849.192	22299
849.328	22204
849.463	22200
849.598	22154
849.734	22128
849.869	22234
850.004	22082
850.14	21949
850.275	22158
850.41	21922
850.545	21895
850.68	22010
850.815	21994
850.95	21934
851.085	22162
851.22	22124
851.355	22051
851.49	21892
851.625	21937
851.76	21892
851.895	21823
852.03	21903
852.165	22059
852.299	21972
852.434	22162
852.569	22025
852.703	22040
852.838	22082
852.973	22082
853.107	22070
853.242	21865
853.376	21899
853.511	21644
853.645	21663
853.78	21854
853.914	21808
854.048	21846
854.183	21861
854.317	21956
854.451	22078
854.585	21778
854.72	21766
854.854	21937
854.988	21755
855.122	21865
855.256	21736
855.39	21819
855.524	21831
855.658	21827
855.792	21793
855.926	21846
856.06	21915
856.194	21827
856.327	21827
856.461	21762
856.595	21759
856.729	21766
856.862	21857
856.996	21888
857.13	21880
857.263	22070
857.397	21854
857.53	21812
857.664	21797
857.797	21823
857.931	21926
858.064	21934
858.197	21895
858.331	21804
858.464	21827
858.597	21690
858.731	21770
858.864	21751
858.997	21892
859.13	21762
859.263	21854
859.396	21907
859.529	21804
859.662	21865
859.795	21774
859.928	21865
860.061	21987
860.194	22010
860.327	21816
860.46	21930
860.592	21903
860.725	21987
860.858	21895
860.99	21892
861.123	21804
861.256	21705
861.388	21793
861.521	22516
861.653	21671
861.786	21500
861.918	21663
862.05	21656
862.183	21690
862.315	21766
862.447	21831
862.58	21625
862.712	21485
862.844	21435
862.976	21587
863.108	21485
863.24	21934
863.372	21511
863.504	21515
863.636	21515
863.768	21587
863.9	21618
864.032	21507
864.164	21603
864.296	21504
864.428	21595
864.559	21682
864.691	21694
864.823	21530
864.954	21595
865.086	21488
865.217	21515
865.349	21386
865.48	21382
865.612	21340
865.743	21477
865.875	21435
866.006	21401
866.137	21355
866.269	21386
866.4	21370
866.531	21302
866.662	21336
866.793	21336
866.924	21306
867.055	21332
867.186	21344
867.317	21279
867.448	21184
867.579	21302
867.71	21161
867.841	21439
867.972	21302
868.103	21397
868.233	21351
868.364	21279
868.495	21351
868.625	21504
868.756	21682
868.886	21568
869.017	21587
869.147	21675
869.278	21660
869.408	21663
869.539	21603
869.669	21713
869.799	21652
869.929	21660
870.06	21724
870.19	21762
870.32	21774
870.45	21850
870.58	21968
870.71	22135
870.84	22086
870.97	22029
871.1	21979
871.23	22154
871.36	22150
871.489	22040
871.619	22181
871.749	22226
871.879	22112
872.008	22287
872.138	22280
872.267	22238
872.397	22048
872.526	21945
872.656	21899
872.785	22010
872.915	22177
873.044	22177
873.173	22207
873.303	22215
873.432	22238
873.561	22382
873.69	22299
873.819	22097
873.948	22280
874.077	22295
874.206	22139
874.335	22158
874.464	22310
874.593	22443
874.722	22405
874.851	22356
874.979	22428
875.108	22489
875.237	22356
875.365	22242
875.494	22417
875.623	22379
875.751	22485
875.88	22489
876.008	22607
876.136	22451
876.265	22816
876.393	22885
876.521	22949
876.65	22934
876.778	22885
876.906	22759
877.034	22923
877.162	22839
877.29	22790
877.418	22740
877.546	22774
877.674	22694
877.802	22717
877.93	22877
878.058	22626
878.185	22599
878.313	22752
878.441	22675
878.568	22584
878.696	22736
878.824	22812
878.951	22801
879.079	22862
879.206	23193
879.333	22949
879.461	22831
879.588	22972
879.715	22877
879.842	22976
879.97	22793
880.097	22554
880.224	22546
880.351	22611
880.478	22618
880.605	22485
880.732	22580
880.859	22763
880.986	22596
881.112	22588
881.239	22386
881.366	22249
881.493	22181
881.619	22196
881.746	22128
881.872	22082
881.999	22116
882.125	22086
882.252	22177
882.378	22101
882.505	22234
882.631	22002
882.757	21949
882.883	21907
883.01	21937
883.136	21922
883.262	21804
883.388	21603
883.514	21835
883.64	21850
883.766	21842
883.892	21488
884.018	21781
884.143	21751
884.269	21831
884.395	21492
884.52	21454
884.646	21401
884.772	21363
884.897	21302
885.023	21587
885.148	21549
885.274	21641
885.399	21603
885.524	21469
885.65	21351
885.775	21485
885.9	21511
886.025	21587
886.15	21428
886.275	21492
886.4	21370
886.525	21401
886.65	21336
886.775	21408
886.9	21534
887.025	21682
887.149	21466
887.274	21260
887.399	21249
887.523	21154
887.648	21127
887.773	21043
887.897	21176
888.021	21298
888.146	21188
888.27	21428
888.395	21241
888.519	21230
888.643	21355
888.767	21306
888.891	21268
889.015	21024
889.139	21119
889.263	21028
889.387	21214
889.511	21154
889.635	21119
889.759	21108
889.883	21055
890.006	21009
890.13	21005
890.254	20990
890.377	20952
890.501	20758
890.624	20796
890.748	20845
890.871	20716
890.995	20644
891.118	20602
891.241	20590
891.364	20579
891.488	20777
891.611	20537
891.734	20541
891.857	20655
891.98	20758
892.103	20533
892.226	20507
892.349	20495
892.471	20469
892.594	20446
892.717	20484
892.839	20476
892.962	20560
893.085	20552
893.207	20503
893.33	20377
893.452	20461
893.575	20480
893.697	20389
893.819	20590
893.941	20659
894.064	20594
894.186	20457
894.308	20343
894.43	20587
894.552	20575
894.674	20587
894.796	20358
894.918	20423
895.04	20438
895.161	20461
895.283	20427
895.405	20457
895.526	20419
895.648	20545
895.769	20454
895.891	20545
896.012	20552
896.134	20579
896.255	20556
896.376	20415
896.498	20503
896.619	20457
896.74	20499
896.861	20560
896.982	20739
897.103	20773
897.224	20765
897.345	20720
897.466	20651
897.587	20583
897.708	20758
897.828	20731
897.949	20621
898.07	20461
898.19	20697
898.311	20697
898.431	20587
898.552	20613
898.672	20701
898.792	20762
898.913	20594
899.033	20594
899.153	20530
899.273	20389
899.393	20442
899.513	20301
899.633	20438
899.753	20488
899.873	20427
899.993	20374
900.113	20389
900.232	20263
900.352	20355
900.472	20305
900.591	20115
900.711	20134
900.83	20240
900.95	20309
901.069	20214
901.189	19997
901.308	19791
901.427	19662
901.546	19757
901.665	19757
901.784	19765
901.904	19715
902.023	19457
902.141	19331
902.26	19255
902.379	19426
902.498	19339
902.617	19259
902.735	19472
902.854	19282
902.973	19194
903.091	18920
903.21	18913
903.328	18913
903.446	18897
903.565	18757
903.683	18791
903.801	18593
903.919	18757
904.038	18757
904.156	18547
904.274	18620
904.392	18433
904.51	18391
904.627	18426
904.745	18620
904.863	18513
904.981	18300
905.098	18144
905.216	18159
905.334	18289
905.451	18178
905.569	18197
905.686	18292
905.803	18186
905.921	17958
906.038	18060
906.155	18003
906.272	17961
906.389	17840
906.506	17756
906.623	17737
906.74	17729
906.857	17627
906.974	17699
907.091	17802
907.208	17870
907.324	17691
907.441	17665
907.557	17516
907.674	17410
907.79	17448
907.907	17444
908.023	17543
908.139	17467
908.256	17452
908.372	17292
908.488	17341
908.604	17212
908.72	17212
908.836	17250
908.952	17121
909.068	17155
909.184	17318
909.3	17159
909.415	17250
909.531	17299
909.647	16869
909.762	16896
909.878	16881
909.993	16904
910.108	16900
910.224	16911
910.339	16816
910.454	16755
910.57	16763
910.685	16607
910.8	16938
910.915	16752
911.03	16740
911.145	16432
911.259	16402
911.374	16478
911.489	16443
911.604	16322
911.718	16192
911.833	16154
911.947	16055
912.062	15991
912.176	16204
912.291	16074
912.405	16234
912.519	16398
912.633	16390
912.748	16207
912.862	16128
912.976	16101
913.09	15911
913.204	15861
913.318	15941
913.431	16105
913.545	16059
913.659	16063
913.772	15953
913.886	15884
914	15755
914.113	15915
914.226	15953
914.34	15903
914.453	15625
914.566	15778
914.68	15743
914.793	15705
914.906	15580
915.019	15386
915.132	15401
915.245	15439
915.358	15500
915.47	15462
915.583	15389
915.696	15530
915.809	15538
915.921	15469
916.034	15386
916.146	15268
916.259	15279
916.371	15310
916.483	15283
916.595	15218
916.708	15230
916.82	15184
916.932	15222
917.044	15188
917.156	15127
917.268	14998
917.38	15066
917.491	14994
917.603	14960
917.715	15017
917.826	15116
917.938	15024
918.049	14765
918.161	14830
918.272	15150
918.384	15135
918.495	15058
918.606	14906
918.717	14765
918.828	14746
918.939	14785
919.05	14716
919.161	14861
919.272	14533
919.383	14632
919.494	14853
919.604	14845
919.715	14781
919.826	14682
919.936	14708
920.047	14743
920.157	14705
920.267	14990
920.378	14750
920.488	14712
920.598	14864
920.708	14960
920.818	14872
920.928	14880
921.038	14994
921.148	14952
921.258	14754
921.368	14533
921.477	14507
921.587	14461
921.697	14282
921.806	14492
921.916	14332
922.025	14210
922.134	14225
922.244	14107
922.353	14115
922.462	13974
922.571	14039
922.68	13731
922.789	13818
922.898	13746
923.007	13647
923.116	13731
923.224	13776
923.333	13784
923.442	13601
923.55	13594
923.659	13571
923.767	13616
923.876	13487
923.984	13597
924.092	13457
924.201	13499
924.309	13419
924.417	13438
924.525	13331
924.633	13373
924.741	14389
924.849	13183
924.956	13377
925.064	13198
925.172	13141
925.279	13126
925.387	13164
925.494	13187
925.602	13270
925.709	13175
925.816	13015
925.924	13118
926.031	13175
926.138	13107
926.245	13114
926.352	12993
926.459	13080
926.566	13194
926.673	13065
926.779	12886
926.886	12878
926.993	12798
927.099	12753
927.206	12726
927.312	12658
927.419	12749
927.525	12688
927.631	12802
927.737	12616
927.843	12536
927.95	12414
928.056	12483
928.162	12563
928.267	12623
928.373	13053
928.479	12604
928.585	12437
928.69	12422
928.796	12452
928.901	12433
929.007	12300
929.112	12388
929.218	12384
929.323	12292
929.428	12258
929.533	12422
929.638	12140
929.743	12182
929.848	12228
929.953	12167
930.058	12087
930.163	11901
930.267	11984
930.372	12049
930.477	11973
930.581	12133
930.685	12038
930.79	11863
930.894	11847
930.998	11665
931.103	11931
931.207	11634
931.311	11509
931.415	11391
931.519	11136
931.623	11136
