Data from test_V78500241_830.txt Node
Date: Fri Mar 25 15:15:38 CST 2022
User: usil
Spectrometer: V785-0024
Trigger mode: 0
Integration Time (sec): 4.000000E-1
Scans to average: 1
Nonlinearity correction enabled: false
Boxcar width: 0
Storing dark spectrum: false
XAxis mode: Wavelengths
Number of Pixels in Spectrum: 1024
>>>>>Begin Spectral Data<<<<<
801.071	28337
801.214	28344
801.356	28002
801.499	28044
801.641	27991
801.783	27934
801.926	27850
802.068	28013
802.211	27903
802.353	27660
802.496	27660
802.638	27633
802.78	27504
802.923	27591
803.065	27561
803.208	27538
803.35	27641
803.492	27641
803.635	27838
803.777	27717
803.919	27888
804.061	28166
804.204	27884
804.346	27785
804.488	27732
804.63	27622
804.773	27622
804.915	27831
805.057	27949
805.199	27781
805.341	27846
805.483	27884
805.626	28036
805.768	27770
805.91	27914
806.052	27903
806.194	27918
806.336	28055
806.478	27880
806.62	28181
806.762	28109
806.904	28204
807.046	28421
807.188	28211
807.33	28382
807.472	28344
807.614	28375
807.756	28257
807.898	28223
808.04	28219
808.182	28207
808.324	28147
808.465	28333
808.607	28459
808.749	28607
808.891	28630
809.033	28653
809.174	28767
809.316	28588
809.458	28622
809.6	28516
809.741	28721
809.883	28748
810.025	28927
810.166	28812
810.308	28869
810.45	28866
810.591	28721
810.733	28641
810.875	28599
811.016	28565
811.158	28424
811.299	28763
811.441	28877
811.582	28698
811.724	28634
811.865	28462
812.007	28713
812.148	28504
812.29	28535
812.431	28866
812.573	28873
812.714	28961
812.855	29299
812.997	29178
813.138	29395
813.279	29387
813.421	29254
813.562	29121
813.703	28965
813.845	29006
813.986	28641
814.127	28375
814.268	28382
814.41	28607
814.551	28261
814.692	28523
814.833	28143
814.974	28375
815.115	28413
815.256	28128
815.397	28246
815.539	28120
815.68	28112
815.821	28063
815.962	28257
816.103	28097
816.244	28021
816.385	27914
816.526	27880
816.666	27743
816.807	27755
816.948	27686
817.089	27831
817.23	27698
817.371	27641
817.512	27694
817.653	27519
817.793	27595
817.934	27572
818.075	27698
818.216	27637
818.356	27625
818.497	27485
818.638	27462
818.778	27408
818.919	27332
819.06	27477
819.2	27450
819.341	27580
819.481	27686
819.622	27644
819.762	28067
819.903	27816
820.043	27800
820.184	27743
820.324	27816
820.465	27823
820.605	27686
820.746	27819
820.886	27682
821.026	27778
821.167	27614
821.307	27713
821.447	27633
821.588	27671
821.728	27386
821.868	27252
822.008	27173
822.149	27127
822.289	26956
822.429	26925
822.569	26834
822.709	26804
822.849	26598
822.99	26705
823.13	26522
823.27	26602
823.41	26609
823.55	26396
823.69	26495
823.83	26434
823.97	26248
824.11	26180
824.25	26313
824.389	26286
824.529	26469
824.669	26282
824.809	26469
824.949	26412
825.089	26259
825.228	26343
825.368	26088
825.508	26218
825.648	26320
825.787	26046
825.927	26206
826.067	25993
826.206	26126
826.346	26145
826.485	26161
826.625	26122
826.765	26309
826.904	26218
827.044	26046
827.183	25917
827.323	25635
827.462	25936
827.601	25841
827.741	25932
827.88	26024
828.02	25780
828.159	25856
828.298	25795
828.437	25959
828.577	25830
828.716	25928
828.855	25780
828.994	25495
829.134	25613
829.273	25567
829.412	25537
829.551	25518
829.69	25510
829.829	25635
829.968	25712
830.107	25677
830.246	25540
830.385	25540
830.524	25479
830.663	25339
830.802	25232
830.941	25164
831.08	25198
831.219	25240
831.357	25171
831.496	25441
831.635	25110
831.774	25160
831.913	24958
832.051	25012
832.19	25034
832.329	24875
832.467	24806
832.606	24829
832.744	24772
832.883	24772
833.022	24840
833.16	24966
833.299	24966
833.437	24776
833.576	24924
833.714	24829
833.852	24966
833.991	24882
834.129	24939
834.267	24958
834.406	24905
834.544	25012
834.682	24920
834.821	24871
834.959	24981
835.097	24878
835.235	24916
835.373	24981
835.511	24905
835.65	24730
835.788	24833
835.926	24722
836.064	24566
836.202	24673
836.34	24764
836.478	24749
836.615	24734
836.753	24601
836.891	24909
837.029	24787
837.167	24627
837.305	24639
837.443	24616
837.58	24741
837.718	24646
837.856	24604
837.993	24445
838.131	24486
838.269	24285
838.406	24467
838.544	24376
838.681	24220
838.819	24178
838.956	23992
839.094	23996
839.231	24098
839.369	24022
839.506	24486
839.643	24304
839.781	23988
839.918	23847
840.055	24072
840.193	23946
840.33	23988
840.467	23984
840.604	23980
840.742	24311
840.879	23745
841.016	23866
841.153	23783
841.29	24076
841.427	23946
841.564	24091
841.701	23904
841.838	23863
841.975	23779
842.112	23824
842.249	23714
842.385	23672
842.522	23965
842.659	23707
842.796	23726
842.933	23703
843.069	23786
843.206	23790
843.343	23737
843.479	23737
843.616	23649
843.752	23471
843.889	23448
844.025	23665
844.162	23395
844.298	23497
844.435	23410
844.571	23417
844.708	23505
844.844	23592
844.98	23562
845.117	23661
845.253	23505
845.389	23353
845.525	23315
845.661	23326
845.798	23296
845.934	23269
846.07	23075
846.206	23174
846.342	23326
846.478	23212
846.614	22980
846.75	22919
846.886	22957
847.022	23060
847.158	22873
847.294	22946
847.429	22881
847.565	22892
847.701	23105
847.837	22561
847.972	22664
848.108	22710
848.244	22725
848.379	22504
848.515	22459
848.65	22478
848.786	22485
848.921	22698
849.057	22580
849.192	22531
849.328	22618
849.463	22603
849.598	22409
849.734	22390
849.869	22455
850.004	22131
850.14	22272
850.275	22447
850.41	22230
850.545	22284
850.68	22242
850.815	22257
850.95	22112
851.085	22246
851.22	22455
851.355	22291
851.49	22314
851.625	22200
851.76	22196
851.895	22158
852.03	22086
852.165	22303
852.299	22356
852.434	22417
852.569	22238
852.703	22219
852.838	22268
852.973	22306
853.107	22432
853.242	22284
853.376	22181
853.511	21994
853.645	22086
853.78	22253
853.914	22029
854.048	22147
854.183	22147
854.317	22135
854.451	22284
854.585	22090
854.72	22017
854.854	22246
854.988	21983
855.122	21998
855.256	22051
855.39	22093
855.524	22128
855.658	22158
855.792	22010
855.926	22166
856.06	22124
856.194	22261
856.327	22059
856.461	22017
856.595	22017
856.729	22093
856.862	22177
856.996	22128
857.13	22116
857.263	22295
857.397	22207
857.53	22013
857.664	22143
857.797	22169
857.931	22150
858.064	22116
858.197	22291
858.331	22048
858.464	22017
858.597	22017
858.731	21937
858.864	21968
858.997	22036
859.13	22070
859.263	22128
859.396	22215
859.529	22063
859.662	22017
859.795	22040
859.928	22116
860.061	22268
860.194	22169
860.327	22074
860.46	22070
860.592	22242
860.725	22341
860.858	22230
860.99	22139
861.123	22006
861.256	22067
861.388	22078
861.521	22938
861.653	21937
861.786	21876
861.918	21926
862.05	21812
862.183	22147
862.315	22063
862.447	22166
862.58	21979
862.712	21747
862.844	21778
862.976	21823
863.108	21812
863.24	22025
863.372	21720
863.504	21793
863.636	21717
863.768	21759
863.9	21747
864.032	21762
864.164	21850
864.296	21739
864.428	21884
864.559	21903
864.691	21743
864.823	21804
864.954	21812
865.086	21800
865.217	21720
865.349	21583
865.48	21690
865.612	21580
865.743	21778
865.875	21789
866.006	21572
866.137	21637
866.269	21511
866.4	21557
866.531	21580
866.662	21618
866.793	21481
866.924	21477
867.055	21713
867.186	21587
867.317	21519
867.448	21488
867.579	21606
867.71	21431
867.841	21477
867.972	21595
868.103	21477
868.233	21587
868.364	21583
868.495	21755
868.625	21838
868.756	21907
868.886	21728
869.017	21770
869.147	21895
869.278	21968
869.408	21903
869.539	21785
869.669	21937
869.799	21911
869.929	21854
870.06	21918
870.19	22169
870.32	22204
870.45	22090
870.58	22234
870.71	22466
870.84	22280
870.97	22230
871.1	22238
871.23	22318
871.36	22481
871.489	22318
871.619	22363
871.749	22379
871.879	22344
872.008	22421
872.138	22394
872.267	22459
872.397	22268
872.526	22139
872.656	22276
872.785	22272
872.915	22451
873.044	22569
873.173	22432
873.303	22516
873.432	22481
873.561	22538
873.69	22417
873.819	22447
873.948	22497
874.077	22485
874.206	22352
874.335	22436
874.464	22478
874.593	22634
874.722	22733
874.851	22809
874.979	22630
875.108	22664
875.237	22466
875.365	22554
875.494	22660
875.623	22596
875.751	22565
875.88	22641
876.008	22733
876.136	22831
876.265	23052
876.393	23105
876.521	23147
876.65	23113
876.778	23033
876.906	22999
877.034	22835
877.162	22942
877.29	22995
877.418	22946
877.546	22927
877.674	23018
877.802	22953
877.93	22900
878.058	23006
878.185	22839
878.313	22873
878.441	22858
878.568	22649
878.696	23003
878.824	22934
878.951	22953
879.079	23052
879.206	23379
879.333	23010
879.461	22938
879.588	23178
879.715	23033
879.842	23159
879.97	22987
880.097	22877
880.224	22854
880.351	22904
880.478	22889
880.605	22767
880.732	22752
880.859	22919
880.986	22653
881.112	22790
881.239	22656
881.366	22565
881.493	22424
881.619	22287
881.746	22447
881.872	22356
881.999	22325
882.125	22325
882.252	22405
882.378	22322
882.505	22360
882.631	22242
882.757	22051
882.883	22097
883.01	22128
883.136	22124
883.262	21831
883.388	21800
883.514	21983
883.64	21987
883.766	21888
883.892	21945
884.018	21835
884.143	22013
884.269	22082
884.395	21812
884.52	21633
884.646	21766
884.772	21633
884.897	21614
885.023	21629
885.148	21720
885.274	21850
885.399	21705
885.524	21667
885.65	21736
885.775	21625
885.9	21622
886.025	21736
886.15	21679
886.275	21637
886.4	21652
886.525	21701
886.65	21671
886.775	21580
886.9	21774
887.025	21895
887.149	21622
887.274	21469
887.399	21488
887.523	21591
887.648	21389
887.773	21363
887.897	21583
888.021	21496
888.146	21389
888.27	21572
888.395	21515
888.519	21538
888.643	21485
888.767	21553
888.891	21374
889.015	21275
889.139	21287
889.263	21150
889.387	21313
889.511	21359
889.635	21363
889.759	21287
889.883	21287
890.006	21165
890.13	21298
890.254	21116
890.377	21081
890.501	20971
890.624	21028
890.748	21146
890.871	20925
890.995	20746
891.118	20777
891.241	20777
891.364	20864
891.488	20921
891.611	20811
891.734	20842
891.857	20887
891.98	20872
892.103	20899
892.226	20895
892.349	20834
892.471	20617
892.594	20617
892.717	20754
892.839	20651
892.962	20762
893.085	20689
893.207	20735
893.33	20632
893.452	20594
893.575	20743
893.697	20670
893.819	20800
893.941	21058
894.064	20918
894.186	20708
894.308	20636
894.43	20743
894.552	20876
894.674	20804
894.796	20632
894.918	20640
895.04	20636
895.161	20872
895.283	20621
895.405	20655
895.526	20640
895.648	20689
895.769	20701
895.891	20720
896.012	20811
896.134	20834
896.255	20762
896.376	20750
896.498	20667
896.619	20579
896.74	20701
896.861	20716
896.982	20979
897.103	21184
897.224	20906
897.345	20902
897.466	20807
897.587	20876
897.708	21161
897.828	20998
897.949	20800
898.07	20819
898.19	20857
898.311	20944
898.431	20864
898.552	20819
898.672	21055
898.792	21009
898.913	20944
899.033	20792
899.153	20651
899.273	20659
899.393	20625
899.513	20648
899.633	20743
899.753	20712
899.873	20568
899.993	20579
900.113	20655
900.232	20625
900.352	20564
900.472	20366
900.591	20370
900.711	20457
900.83	20381
900.95	20423
901.069	20389
901.189	20278
901.308	20142
901.427	20012
901.546	20065
901.665	20012
901.784	20024
901.904	19750
902.023	19784
902.141	19624
902.26	19521
902.379	19563
902.498	19556
902.617	19419
902.735	19487
902.854	19453
902.973	19430
903.091	19194
903.21	19137
903.328	19206
903.446	19008
903.565	19023
903.683	18966
903.801	18897
903.919	18909
904.038	18993
904.156	18703
904.274	18829
904.392	18582
904.51	18681
904.627	18734
904.745	18646
904.863	18703
904.981	18502
905.098	18467
905.216	18407
905.334	18418
905.451	18334
905.569	18441
905.686	18342
905.803	18418
905.921	18213
906.038	18338
906.155	18098
906.272	18110
906.389	18053
906.506	17885
906.623	18026
906.74	17786
906.857	17745
906.974	17764
907.091	17969
907.208	17954
907.324	17897
907.441	17710
907.557	17577
907.674	17714
907.79	17661
907.907	17585
908.023	17577
908.139	17737
908.256	17551
908.372	17421
908.488	17509
908.604	17376
908.72	17284
908.836	17292
908.952	17326
909.068	17307
909.184	17372
909.3	17330
909.415	17345
909.531	17337
909.647	17166
909.762	17086
909.878	17037
909.993	17025
910.108	16942
910.224	17029
910.339	17064
910.454	16957
910.57	16877
910.685	16729
910.8	17018
910.915	16949
911.03	16721
911.145	16687
911.259	16577
911.374	16618
911.489	16497
911.604	16535
911.718	16325
911.833	16314
911.947	16261
912.062	16200
912.176	16371
912.291	16402
912.405	16299
912.519	16470
912.633	16546
912.748	16314
912.862	16287
912.976	16158
913.09	15926
913.204	16173
913.318	16188
913.431	16185
913.545	16215
913.659	16185
913.772	15972
913.886	15994
914	16006
914.113	16051
914.226	16154
914.34	15934
914.453	15835
914.566	15991
914.68	15819
914.793	15835
914.906	15481
915.019	15454
915.132	15504
915.245	15587
915.358	15545
915.47	15610
915.583	15587
915.696	15591
915.809	15709
915.921	15751
916.034	15431
916.146	15477
916.259	15386
916.371	15466
916.483	15466
916.595	15416
916.708	15519
916.82	15397
916.932	15332
917.044	15408
917.156	15268
917.268	15226
917.38	15272
917.491	15260
917.603	15138
917.715	15237
917.826	15268
917.938	15093
918.049	14982
918.161	15074
918.272	15275
918.384	15256
918.495	15123
918.606	14937
918.717	14902
918.828	14963
918.939	15066
919.05	14880
919.161	14895
919.272	14758
919.383	14739
919.494	14918
919.604	15077
919.715	14963
919.826	14861
919.936	14906
920.047	14971
920.157	14876
920.267	15119
920.378	14925
920.488	14842
920.598	14975
920.708	15226
920.818	15024
920.928	15066
921.038	15230
921.148	15058
921.258	14750
921.368	14811
921.477	14571
921.587	14579
921.697	14431
921.806	14575
921.916	14408
922.025	14233
922.134	14252
922.244	14221
922.353	14294
922.462	14103
922.571	14020
922.68	13951
922.789	13986
922.898	13921
923.007	13826
923.116	13947
923.224	13932
923.333	13841
923.442	13799
923.55	13670
923.659	13677
923.767	13776
923.876	13662
923.984	13723
924.092	13601
924.201	13647
924.309	13620
924.417	13594
924.525	13529
924.633	13609
924.741	14336
924.849	13430
924.956	13407
925.064	13365
925.172	13213
925.279	13293
925.387	13308
925.494	13240
925.602	13403
925.709	13301
925.816	13175
925.924	13297
926.031	13331
926.138	13266
926.245	13228
926.352	13122
926.459	13297
926.566	13343
926.673	13202
926.779	13004
926.886	13046
926.993	12954
927.099	12764
927.206	12787
927.312	12806
927.419	12924
927.525	12951
927.631	12825
927.737	12654
927.843	12715
927.95	12578
928.056	12749
928.162	12688
928.267	12715
928.373	13278
928.479	12673
928.585	12445
928.69	12601
928.796	12662
928.901	12650
929.007	12315
929.112	12521
929.218	12494
929.323	12498
929.428	12410
929.533	12509
929.638	12342
929.743	12327
929.848	12418
929.953	12304
930.058	12213
930.163	11980
930.267	12015
930.372	12106
930.477	12034
930.581	12201
930.685	12114
930.79	12015
930.894	12007
930.998	11927
931.103	12015
931.207	11733
931.311	11558
931.415	11505
931.519	11299
931.623	11288
