Data from test_V78500241_458.txt Node
Date: Fri Mar 25 15:13:02 CST 2022
User: usil
Spectrometer: V785-0024
Trigger mode: 0
Integration Time (sec): 4.000000E-1
Scans to average: 1
Nonlinearity correction enabled: false
Boxcar width: 0
Storing dark spectrum: false
XAxis mode: Wavelengths
Number of Pixels in Spectrum: 1024
>>>>>Begin Spectral Data<<<<<
801.071	27363
801.214	27382
801.356	26963
801.499	26998
801.641	26895
801.783	27024
801.926	26925
802.068	26864
802.211	26823
802.353	26765
802.496	26629
802.638	26590
802.78	26530
802.923	26552
803.065	26530
803.208	26457
803.35	26590
803.492	26587
803.635	26693
803.777	26632
803.919	26777
804.061	26994
804.204	26689
804.346	26537
804.488	26575
804.63	26769
804.773	26617
804.915	26571
805.057	26777
805.199	26667
805.341	26724
805.483	26838
805.626	26701
805.768	26716
805.91	26849
806.052	26689
806.194	26640
806.336	26982
806.478	26845
806.62	26743
806.762	26910
806.904	27089
807.046	27275
807.188	27195
807.33	27180
807.472	27245
807.614	27135
807.756	27268
807.898	27032
808.04	27043
808.182	26990
808.324	26940
808.465	27024
808.607	27058
808.749	27340
808.891	27473
809.033	27633
809.174	27507
809.316	27382
809.458	27500
809.6	27298
809.741	27412
809.883	27545
810.025	27603
810.166	27728
810.308	27694
810.45	27686
810.591	27766
810.733	27473
810.875	27416
811.016	27104
811.158	27218
811.299	27332
811.441	27454
811.582	27553
811.724	27222
811.865	27416
812.007	27313
812.148	27447
812.29	27447
812.431	27614
812.573	27701
812.714	27679
812.855	27956
812.997	27945
813.138	28139
813.279	28070
813.421	27983
813.562	27926
813.703	27705
813.845	27614
813.986	27462
814.127	27154
814.268	27039
814.41	27089
814.551	26998
814.692	27188
814.833	27108
814.974	26845
815.115	26910
815.256	26899
815.397	26963
815.539	26940
815.68	26765
815.821	26773
815.962	26842
816.103	26918
816.244	26754
816.385	26735
816.526	26533
816.666	26412
816.807	26305
816.948	26408
817.089	26419
817.23	26431
817.371	26328
817.512	26328
817.653	26343
817.793	26244
817.934	26404
818.075	26339
818.216	26381
818.356	26199
818.497	26221
818.638	26157
818.778	26077
818.919	26016
819.06	26058
819.2	26278
819.341	26423
819.481	26328
819.622	26453
819.762	26602
819.903	26526
820.043	26492
820.184	26499
820.324	26587
820.465	26503
820.605	26362
820.746	26476
820.886	26358
821.026	26336
821.167	26480
821.307	26450
821.447	26351
821.588	26294
821.728	26157
821.868	25902
822.008	25837
822.149	25784
822.289	25742
822.429	25540
822.569	25521
822.709	25491
822.849	25293
822.99	25228
823.13	25293
823.27	25221
823.41	25110
823.55	24951
823.69	25103
823.83	25000
823.97	25046
824.11	24905
824.25	24817
824.389	24875
824.529	24958
824.669	24935
824.809	25084
824.949	25126
825.089	25038
825.228	24951
825.368	24798
825.508	24821
825.648	24871
825.787	24840
825.927	24837
826.067	24741
826.206	24783
826.346	24802
826.485	24798
826.625	24791
826.765	24840
826.904	24844
827.044	24620
827.183	24563
827.323	24475
827.462	24635
827.601	24509
827.741	24471
827.88	24593
828.02	24513
828.159	24448
828.298	24578
828.437	24585
828.577	24395
828.716	24471
828.855	24429
828.994	24194
829.134	24205
829.273	24171
829.412	24224
829.551	24083
829.69	24209
829.829	24304
829.968	24300
830.107	24205
830.246	24266
830.385	24136
830.524	24163
830.663	24068
830.802	23942
830.941	23828
831.08	23843
831.219	23843
831.357	23821
831.496	23969
831.635	23790
831.774	23843
831.913	23703
832.051	23653
832.19	23657
832.329	23684
832.467	23547
832.606	23436
832.744	23387
832.883	23402
833.022	23547
833.16	23585
833.299	23490
833.437	23535
833.576	23653
833.714	23604
833.852	23703
833.991	23649
834.129	23737
834.267	23836
834.406	23558
834.544	23512
834.682	23611
834.821	23444
834.959	23649
835.097	23512
835.235	23619
835.373	23535
835.511	23539
835.65	23337
835.788	23531
835.926	23235
836.064	23322
836.202	23235
836.34	23493
836.478	23585
836.615	23395
836.753	23429
836.891	23554
837.029	23376
837.167	23448
837.305	23265
837.443	23334
837.58	23303
837.718	23486
837.856	23277
837.993	23159
838.131	23296
838.269	23140
838.406	23155
838.544	23014
838.681	22968
838.819	22991
838.956	22748
839.094	22596
839.231	22755
839.369	23025
839.506	23113
839.643	23064
839.781	22733
839.918	22649
840.055	22790
840.193	22771
840.33	22725
840.467	22755
840.604	22721
840.742	22847
840.879	22702
841.016	22675
841.153	22618
841.29	22771
841.427	22763
841.564	22683
841.701	22816
841.838	22767
841.975	22588
842.112	22679
842.249	22436
842.385	22462
842.522	22584
842.659	22493
842.796	22325
842.933	22451
843.069	22314
843.206	22367
843.343	22455
843.479	22497
843.616	22493
843.752	22166
843.889	22409
844.025	22306
844.162	22276
844.298	22417
844.435	22215
844.571	22169
844.708	22280
844.844	22371
844.98	22382
845.117	22234
845.253	22074
845.389	22147
845.525	22109
845.661	21964
845.798	22002
845.934	22078
846.07	21857
846.206	22128
846.342	22188
846.478	21979
846.614	21835
846.75	21606
846.886	21713
847.022	21686
847.158	21690
847.294	21736
847.429	21709
847.565	21652
847.701	21998
847.837	21450
847.972	21416
848.108	21523
848.244	21435
848.379	21317
848.515	21424
848.65	21363
848.786	21279
848.921	21485
849.057	21424
849.192	21355
849.328	21408
849.463	21355
849.598	21408
849.734	21173
849.869	21104
850.004	21001
850.14	21013
850.275	21161
850.41	20944
850.545	20948
850.68	21013
850.815	21157
850.95	21116
851.085	21180
851.22	21150
851.355	21009
851.49	21192
851.625	21100
851.76	20994
851.895	20914
852.03	20933
852.165	21028
852.299	21135
852.434	21005
852.569	21039
852.703	21089
852.838	21116
852.973	21138
853.107	21127
853.242	21032
853.376	20864
853.511	20743
853.645	20838
853.78	21043
853.914	20872
854.048	20861
854.183	20868
854.317	20960
854.451	20975
854.585	20933
854.72	20895
854.854	20921
854.988	20716
855.122	20880
855.256	20807
855.39	20701
855.524	20864
855.658	20986
855.792	20838
855.926	20819
856.06	20891
856.194	20910
856.327	20872
856.461	20933
856.595	20910
856.729	20872
856.862	20979
856.996	20872
857.13	21028
857.263	20902
857.397	20864
857.53	20864
857.664	20967
857.797	20990
857.931	20952
858.064	20876
858.197	21039
858.331	20967
858.464	20716
858.597	20815
858.731	20819
858.864	20731
858.997	20754
859.13	20792
859.263	20880
859.396	20952
859.529	20883
859.662	20762
859.795	20758
859.928	20902
860.061	21017
860.194	21135
860.327	20921
860.46	20921
860.592	21028
860.725	20990
860.858	20834
860.99	20857
861.123	20815
861.256	20762
861.388	20876
861.521	21564
861.653	20678
861.786	20530
861.918	20701
862.05	20788
862.183	20880
862.315	20853
862.447	20842
862.58	20735
862.712	20560
862.844	20606
862.976	20682
863.108	20636
863.24	21123
863.372	20571
863.504	20617
863.636	20655
863.768	20552
863.9	20575
864.032	20568
864.164	20503
864.296	20621
864.428	20762
864.559	20602
864.691	20632
864.823	20648
864.954	20609
865.086	20674
865.217	20571
865.349	20518
865.48	20480
865.612	20438
865.743	20724
865.875	20579
866.006	20514
866.137	20454
866.269	20366
866.4	20427
866.531	20442
866.662	20404
866.793	20366
866.924	20461
867.055	20530
867.186	20393
867.317	20442
867.448	20415
867.579	20503
867.71	20351
867.841	20294
867.972	20499
868.103	20446
868.233	20423
868.364	20473
868.495	20495
868.625	20636
868.756	20724
868.886	20575
869.017	20670
869.147	20674
869.278	20788
869.408	20705
869.539	20655
869.669	20762
869.799	20758
869.929	20769
870.06	20720
870.19	20975
870.32	20933
870.45	21085
870.58	21028
870.71	21165
870.84	21173
870.97	21001
871.1	21074
871.23	21249
871.36	21332
871.489	21180
871.619	21192
871.749	21169
871.879	21302
872.008	21462
872.138	21321
872.267	21298
872.397	20998
872.526	21146
872.656	21173
872.785	21036
872.915	21249
873.044	21294
873.173	21203
873.303	21332
873.432	21317
873.561	21382
873.69	21332
873.819	21237
873.948	21351
874.077	21237
874.206	21279
874.335	21275
874.464	21382
874.593	21564
874.722	21435
874.851	21507
874.979	21492
875.108	21534
875.237	21583
875.365	21473
875.494	21454
875.623	21629
875.751	21542
875.88	21545
876.008	21641
876.136	21705
876.265	21880
876.393	22044
876.521	21903
876.65	22112
876.778	22021
876.906	21903
877.034	21869
877.162	21865
877.29	21876
877.418	21854
877.546	21895
877.674	21911
877.802	21819
877.93	21895
878.058	21804
878.185	21831
878.313	21926
878.441	21762
878.568	21637
878.696	21899
878.824	21915
878.951	21964
879.079	22143
879.206	22249
879.333	22124
879.461	21816
879.588	21899
879.715	22059
879.842	22036
879.97	21972
880.097	21720
880.224	21595
880.351	21663
880.478	21656
880.605	21610
880.732	21618
880.859	21968
880.986	21686
881.112	21759
881.239	21614
881.366	21511
881.493	21329
881.619	21329
881.746	21264
881.872	21279
881.999	21329
882.125	21313
882.252	21359
882.378	21245
882.505	21370
882.631	21119
882.757	20986
882.883	21066
883.01	20971
883.136	20887
883.262	20796
883.388	20845
883.514	20990
883.64	21020
883.766	20998
883.892	20712
884.018	20750
884.143	20887
884.269	20956
884.395	20651
884.52	20552
884.646	20693
884.772	20575
884.897	20575
885.023	20659
885.148	20670
885.274	20811
885.399	20667
885.524	20560
885.65	20537
885.775	20659
885.9	20735
886.025	20750
886.15	20678
886.275	20606
886.4	20655
886.525	20625
886.65	20560
886.775	20571
886.9	20727
887.025	20819
887.149	20484
887.274	20415
887.399	20438
887.523	20305
887.648	20347
887.773	20328
887.897	20469
888.021	20492
888.146	20366
888.27	20549
888.395	20461
888.519	20400
888.643	20507
888.767	20514
888.891	20305
889.015	20218
889.139	20393
889.263	20248
889.387	20248
889.511	20381
889.635	20278
889.759	20168
889.883	20195
890.006	20172
890.13	20282
890.254	20081
890.377	20218
890.501	19989
890.624	19837
890.748	19978
890.871	19936
890.995	19712
891.118	19784
891.241	19864
891.364	19776
891.488	19986
891.611	19719
891.734	19788
891.857	19837
891.98	19803
892.103	19784
892.226	19833
892.349	19738
892.471	19613
892.594	19723
892.717	19723
892.839	19731
892.962	19845
893.085	19841
893.207	19719
893.33	19647
893.452	19658
893.575	19799
893.697	19590
893.819	19830
893.941	19772
894.064	19811
894.186	19559
894.308	19613
894.43	19830
894.552	19830
894.674	19890
894.796	19552
894.918	19647
895.04	19731
895.161	19708
895.283	19715
895.405	19655
895.526	19651
895.648	19753
895.769	19776
895.891	19738
896.012	19704
896.134	19753
896.255	19807
896.376	19731
896.498	19685
896.619	19696
896.74	19731
896.861	19696
896.982	20103
897.103	20180
897.224	19967
897.345	19833
897.466	19807
897.587	19864
897.708	19974
897.828	20027
897.949	19776
898.07	19860
898.19	19750
898.311	20046
898.431	19849
898.552	19928
898.672	19894
898.792	20039
898.913	19928
899.033	19925
899.153	19696
899.273	19590
899.393	19761
899.513	19898
899.633	19719
899.753	19822
899.873	19635
899.993	19731
900.113	19480
900.232	19712
900.352	19518
900.472	19548
900.591	19514
900.711	19506
900.83	19445
900.95	19582
901.069	19575
901.189	19457
901.308	19168
901.427	19038
901.546	19129
901.665	18973
901.784	19133
901.904	18977
902.023	18806
902.141	18601
902.26	18555
902.379	18658
902.498	18574
902.617	18490
902.735	18604
902.854	18585
902.973	18441
903.091	18388
903.21	18289
903.328	18254
903.446	18167
903.565	18034
903.683	18068
903.801	18019
903.919	17973
904.038	17984
904.156	17760
904.274	17866
904.392	17680
904.51	17756
904.627	17794
904.745	17878
904.863	17802
904.981	17566
905.098	17444
905.216	17604
905.334	17562
905.451	17490
905.569	17535
905.686	17634
905.803	17509
905.921	17353
906.038	17410
906.155	17315
906.272	17178
906.389	17254
906.506	17067
906.623	17060
906.74	17048
906.857	16968
906.974	16949
907.091	17098
907.208	17121
907.324	16946
907.441	16961
907.557	16790
907.674	16835
907.79	16675
907.907	16710
908.023	16733
908.139	16812
908.256	16725
908.372	16687
908.488	16656
908.604	16489
908.72	16470
908.836	16527
908.952	16421
909.068	16504
909.184	16535
909.3	16523
909.415	16634
909.531	16561
909.647	16265
909.762	16303
909.878	16162
909.993	16192
910.108	16303
910.224	16280
910.339	16215
910.454	16029
910.57	16048
910.685	15941
910.8	16272
910.915	16188
911.03	16006
911.145	15838
911.259	15846
911.374	15865
911.489	15694
911.604	15663
911.718	15580
911.833	15526
911.947	15462
912.062	15389
912.176	15469
912.291	15591
912.405	15515
912.519	15747
912.633	15698
912.748	15595
912.862	15511
912.976	15348
913.09	15329
913.204	15397
913.318	15336
913.431	15469
913.545	15428
913.659	15416
913.772	15405
913.886	15222
914	15180
914.113	15279
914.226	15306
914.34	15241
914.453	15074
914.566	15119
914.68	15024
914.793	14982
914.906	14815
915.019	14731
915.132	14743
915.245	14861
915.358	14838
915.47	14895
915.583	14826
915.696	14804
915.809	14902
915.921	14872
916.034	14743
916.146	14667
916.259	14708
916.371	14689
916.483	14632
916.595	14590
916.708	14621
916.82	14556
916.932	14610
917.044	14629
917.156	14560
917.268	14370
917.38	14507
917.491	14533
917.603	14526
917.715	14526
917.826	14541
917.938	14355
918.049	14355
918.161	14385
918.272	14537
918.384	14526
918.495	14476
918.606	14271
918.717	14202
918.828	14233
918.939	14237
919.05	14134
919.161	14180
919.272	13978
919.383	14050
919.494	14339
919.604	14377
919.715	14191
919.826	14065
919.936	14164
920.047	14271
920.157	14202
920.267	14381
920.378	14225
920.488	14183
920.598	14282
920.708	14431
920.818	14442
920.928	14377
921.038	14396
921.148	14415
921.258	14096
921.368	14138
921.477	13982
921.587	13841
921.697	13746
921.806	14046
921.916	13845
922.025	13597
922.134	13655
922.244	13495
922.353	13620
922.462	13480
922.571	13358
922.68	13236
922.789	13168
922.898	13232
923.007	13091
923.116	13278
923.224	13255
923.333	13179
923.442	13141
923.55	13057
923.659	13164
923.767	13046
923.876	13057
923.984	13099
924.092	12962
924.201	12916
924.309	12901
924.417	12924
924.525	12875
924.633	12844
924.741	13868
924.849	12707
924.956	12848
925.064	12700
925.172	12669
925.279	12734
925.387	12684
925.494	12711
925.602	12863
925.709	12673
925.816	12604
925.924	12582
926.031	12677
926.138	12536
926.245	12597
926.352	12399
926.459	12654
926.566	12692
926.673	12506
926.779	12410
926.886	12384
926.993	12262
927.099	12270
927.206	12182
927.312	12213
927.419	12285
927.525	12201
927.631	12330
927.737	12171
927.843	12072
927.95	11977
928.056	12087
928.162	12083
928.267	12057
928.373	12757
928.479	12095
928.585	11916
928.69	12003
928.796	11965
928.901	11954
929.007	11779
929.112	11984
929.218	11893
929.323	11866
929.428	11813
929.533	11878
929.638	11798
929.743	11672
929.848	11756
929.953	11737
930.058	11745
930.163	11440
930.267	11501
930.372	11627
930.477	11402
930.581	11695
930.685	11467
930.79	11296
930.894	11440
930.998	11307
931.103	11539
931.207	11151
931.311	11128
931.415	11022
931.519	10801
931.623	10725
