Data from test_V78500241_2666.txt Node
Date: Fri Mar 25 15:28:25 CST 2022
User: usil
Spectrometer: V785-0024
Trigger mode: 0
Integration Time (sec): 4.000000E-1
Scans to average: 1
Nonlinearity correction enabled: false
Boxcar width: 0
Storing dark spectrum: false
XAxis mode: Wavelengths
Number of Pixels in Spectrum: 1024
>>>>>Begin Spectral Data<<<<<
801.071	27055
801.214	27001
801.356	26720
801.499	26655
801.641	26537
801.783	26617
801.926	26583
802.068	26560
802.211	26537
802.353	26549
802.496	26244
802.638	26256
802.78	26248
802.923	26202
803.065	26088
803.208	26122
803.35	26206
803.492	26252
803.635	26469
803.777	26286
803.919	26453
804.061	26720
804.204	26488
804.346	26427
804.488	26362
804.63	26473
804.773	26248
804.915	26324
805.057	26385
805.199	26427
805.341	26347
805.483	26568
805.626	26400
805.768	26362
805.91	26415
806.052	26473
806.194	26381
806.336	26579
806.478	26453
806.62	26465
806.762	26636
806.904	26743
807.046	27055
807.188	27036
807.33	26960
807.472	26883
807.614	26876
807.756	26921
807.898	26724
808.04	26731
808.182	26727
808.324	26769
808.465	26739
808.607	26853
808.749	27055
808.891	27104
809.033	27226
809.174	27127
809.316	27112
809.458	27112
809.6	27032
809.741	27157
809.883	27104
810.025	27294
810.166	27431
810.308	27355
810.45	27180
810.591	27119
810.733	27184
810.875	27142
811.016	26868
811.158	27043
811.299	27169
811.441	27203
811.582	27313
811.724	26948
811.865	27173
812.007	27058
812.148	26937
812.29	27093
812.431	27142
812.573	27389
812.714	27519
812.855	27564
812.997	27599
813.138	27797
813.279	27724
813.421	27485
813.562	27515
813.703	27443
813.845	27173
813.986	26921
814.127	26826
814.268	26739
814.41	26754
814.551	26739
814.692	26823
814.833	26659
814.974	26693
815.115	26796
815.256	26518
815.397	26682
815.539	26613
815.68	26522
815.821	26366
815.962	26495
816.103	26434
816.244	26317
816.385	26305
816.526	26294
816.666	26069
816.807	25849
816.948	26142
817.089	26073
817.23	26027
817.371	25974
817.512	25966
817.653	25928
817.793	25921
817.934	25871
818.075	26016
818.216	25970
818.356	25913
818.497	25944
818.638	25681
818.778	25674
818.919	25616
819.06	25845
819.2	25822
819.341	26031
819.481	25989
819.622	26115
819.762	26336
819.903	26237
820.043	26145
820.184	25986
820.324	26092
820.465	26122
820.605	26065
820.746	26046
820.886	25890
821.026	25986
821.167	26062
821.307	26001
821.447	25913
821.588	25894
821.728	25582
821.868	25487
822.008	25514
822.149	25525
822.289	25377
822.429	25198
822.569	25110
822.709	25095
822.849	24989
822.99	24920
823.13	24814
823.27	24954
823.41	24684
823.55	24673
823.69	24817
823.83	24654
823.97	24631
824.11	24437
824.25	24479
824.389	24464
824.529	24700
824.669	24559
824.809	24760
824.949	24738
825.089	24498
825.228	24757
825.368	24445
825.508	24228
825.648	24445
825.787	24433
825.927	24517
826.067	24475
826.206	24426
826.346	24418
826.485	24494
826.625	24502
826.765	24460
826.904	24445
827.044	24133
827.183	24235
827.323	24038
827.462	24171
827.601	24102
827.741	23942
827.88	24114
828.02	24038
828.159	24003
828.298	24072
828.437	24182
828.577	24110
828.716	24197
828.855	23973
828.994	23847
829.134	23897
829.273	23878
829.412	23866
829.551	23748
829.69	23790
829.829	23859
829.968	23912
830.107	23939
830.246	23912
830.385	23828
830.524	23687
830.663	23680
830.802	23486
830.941	23516
831.08	23356
831.219	23600
831.357	23623
831.496	23581
831.635	23372
831.774	23345
831.913	23242
832.051	23181
832.19	23242
832.329	23341
832.467	23193
832.606	23079
832.744	23025
832.883	23124
833.022	23155
833.16	23155
833.299	23132
833.437	23178
833.576	23136
833.714	23220
833.852	23227
833.991	23299
834.129	23220
834.267	23197
834.406	23143
834.544	23200
834.682	23121
834.821	23261
834.959	23406
835.097	23208
835.235	23277
835.373	23216
835.511	23269
835.65	23151
835.788	23025
835.926	22957
836.064	22717
836.202	22972
836.34	22934
836.478	22999
836.615	23071
836.753	23075
836.891	23178
837.029	23189
837.167	22980
837.305	23033
837.443	22835
837.58	22885
837.718	22987
837.856	22930
837.993	22805
838.131	22896
838.269	22843
838.406	22816
838.544	22698
838.681	22527
838.819	22592
838.956	22440
839.094	22333
839.231	22470
839.369	22523
839.506	22736
839.643	22607
839.781	22409
839.918	22379
840.055	22352
840.193	22215
840.33	22333
840.467	22333
840.604	22242
840.742	22538
840.879	22234
841.016	22261
841.153	22265
841.29	22443
841.427	22226
841.564	22337
841.701	22306
841.838	22169
841.975	22200
842.112	22188
842.249	22204
842.385	22120
842.522	22386
842.659	22105
842.796	22070
842.933	22082
843.069	22010
843.206	22044
843.343	22051
843.479	22131
843.616	22029
843.752	21812
843.889	21747
844.025	22013
844.162	21701
844.298	21850
844.435	21774
844.571	21880
844.708	21759
844.844	22074
844.98	21907
845.117	21899
845.253	21755
845.389	21778
845.525	21739
845.661	21686
845.798	21553
845.934	21622
846.07	21542
846.206	21629
846.342	21724
846.478	21447
846.614	21332
846.75	21374
846.886	21370
847.022	21348
847.158	21473
847.294	21313
847.429	21329
847.565	21416
847.701	21610
847.837	21138
847.972	21028
848.108	21089
848.244	21199
848.379	20929
848.515	20861
848.65	20910
848.786	21001
848.921	20872
849.057	21047
849.192	20979
849.328	20994
849.463	20948
849.598	20929
849.734	20769
849.869	20815
850.004	20682
850.14	20648
850.275	20701
850.41	20609
850.545	20636
850.68	20537
850.815	20640
850.95	20720
851.085	20887
851.22	20807
851.355	20708
851.49	20708
851.625	20625
851.76	20663
851.895	20606
852.03	20678
852.165	20682
852.299	20785
852.434	20823
852.569	20746
852.703	20617
852.838	20720
852.973	20811
853.107	20876
853.242	20434
853.376	20377
853.511	20419
853.645	20377
853.78	20629
853.914	20549
854.048	20484
854.183	20503
854.317	20465
854.451	20731
854.585	20267
854.72	20606
854.854	20575
854.988	20461
855.122	20499
855.256	20412
855.39	20465
855.524	20514
855.658	20533
855.792	20571
855.926	20495
856.06	20522
856.194	20598
856.327	20446
856.461	20511
856.595	20461
856.729	20404
856.862	20606
856.996	20537
857.13	20556
857.263	20606
857.397	20587
857.53	20499
857.664	20514
857.797	20594
857.931	20587
858.064	20568
858.197	20621
858.331	20526
858.464	20495
858.597	20473
858.731	20469
858.864	20454
858.997	20400
859.13	20484
859.263	20594
859.396	20514
859.529	20442
859.662	20476
859.795	20423
859.928	20514
860.061	20594
860.194	20724
860.327	20594
860.46	20454
860.592	20613
860.725	20686
860.858	20560
860.99	20473
861.123	20442
861.256	20423
861.388	20446
861.521	21211
861.653	20339
861.786	20248
861.918	20415
862.05	20366
862.183	20393
862.315	20469
862.447	20541
862.58	20374
862.712	20240
862.844	20282
862.976	20412
863.108	20317
863.24	20689
863.372	20206
863.504	20248
863.636	20115
863.768	20298
863.9	20206
864.032	20183
864.164	20244
864.296	20259
864.428	20244
864.559	20351
864.691	20336
864.823	20263
864.954	20164
865.086	20119
865.217	20100
865.349	20046
865.48	20069
865.612	20183
865.743	20183
865.875	20103
866.006	20172
866.137	20153
866.269	20115
866.4	20077
866.531	20046
866.662	20210
866.793	20103
866.924	20084
867.055	20035
867.186	20050
867.317	20065
867.448	19959
867.579	20043
867.71	20001
867.841	20084
867.972	20092
868.103	20031
868.233	19974
868.364	20092
868.495	20092
868.625	20347
868.756	20408
868.886	20298
869.017	20362
869.147	20252
869.278	20434
869.408	20324
869.539	20355
869.669	20389
869.799	20282
869.929	20427
870.06	20450
870.19	20640
870.32	20659
870.45	20689
870.58	20765
870.71	20914
870.84	20834
870.97	20648
871.1	20705
871.23	20819
871.36	20788
871.489	20739
871.619	20811
871.749	20891
871.879	20921
872.008	20986
872.138	20902
872.267	20842
872.397	20819
872.526	20670
872.656	20712
872.785	20674
872.915	20849
873.044	21039
873.173	20887
873.303	20948
873.432	21028
873.561	21074
873.69	20956
873.819	20880
873.948	21001
874.077	21032
874.206	20872
874.335	20815
874.464	21036
874.593	21192
874.722	21131
874.851	21154
874.979	21119
875.108	21169
875.237	21123
875.365	21077
875.494	21188
875.623	21203
875.751	21161
875.88	21184
876.008	21332
876.136	21367
876.265	21507
876.393	21641
876.521	21610
876.65	21736
876.778	21511
876.906	21542
877.034	21618
877.162	21591
877.29	21447
877.418	21523
877.546	21412
877.674	21603
877.802	21515
877.93	21523
878.058	21477
878.185	21386
878.313	21496
878.441	21374
878.568	21405
878.696	21481
878.824	21454
878.951	21717
879.079	21614
879.206	21759
879.333	21644
879.461	21485
879.588	21542
879.715	21736
879.842	21789
879.97	21622
880.097	21363
880.224	21306
880.351	21389
880.478	21268
880.605	21351
880.732	21306
880.859	21637
880.986	21306
881.112	21386
881.239	21199
881.366	21135
881.493	21013
881.619	20895
881.746	20960
881.872	20937
881.999	20960
882.125	20883
882.252	21062
882.378	20941
882.505	20982
882.631	20811
882.757	20678
882.883	20762
883.01	20587
883.136	20526
883.262	20495
883.388	20575
883.514	20606
883.64	20697
883.766	20613
883.892	20377
884.018	20438
884.143	20731
884.269	20575
884.395	20522
884.52	20259
884.646	20336
884.772	20301
884.897	20221
885.023	20286
885.148	20431
885.274	20374
885.399	20385
885.524	20358
885.65	20244
885.775	20415
885.9	20214
886.025	20465
886.15	20244
886.275	20225
886.4	20210
886.525	20168
886.65	20153
886.775	20202
886.9	20324
887.025	20484
887.149	20275
887.274	20172
887.399	20054
887.523	20058
887.648	20149
887.773	20046
887.897	20126
888.021	20062
888.146	20027
888.27	20084
888.395	20278
888.519	20058
888.643	20058
888.767	20050
888.891	19989
889.015	19898
889.139	20100
889.263	19864
889.387	19883
889.511	20031
889.635	19967
889.759	19974
889.883	19807
890.006	19868
890.13	19955
890.254	19837
890.377	19871
890.501	19685
890.624	19514
890.748	19712
890.871	19563
890.995	19468
891.118	19411
891.241	19597
891.364	19415
891.488	19681
891.611	19464
891.734	19460
891.857	19567
891.98	19457
892.103	19578
892.226	19373
892.349	19460
892.471	19285
892.594	19449
892.717	19480
892.839	19384
892.962	19350
893.085	19464
893.207	19419
893.33	19259
893.452	19289
893.575	19285
893.697	19392
893.819	19556
893.941	19628
894.064	19571
894.186	19255
894.308	19251
894.43	19506
894.552	19567
894.674	19506
894.796	19255
894.918	19358
895.04	19350
895.161	19525
895.283	19388
895.405	19358
895.526	19320
895.648	19441
895.769	19483
895.891	19339
896.012	19384
896.134	19567
896.255	19457
896.376	19384
896.498	19430
896.619	19449
896.74	19483
896.861	19457
896.982	19803
897.103	19833
897.224	19677
897.345	19605
897.466	19544
897.587	19586
897.708	19719
897.828	19651
897.949	19643
898.07	19525
898.19	19518
898.311	19590
898.431	19677
898.552	19628
898.672	19750
898.792	19658
898.913	19624
899.033	19540
899.153	19453
899.273	19358
899.393	19449
899.513	19384
899.633	19464
899.753	19381
899.873	19316
899.993	19457
900.113	19304
900.232	19365
900.352	19251
900.472	19179
900.591	19175
900.711	19225
900.83	19156
900.95	19403
901.069	19213
901.189	19137
901.308	18776
901.427	18715
901.546	18711
901.665	18764
901.784	18779
901.904	18555
902.023	18513
902.141	18296
902.26	18464
902.379	18330
902.498	18251
902.617	18289
902.735	18224
902.854	18213
902.973	18243
903.091	18034
903.21	17977
903.328	17977
903.446	17889
903.565	17707
903.683	17840
903.801	17707
903.919	17687
904.038	17672
904.156	17524
904.274	17699
904.392	17558
904.51	17410
904.627	17547
904.745	17532
904.863	17619
904.981	17410
905.098	17273
905.216	17239
905.334	17250
905.451	17425
905.569	17170
905.686	17178
905.803	17220
905.921	17029
906.038	17128
906.155	17090
906.272	16869
906.389	17014
906.506	16797
906.623	16748
906.74	16698
906.857	16603
906.974	16763
907.091	16839
907.208	16873
907.324	16797
907.441	16599
907.557	16527
907.674	16493
907.79	16394
907.907	16485
908.023	16470
908.139	16459
908.256	16512
908.372	16417
908.488	16405
908.604	16192
908.72	16158
908.836	16162
908.952	16238
909.068	16211
909.184	16329
909.3	16150
909.415	16234
909.531	16154
909.647	16055
909.762	15922
909.878	15915
909.993	15907
910.108	15846
910.224	15934
910.339	15937
910.454	15854
910.57	15747
910.685	15656
910.8	15880
910.915	15907
911.03	15656
911.145	15595
911.259	15454
911.374	15523
911.489	15549
911.604	15416
911.718	15260
911.833	15397
911.947	15199
912.062	15112
912.176	15454
912.291	15378
912.405	15439
912.519	15576
912.633	15542
912.748	15363
912.862	15245
912.976	15249
913.09	15051
913.204	15058
913.318	15218
913.431	15123
913.545	15146
913.659	15249
913.772	15051
913.886	15051
914	14849
914.113	14960
914.226	14891
914.34	14872
914.453	14765
914.566	14849
914.68	14765
914.793	14880
914.906	14644
915.019	14629
915.132	14446
915.245	14526
915.358	14560
915.47	14541
915.583	14522
915.696	14583
915.809	14613
915.921	14655
916.034	14598
916.146	14415
916.259	14446
916.371	14480
916.483	14484
916.595	14450
916.708	14347
916.82	14313
916.932	14343
917.044	14290
917.156	14343
917.268	14172
917.38	14206
917.491	14206
917.603	14259
917.715	14240
917.826	14328
917.938	14180
918.049	14077
918.161	14107
918.272	14180
918.384	14263
918.495	14096
918.606	14058
918.717	13951
918.828	13936
918.939	14024
919.05	13913
919.161	13982
919.272	13849
919.383	13837
919.494	13928
919.604	14229
919.715	13993
919.826	13883
919.936	13947
920.047	13967
920.157	13993
920.267	14199
920.378	14008
920.488	13913
920.598	14096
920.708	14164
920.818	14115
920.928	14103
921.038	14313
921.148	14229
921.258	13959
921.368	13818
921.477	13712
921.587	13609
921.697	13575
921.806	13765
921.916	13746
922.025	13369
922.134	13392
922.244	13278
922.353	13419
922.462	13274
922.571	13194
922.68	13080
922.789	13015
922.898	13031
923.007	12901
923.116	13114
923.224	13023
923.333	12916
923.442	12856
923.55	12848
923.659	12875
923.767	12932
923.876	12829
923.984	12798
924.092	12703
924.201	12817
924.309	12802
924.417	12806
924.525	12601
924.633	12726
924.741	13597
924.849	12544
924.956	12642
925.064	12414
925.172	12403
925.279	12456
925.387	12422
925.494	12403
925.602	12490
925.709	12498
925.816	12410
925.924	12384
926.031	12498
926.138	12369
926.245	12429
926.352	12262
926.459	12395
926.566	12471
926.673	12292
926.779	12167
926.886	12148
926.993	12091
927.099	12076
927.206	12011
927.312	11939
927.419	12133
927.525	12003
927.631	12068
927.737	11961
927.843	11954
927.95	11798
928.056	11912
928.162	11874
928.267	11874
928.373	12376
928.479	11950
928.585	11775
928.69	11840
928.796	11878
928.901	11790
929.007	11642
929.112	11646
929.218	11714
929.323	11672
929.428	11562
929.533	11752
929.638	11516
929.743	11585
929.848	11589
929.953	11577
930.058	11471
930.163	11322
930.267	11265
930.372	11486
930.477	11284
930.581	11524
930.685	11410
930.79	11151
930.894	11311
930.998	11204
931.103	11326
931.207	10991
931.311	10904
931.415	10831
931.519	10611
931.623	10630
