Data from test_V78500241_2176.txt Node
Date: Fri Mar 25 15:25:00 CST 2022
User: usil
Spectrometer: V785-0024
Trigger mode: 0
Integration Time (sec): 4.000000E-1
Scans to average: 1
Nonlinearity correction enabled: false
Boxcar width: 0
Storing dark spectrum: false
XAxis mode: Wavelengths
Number of Pixels in Spectrum: 1024
>>>>>Begin Spectral Data<<<<<
801.071	27785
801.214	27694
801.356	27447
801.499	27420
801.641	27348
801.783	27359
801.926	27298
802.068	27199
802.211	27329
802.353	27214
802.496	26918
802.638	26994
802.78	26902
802.923	26724
803.065	26857
803.208	26933
803.35	27009
803.492	27108
803.635	27112
803.777	27070
803.919	27123
804.061	27393
804.204	27184
804.346	27062
804.488	27047
804.63	27119
804.773	27077
804.915	27226
805.057	27173
805.199	27085
805.341	27184
805.483	27310
805.626	27279
805.768	27184
805.91	27230
806.052	27268
806.194	27245
806.336	27469
806.478	27310
806.62	27351
806.762	27359
806.904	27454
807.046	27747
807.188	27557
807.33	27766
807.472	27804
807.614	27713
807.756	27705
807.898	27732
808.04	27488
808.182	27568
808.324	27530
808.465	27644
808.607	27751
808.749	27797
808.891	27865
809.033	28036
809.174	28063
809.316	27994
809.458	27884
809.6	27903
809.741	28078
809.883	28059
810.025	27972
810.166	28063
810.308	28291
810.45	28204
810.591	28116
810.733	28044
810.875	27816
811.016	27701
811.158	27762
811.299	27934
811.441	28021
811.582	28086
811.724	27918
811.865	27747
812.007	27720
812.148	27854
812.29	27827
812.431	28055
812.573	28147
812.714	28295
812.855	28493
812.997	28577
813.138	28691
813.279	28440
813.421	28382
813.562	28390
813.703	28303
813.845	28177
813.986	27800
814.127	27728
814.268	27507
814.41	27420
814.551	27481
814.692	27778
814.833	27450
814.974	27477
815.115	27488
815.256	27466
815.397	27382
815.539	27553
815.68	27329
815.821	27272
815.962	27150
816.103	27370
816.244	27180
816.385	27203
816.526	27165
816.666	26891
816.807	26883
816.948	26876
817.089	26883
817.23	26769
817.371	26735
817.512	26724
817.653	26864
817.793	26708
817.934	26857
818.075	26796
818.216	26914
818.356	26849
818.497	26739
818.638	26568
818.778	26705
818.919	26465
819.06	26632
819.2	26701
819.341	26800
819.481	26796
819.622	27020
819.762	27131
819.903	27142
820.043	26982
820.184	27058
820.324	27020
820.465	26967
820.605	26845
820.746	26857
820.886	26785
821.026	26887
821.167	26876
821.307	27036
821.447	26800
821.588	26746
821.728	26716
821.868	26461
822.008	26366
822.149	26180
822.289	26225
822.429	26088
822.569	25989
822.709	25978
822.849	25845
822.99	25875
823.13	25769
823.27	25780
823.41	25655
823.55	25594
823.69	25616
823.83	25655
823.97	25651
824.11	25407
824.25	25339
824.389	25430
824.529	25575
824.669	25487
824.809	25479
824.949	25510
825.089	25415
825.228	25525
825.368	25346
825.508	25255
825.648	25270
825.787	25206
825.927	25434
826.067	25278
826.206	25316
826.346	25343
826.485	25316
826.625	25213
826.765	25483
826.904	25434
827.044	25061
827.183	25080
827.323	25050
827.462	25027
827.601	25091
827.741	25050
827.88	25050
828.02	24920
828.159	25034
828.298	25034
828.437	25088
828.577	24954
828.716	25145
828.855	24867
828.994	24726
829.134	24745
829.273	24745
829.412	24677
829.551	24597
829.69	24745
829.829	24798
829.968	24741
830.107	24802
830.246	24783
830.385	24513
830.524	24665
830.663	24559
830.802	24456
830.941	24262
831.08	24304
831.219	24391
831.357	24426
831.496	24585
831.635	24327
831.774	24174
831.913	24258
832.051	24045
832.19	24129
832.329	24038
832.467	23950
832.606	23942
832.744	23904
832.883	23935
833.022	23866
833.16	23973
833.299	24034
833.437	23927
833.576	24076
833.714	24003
833.852	24140
833.991	24106
834.129	23980
834.267	24163
834.406	24114
834.544	24133
834.682	24038
834.821	23901
834.959	24064
835.097	23954
835.235	24224
835.373	24026
835.511	24015
835.65	23916
835.788	23916
835.926	23786
836.064	23760
836.202	23767
836.34	23950
836.478	23942
836.615	23821
836.753	23840
836.891	24022
837.029	23935
837.167	23874
837.305	23733
837.443	23634
837.58	23684
837.718	23798
837.856	23737
837.993	23756
838.131	23642
838.269	23566
838.406	23520
838.544	23505
838.681	23474
838.819	23239
838.956	23174
839.094	23189
839.231	23212
839.369	23345
839.506	23585
839.643	23661
839.781	23124
839.918	23189
840.055	23197
840.193	23197
840.33	23052
840.467	23113
840.604	23102
840.742	23372
840.879	22885
841.016	23071
841.153	22877
841.29	23174
841.427	23003
841.564	23170
841.701	23102
841.838	22957
841.975	23025
842.112	22923
842.249	22911
842.385	22801
842.522	22968
842.659	22896
842.796	22721
842.933	22927
843.069	22790
843.206	22767
843.343	22980
843.479	22850
843.616	22824
843.752	22592
843.889	22668
844.025	22763
844.162	22527
844.298	22771
844.435	22672
844.571	22497
844.708	22630
844.844	22797
844.98	22774
845.117	22752
845.253	22679
845.389	22653
845.525	22519
845.661	22436
845.798	22341
845.934	22557
846.07	22348
846.206	22306
846.342	22409
846.478	22268
846.614	22200
846.75	22025
846.886	22048
847.022	22101
847.158	22147
847.294	22059
847.429	22070
847.565	22067
847.701	22303
847.837	21717
847.972	21709
848.108	21945
848.244	21911
848.379	21663
848.515	21838
848.65	21728
848.786	21766
848.921	21652
849.057	21816
849.192	21785
849.328	21610
849.463	21701
849.598	21694
849.734	21580
849.869	21450
850.004	21523
850.14	21454
850.275	21553
850.41	21397
850.545	21340
850.68	21511
850.815	21462
850.95	21542
851.085	21576
851.22	21549
851.355	21507
851.49	21405
851.625	21477
851.76	21389
851.895	21386
852.03	21321
852.165	21355
852.299	21507
852.434	21370
852.569	21481
852.703	21519
852.838	21534
852.973	21564
853.107	21625
853.242	21237
853.376	21294
853.511	21214
853.645	21207
853.78	21401
853.914	21428
854.048	21264
854.183	21116
854.317	21252
854.451	21591
854.585	21302
854.72	21230
854.854	21348
854.988	21180
855.122	21188
855.256	21207
855.39	21112
855.524	21336
855.658	21344
855.792	21279
855.926	21283
856.06	21154
856.194	21397
856.327	21272
856.461	21161
856.595	21173
856.729	21188
856.862	21382
856.996	21332
857.13	21211
857.263	21317
857.397	21344
857.53	21214
857.664	21272
857.797	21302
857.931	21325
858.064	21351
858.197	21272
858.331	21237
858.464	21226
858.597	21214
858.731	21169
858.864	21306
858.997	21241
859.13	21348
859.263	21230
859.396	21420
859.529	21317
859.662	21332
859.795	21089
859.928	21199
860.061	21226
860.194	21500
860.327	21306
860.46	21226
860.592	21355
860.725	21412
860.858	21344
860.99	21340
861.123	21169
861.256	21245
861.388	21226
861.521	21945
861.653	21108
861.786	21017
861.918	21207
862.05	21207
862.183	21127
862.315	21188
862.447	21142
862.58	21154
862.712	21074
862.844	21017
862.976	21081
863.108	20952
863.24	21344
863.372	21009
863.504	20937
863.636	20899
863.768	21005
863.9	21036
864.032	20842
864.164	20941
864.296	20998
864.428	21074
864.559	21104
864.691	21005
864.823	21009
864.954	21043
865.086	20956
865.217	20948
865.349	20735
865.48	20872
865.612	20963
865.743	20944
865.875	20971
866.006	20788
866.137	20857
866.269	20880
866.4	20815
866.531	20834
866.662	20773
866.793	20815
866.924	20769
867.055	20792
867.186	20815
867.317	20979
867.448	20705
867.579	20659
867.71	20587
867.841	20720
867.972	20739
868.103	20861
868.233	20750
868.364	20788
868.495	20963
868.625	21017
868.756	21085
868.886	21005
869.017	21013
869.147	21055
869.278	21116
869.408	21028
869.539	21116
869.669	20975
869.799	21013
869.929	21188
870.06	21142
870.19	21298
870.32	21313
870.45	21370
870.58	21424
870.71	21435
870.84	21583
870.97	21310
871.1	21420
871.23	21603
871.36	21583
871.489	21485
871.619	21679
871.749	21709
871.879	21648
872.008	21816
872.138	21663
872.267	21526
872.397	21481
872.526	21435
872.656	21401
872.785	21511
872.915	21637
873.044	21724
873.173	21724
873.303	21633
873.432	21759
873.561	21846
873.69	21675
873.819	21561
873.948	21732
874.077	21663
874.206	21675
874.335	21717
874.464	21800
874.593	21831
874.722	21793
874.851	21987
874.979	21884
875.108	21937
875.237	21880
875.365	21770
875.494	21819
875.623	21842
875.751	21903
875.88	21930
876.008	22036
876.136	22021
876.265	22246
876.393	22363
876.521	22344
876.65	22382
876.778	22215
876.906	22223
877.034	22147
877.162	22207
877.29	22139
877.418	22314
877.546	22284
877.674	22063
877.802	22185
877.93	22291
878.058	22131
878.185	22074
878.313	22143
878.441	22070
878.568	22010
878.696	22116
878.824	22268
878.951	22276
879.079	22394
879.206	22428
879.333	22402
879.461	22211
879.588	22360
879.715	22276
879.842	22546
879.97	22314
880.097	21983
880.224	22105
880.351	22036
880.478	21998
880.605	21949
880.732	22021
880.859	22166
880.986	22044
881.112	22078
881.239	21880
881.366	21846
881.493	21679
881.619	21736
881.746	21705
881.872	21667
881.999	21595
882.125	21587
882.252	21797
882.378	21530
882.505	21667
882.631	21519
882.757	21291
882.883	21397
883.01	21298
883.136	21306
883.262	21211
883.388	21173
883.514	21256
883.64	21332
883.766	21233
883.892	21131
884.018	21192
884.143	21180
884.269	21317
884.395	21013
884.52	20895
884.646	21089
884.772	20906
884.897	20792
885.023	20990
885.148	21074
885.274	21116
885.399	21020
885.524	21009
885.65	20811
885.775	20979
885.9	20941
886.025	21039
886.15	21093
886.275	20956
886.4	21017
886.525	20948
886.65	20849
886.775	20769
886.9	21108
887.025	21112
887.149	21001
887.274	20754
887.399	20697
887.523	20739
887.648	20583
887.773	20663
887.897	20804
888.021	20731
888.146	20549
888.27	20712
888.395	20769
888.519	20708
888.643	20705
888.767	20708
888.891	20678
889.015	20583
889.139	20598
889.263	20507
889.387	20541
889.511	20785
889.635	20663
889.759	20541
889.883	20648
890.006	20488
890.13	20629
890.254	20549
890.377	20370
890.501	20324
890.624	20290
890.748	20385
890.871	20278
890.995	20050
891.118	19947
891.241	20115
891.364	20126
891.488	20199
891.611	20012
891.734	20142
891.857	20062
891.98	20115
892.103	20134
892.226	20008
892.349	20016
892.471	19978
892.594	20027
892.717	19978
892.839	20008
892.962	20084
893.085	20058
893.207	19955
893.33	19963
893.452	19913
893.575	20107
893.697	19947
893.819	20191
893.941	20214
894.064	20058
894.186	19944
894.308	19955
894.43	20111
894.552	20206
894.674	20073
894.796	19955
894.918	19902
895.04	20008
895.161	20005
895.283	19986
895.405	19913
895.526	20046
895.648	19993
895.769	20027
895.891	20077
896.012	20126
896.134	20046
896.255	20054
896.376	19921
896.498	20046
896.619	19951
896.74	19970
896.861	20145
896.982	20301
897.103	20545
897.224	20256
897.345	20237
897.466	20126
897.587	20275
897.708	20332
897.828	20115
897.949	20210
898.07	20039
898.19	20100
898.311	20313
898.431	20134
898.552	20180
898.672	20305
898.792	20374
898.913	20229
899.033	20119
899.153	20199
899.273	20020
899.393	19936
899.513	19951
899.633	20005
899.753	20001
899.873	20008
899.993	19932
900.113	19860
900.232	19921
900.352	19879
900.472	19830
900.591	19731
900.711	19788
900.83	19738
900.95	19830
901.069	19887
901.189	19609
901.308	19278
901.427	19259
901.546	19331
901.665	19403
901.784	19304
901.904	19232
902.023	19050
902.141	18932
902.26	19000
902.379	18993
902.498	18852
902.617	18840
902.735	18916
902.854	18939
902.973	18871
903.091	18658
903.21	18467
903.328	18448
903.446	18410
903.565	18369
903.683	18311
903.801	18216
903.919	18338
904.038	18254
904.156	18064
904.274	18053
904.392	18087
904.51	18121
904.627	18220
904.745	18057
904.863	18209
904.981	17923
905.098	17828
905.216	17764
905.334	17764
905.451	17767
905.569	17756
905.686	17836
905.803	17764
905.921	17520
906.038	17608
906.155	17509
906.272	17509
906.389	17478
906.506	17360
906.623	17364
906.74	17326
906.857	17155
906.974	17269
907.091	17322
907.208	17364
907.324	17360
907.441	17113
907.557	17025
907.674	16942
907.79	16908
907.907	17109
908.023	17113
908.139	17010
908.256	16965
908.372	16946
908.488	16938
908.604	16752
908.72	16725
908.836	16702
908.952	16755
909.068	16778
909.184	16835
909.3	16763
909.415	16664
909.531	16790
909.647	16535
909.762	16497
909.878	16424
909.993	16538
910.108	16402
910.224	16424
910.339	16360
910.454	16299
910.57	16272
910.685	16230
910.8	16512
910.915	16386
911.03	16257
911.145	16135
911.259	16055
911.374	15979
911.489	15945
911.604	15934
911.718	15762
911.833	15922
911.947	15663
912.062	15644
912.176	15793
912.291	15724
912.405	15781
912.519	15903
912.633	15949
912.748	15770
912.862	15778
912.976	15625
913.09	15519
913.204	15595
913.318	15595
913.431	15713
913.545	15652
913.659	15595
913.772	15500
913.886	15420
914	15431
914.113	15431
914.226	15477
914.34	15500
914.453	15207
914.566	15477
914.68	15260
914.793	15218
914.906	15039
915.019	15150
915.132	15001
915.245	14963
915.358	15013
915.47	15043
915.583	14982
915.696	15070
915.809	15100
915.921	15081
916.034	15062
916.146	14823
916.259	14918
916.371	14990
916.483	15013
916.595	14807
916.708	14982
916.82	14815
916.932	14811
917.044	14720
917.156	14663
917.268	14667
917.38	14705
917.491	14689
917.603	14674
917.715	14754
917.826	14739
917.938	14621
918.049	14507
918.161	14621
918.272	14769
918.384	14712
918.495	14678
918.606	14434
918.717	14446
918.828	14423
918.939	14427
919.05	14313
919.161	14450
919.272	14172
919.383	14301
919.494	14427
919.604	14621
919.715	14442
919.826	14370
919.936	14328
920.047	14499
920.157	14419
920.267	14556
920.378	14400
920.488	14465
920.598	14522
920.708	14735
920.818	14602
920.928	14583
921.038	14659
921.148	14590
921.258	14347
921.368	14267
921.477	14100
921.587	14138
921.697	13997
921.806	14142
921.916	13894
922.025	13822
922.134	13788
922.244	13719
922.353	13791
922.462	13632
922.571	13548
922.68	13434
922.789	13453
922.898	13445
923.007	13400
923.116	13468
923.224	13392
923.333	13430
923.442	13343
923.55	13240
923.659	13346
923.767	13304
923.876	13266
923.984	13225
924.092	13213
924.201	13244
924.309	13149
924.417	13175
924.525	13042
924.633	13088
924.741	13776
924.849	12886
924.956	13084
925.064	12905
925.172	12798
925.279	12825
925.387	12962
925.494	12867
925.602	12943
925.709	12897
925.816	12738
925.924	12810
926.031	12909
926.138	12825
926.245	12837
926.352	12665
926.459	12871
926.566	12894
926.673	12612
926.779	12585
926.886	12658
926.993	12456
927.099	12517
927.206	12422
927.312	12327
927.419	12414
927.525	12448
927.631	12384
927.737	12304
927.843	12327
927.95	12186
928.056	12277
928.162	12350
928.267	12289
928.373	12878
928.479	12285
928.585	12087
928.69	12171
928.796	12178
928.901	12053
929.007	11893
929.112	12076
929.218	12072
929.323	12015
929.428	11885
929.533	12087
929.638	11923
929.743	11855
929.848	11946
929.953	11874
930.058	11805
930.163	11707
930.267	11684
930.372	11840
930.477	11688
930.581	11870
930.685	11695
930.79	11573
930.894	11684
930.998	11524
931.103	11657
931.207	11376
931.311	11216
931.415	11121
931.519	10980
931.623	10896
