Data from test_V78500241_2484.txt Node
Date: Fri Mar 25 15:27:09 CST 2022
User: usil
Spectrometer: V785-0024
Trigger mode: 0
Integration Time (sec): 4.000000E-1
Scans to average: 1
Nonlinearity correction enabled: false
Boxcar width: 0
Storing dark spectrum: false
XAxis mode: Wavelengths
Number of Pixels in Spectrum: 1024
>>>>>Begin Spectral Data<<<<<
801.071	27233
801.214	27104
801.356	26880
801.499	26765
801.641	26796
801.783	26697
801.926	26682
802.068	26765
802.211	26636
802.353	26518
802.496	26362
802.638	26328
802.78	26328
802.923	26229
803.065	26202
803.208	26244
803.35	26393
803.492	26450
803.635	26552
803.777	26438
803.919	26423
804.061	26952
804.204	26514
804.346	26431
804.488	26396
804.63	26457
804.773	26336
804.915	26488
805.057	26476
805.199	26343
805.341	26415
805.483	26606
805.626	26651
805.768	26583
805.91	26549
806.052	26644
806.194	26446
806.336	26739
806.478	26545
806.62	26545
806.762	26564
806.904	26754
807.046	27043
807.188	27013
807.33	26887
807.472	27112
807.614	27017
807.756	26887
807.898	26765
808.04	26754
808.182	26697
808.324	26796
808.465	26701
808.607	27077
808.749	27116
808.891	27169
809.033	27233
809.174	27173
809.316	27096
809.458	27203
809.6	27085
809.741	27214
809.883	27260
810.025	27294
810.166	27427
810.308	27386
810.45	27355
810.591	27401
810.733	27096
810.875	27146
811.016	27013
811.158	26975
811.299	27287
811.441	27355
811.582	27291
811.724	27237
811.865	27058
812.007	27112
812.148	27043
812.29	27184
812.431	27393
812.573	27397
812.714	27629
812.855	27492
812.997	27774
813.138	27793
813.279	27690
813.421	27698
813.562	27583
813.703	27294
813.845	27272
813.986	27013
814.127	26944
814.268	26830
814.41	26743
814.551	26826
814.692	26826
814.833	26674
814.974	26925
815.115	26781
815.256	26724
815.397	26674
815.539	26613
815.68	26564
815.821	26545
815.962	26636
816.103	26465
816.244	26393
816.385	26298
816.526	26336
816.666	26187
816.807	25879
816.948	26043
817.089	26039
817.23	26096
817.371	26031
817.512	25940
817.653	25959
817.793	25986
817.934	25978
818.075	26077
818.216	26054
818.356	26016
818.497	25849
818.638	25750
818.778	25845
818.919	25689
819.06	25845
819.2	25955
819.341	26069
819.481	26008
819.622	26122
819.762	26263
819.903	26244
820.043	26161
820.184	26145
820.324	26134
820.465	26256
820.605	26119
820.746	26088
820.886	25932
821.026	25913
821.167	26187
821.307	26126
821.447	25940
821.588	25982
821.728	25883
821.868	25647
822.008	25651
822.149	25655
822.289	25358
822.429	25156
822.569	25228
822.709	25061
822.849	25145
822.99	25053
823.13	24939
823.27	24913
823.41	24894
823.55	24700
823.69	24783
823.83	24890
823.97	24859
824.11	24692
824.25	24658
824.389	24631
824.529	24688
824.669	24612
824.809	24783
824.949	24623
825.089	24738
825.228	24547
825.368	24494
825.508	24391
825.648	24566
825.787	24467
825.927	24544
826.067	24536
826.206	24601
826.346	24566
826.485	24498
826.625	24422
826.765	24692
826.904	24479
827.044	24228
827.183	24304
827.323	24220
827.462	24247
827.601	24281
827.741	24346
827.88	24289
828.02	24110
828.159	24171
828.298	24129
828.437	24213
828.577	24197
828.716	24239
828.855	24087
828.994	23901
829.134	23931
829.273	23882
829.412	23764
829.551	23805
829.69	23859
829.829	24034
829.968	23984
830.107	24038
830.246	23996
830.385	23897
830.524	23828
830.663	23866
830.802	23668
830.941	23600
831.08	23486
831.219	23611
831.357	23676
831.496	23790
831.635	23619
831.774	23467
831.913	23433
832.051	23261
832.19	23337
832.329	23315
832.467	23216
832.606	23178
832.744	23254
832.883	23189
833.022	23220
833.16	23216
833.299	23296
833.437	23258
833.576	23159
833.714	23284
833.852	23250
833.991	23334
834.129	23277
834.267	23326
834.406	23197
834.544	23265
834.682	23372
834.821	23269
834.959	23398
835.097	23307
835.235	23341
835.373	23250
835.511	23284
835.65	23162
835.788	23181
835.926	23025
836.064	22984
836.202	22980
836.34	23083
836.478	23315
836.615	23102
836.753	23048
836.891	23159
837.029	23052
837.167	23140
837.305	23044
837.443	23094
837.58	22877
837.718	22930
837.856	22980
837.993	22946
838.131	22930
838.269	22854
838.406	22896
838.544	22824
838.681	22687
838.819	22675
838.956	22459
839.094	22344
839.231	22596
839.369	22542
839.506	22706
839.643	22653
839.781	22561
839.918	22238
840.055	22478
840.193	22455
840.33	22356
840.467	22500
840.604	22470
840.742	22691
840.879	22265
841.016	22478
841.153	22166
841.29	22546
841.427	22470
841.564	22390
841.701	22451
841.838	22390
841.975	22333
842.112	22436
842.249	22390
842.385	22295
842.522	22519
842.659	22447
842.796	22177
842.933	22135
843.069	22139
843.206	22078
843.343	22272
843.479	22196
843.616	22112
843.752	22010
843.889	21945
844.025	22036
844.162	21922
844.298	22051
844.435	21979
844.571	21956
844.708	21911
844.844	22097
844.98	22128
845.117	22124
845.253	21926
845.389	21861
845.525	21846
845.661	21808
845.798	21709
845.934	21736
846.07	21549
846.206	21823
846.342	21850
846.478	21496
846.614	21412
846.75	21367
846.886	21431
847.022	21500
847.158	21447
847.294	21397
847.429	21477
847.565	21344
847.701	21652
847.837	21112
847.972	21093
848.108	21245
848.244	21195
848.379	20979
848.515	21024
848.65	21020
848.786	21043
848.921	21039
849.057	20960
849.192	21100
849.328	21055
849.463	21062
849.598	20929
849.734	20883
849.869	20861
850.004	20773
850.14	20765
850.275	20811
850.41	20746
850.545	20785
850.68	20651
850.815	20921
850.95	20762
851.085	21009
851.22	20880
851.355	20781
851.49	20796
851.625	20735
851.76	20883
851.895	20682
852.03	20705
852.165	20815
852.299	20819
852.434	20876
852.569	20765
852.703	20769
852.838	20777
852.973	20781
853.107	20975
853.242	20648
853.376	20530
853.511	20461
853.645	20651
853.78	20727
853.914	20537
854.048	20545
854.183	20480
854.317	20632
854.451	20834
854.585	20632
854.72	20492
854.854	20792
854.988	20552
855.122	20693
855.256	20476
855.39	20663
855.524	20606
855.658	20689
855.792	20693
855.926	20549
856.06	20560
856.194	20667
856.327	20545
856.461	20617
856.595	20552
856.729	20579
856.862	20674
856.996	20644
857.13	20663
857.263	20678
857.397	20716
857.53	20594
857.664	20629
857.797	20788
857.931	20674
858.064	20743
858.197	20678
858.331	20556
858.464	20533
858.597	20476
858.731	20568
858.864	20568
858.997	20473
859.13	20651
859.263	20651
859.396	20788
859.529	20644
859.662	20518
859.795	20602
859.928	20575
860.061	20750
860.194	20727
860.327	20701
860.46	20499
860.592	20739
860.725	20735
860.858	20632
860.99	20552
861.123	20537
861.256	20594
861.388	20587
861.521	21104
861.653	20507
861.786	20328
861.918	20389
862.05	20476
862.183	20522
862.315	20621
862.447	20587
862.58	20423
862.712	20286
862.844	20339
862.976	20336
863.108	20415
863.24	20731
863.372	20225
863.504	20301
863.636	20248
863.768	20431
863.9	20225
864.032	20252
864.164	20225
864.296	20278
864.428	20511
864.559	20347
864.691	20377
864.823	20286
864.954	20419
865.086	20374
865.217	20282
865.349	20161
865.48	20149
865.612	20225
865.743	20309
865.875	20202
866.006	20202
866.137	20313
866.269	20210
866.4	20221
866.531	20259
866.662	20187
866.793	20092
866.924	20107
867.055	20240
867.186	20233
867.317	20119
867.448	20107
867.579	20183
867.71	20062
867.841	20046
867.972	20122
868.103	20180
868.233	20172
868.364	20164
868.495	20294
868.625	20412
868.756	20457
868.886	20355
869.017	20400
869.147	20488
869.278	20575
869.408	20457
869.539	20336
869.669	20480
869.799	20511
869.929	20556
870.06	20461
870.19	20648
870.32	20716
870.45	20686
870.58	20739
870.71	20910
870.84	20876
870.97	20883
871.1	20853
871.23	21005
871.36	21070
871.489	20914
871.619	21074
871.749	20971
871.879	21017
872.008	21074
872.138	21089
872.267	21051
872.397	20815
872.526	20887
872.656	20735
872.785	20826
872.915	21028
873.044	21028
873.173	20971
873.303	21070
873.432	21074
873.561	21032
873.69	21009
873.819	20941
873.948	21058
874.077	21055
874.206	20982
874.335	21017
874.464	21161
874.593	21275
874.722	21150
874.851	21408
874.979	21226
875.108	21287
875.237	21218
875.365	21222
875.494	21310
875.623	21397
875.751	21310
875.88	21291
876.008	21348
876.136	21370
876.265	21701
876.393	21842
876.521	21720
876.65	21709
876.778	21736
876.906	21667
877.034	21603
877.162	21572
877.29	21568
877.418	21599
877.546	21679
877.674	21576
877.802	21701
877.93	21622
878.058	21557
878.185	21591
878.313	21519
878.441	21652
878.568	21416
878.696	21492
878.824	21705
878.951	21720
879.079	21762
879.206	21869
879.333	21876
879.461	21576
879.588	21759
879.715	21743
879.842	21960
879.97	21781
880.097	21447
880.224	21359
880.351	21386
880.478	21431
880.605	21439
880.732	21443
880.859	21656
880.986	21538
881.112	21477
881.239	21294
881.366	21096
881.493	21131
881.619	21047
881.746	21028
881.872	21058
881.999	21039
882.125	20868
882.252	21184
882.378	21001
882.505	21077
882.631	20906
882.757	20720
882.883	20773
883.01	20792
883.136	20800
883.262	20590
883.388	20495
883.514	20670
883.64	20819
883.766	20682
883.892	20522
884.018	20579
884.143	20743
884.269	20830
884.395	20503
884.52	20396
884.646	20408
884.772	20423
884.897	20332
885.023	20450
885.148	20507
885.274	20503
885.399	20541
885.524	20396
885.65	20533
885.775	20370
885.9	20415
886.025	20454
886.15	20476
886.275	20415
886.4	20343
886.525	20362
886.65	20370
886.775	20263
886.9	20545
887.025	20629
887.149	20374
887.274	20191
887.399	20286
887.523	20259
887.648	20149
887.773	20111
887.897	20199
888.021	20183
888.146	20084
888.27	20271
888.395	20233
888.519	20187
888.643	20145
888.767	20168
888.891	19967
889.015	20008
889.139	20069
889.263	19932
889.387	20016
889.511	20187
889.635	20050
889.759	20005
889.883	19978
890.006	19974
890.13	20103
890.254	19757
890.377	19997
890.501	19670
890.624	19772
890.748	19803
890.871	19651
890.995	19575
891.118	19525
891.241	19502
891.364	19537
891.488	19712
891.611	19460
891.734	19544
891.857	19559
891.98	19609
892.103	19605
892.226	19605
892.349	19502
892.471	19350
892.594	19540
892.717	19422
892.839	19487
892.962	19620
893.085	19521
893.207	19552
893.33	19415
893.452	19403
893.575	19438
893.697	19381
893.819	19582
893.941	19594
894.064	19609
894.186	19346
894.308	19381
894.43	19480
894.552	19571
894.674	19540
894.796	19426
894.918	19495
895.04	19392
895.161	19472
895.283	19537
895.405	19373
895.526	19495
895.648	19556
895.769	19480
895.891	19502
896.012	19537
896.134	19655
896.255	19597
896.376	19529
896.498	19457
896.619	19521
896.74	19415
896.861	19480
896.982	19814
897.103	19967
897.224	19753
897.345	19689
897.466	19666
897.587	19647
897.708	19734
897.828	19788
897.949	19632
898.07	19582
898.19	19540
898.311	19788
898.431	19647
898.552	19704
898.672	19700
898.792	19727
898.913	19708
899.033	19609
899.153	19529
899.273	19407
899.393	19415
899.513	19575
899.633	19445
899.753	19495
899.873	19422
899.993	19559
900.113	19350
900.232	19476
900.352	19343
900.472	19365
900.591	19148
900.711	19373
900.83	19164
900.95	19388
901.069	19365
901.189	19126
901.308	18996
901.427	18814
901.546	18795
901.665	18951
901.784	18837
901.904	18661
902.023	18601
902.141	18395
902.26	18445
902.379	18426
902.498	18380
902.617	18300
902.735	18254
902.854	18308
902.973	18209
903.091	18110
903.21	18034
903.328	18110
903.446	17923
903.565	17843
903.683	17889
903.801	17786
903.919	17878
904.038	17809
904.156	17623
904.274	17653
904.392	17512
904.51	17566
904.627	17608
904.745	17722
904.863	17630
904.981	17410
905.098	17265
905.216	17299
905.334	17372
905.451	17429
905.569	17280
905.686	17406
905.803	17337
905.921	17098
906.038	17128
906.155	17124
906.272	16908
906.389	17045
906.506	16889
906.623	16843
906.74	16828
906.857	16767
906.974	16759
907.091	16854
907.208	16908
907.324	16900
907.441	16717
907.557	16561
907.674	16592
907.79	16470
907.907	16611
908.023	16603
908.139	16584
908.256	16504
908.372	16440
908.488	16413
908.604	16356
908.72	16257
908.836	16268
908.952	16272
909.068	16280
909.184	16432
909.3	16299
909.415	16306
909.531	16265
909.647	16074
909.762	16097
909.878	15987
909.993	15949
910.108	16021
910.224	16002
910.339	15953
910.454	15797
910.57	15770
910.685	15793
910.8	15991
910.915	16029
911.03	15835
911.145	15728
911.259	15568
911.374	15591
911.489	15549
911.604	15496
911.718	15344
911.833	15443
911.947	15447
912.062	15348
912.176	15500
912.291	15462
912.405	15500
912.519	15622
912.633	15644
912.748	15389
912.862	15370
912.976	15184
913.09	15119
913.204	15070
913.318	15138
913.431	15393
913.545	15226
913.659	15268
913.772	15154
913.886	14956
914	14918
914.113	15123
914.226	15070
914.34	14944
914.453	14887
914.566	15032
914.68	14819
914.793	14891
914.906	14701
915.019	14644
915.132	14514
915.245	14533
915.358	14583
915.47	14606
915.583	14632
915.696	14598
915.809	14674
915.921	14727
916.034	14514
916.146	14495
916.259	14545
916.371	14533
916.483	14560
916.595	14408
916.708	14431
916.82	14549
916.932	14385
917.044	14400
917.156	14415
917.268	14309
917.38	14286
917.491	14195
917.603	14324
917.715	14298
917.826	14320
917.938	14180
918.049	14195
918.161	14229
918.272	14385
918.384	14358
918.495	14282
918.606	14111
918.717	13940
918.828	14073
918.939	14115
919.05	14020
919.161	14081
919.272	13799
919.383	13845
919.494	14153
919.604	14187
919.715	14020
919.826	13993
919.936	13997
920.047	14039
920.157	14046
920.267	14149
920.378	14043
920.488	13951
920.598	14233
920.708	14332
920.818	14240
920.928	14092
921.038	14324
921.148	14278
921.258	13993
921.368	13807
921.477	13780
921.587	13693
921.697	13578
921.806	13807
921.916	13651
922.025	13449
922.134	13392
922.244	13457
922.353	13468
922.462	13335
922.571	13225
922.68	13164
922.789	13175
922.898	13095
923.007	13084
923.116	13050
923.224	13107
923.333	13053
923.442	12890
923.55	12878
923.659	12951
923.767	12932
923.876	12848
923.984	12939
924.092	12837
924.201	12791
924.309	12833
924.417	12867
924.525	12783
924.633	12734
924.741	13620
924.849	12593
924.956	12692
925.064	12570
925.172	12486
925.279	12544
925.387	12502
925.494	12525
925.602	12585
925.709	12578
925.816	12475
925.924	12464
926.031	12608
926.138	12509
926.245	12410
926.352	12388
926.459	12544
926.566	12509
926.673	12399
926.779	12353
926.886	12273
926.993	12114
927.099	12057
927.206	11988
927.312	12015
927.419	12152
927.525	11999
927.631	12155
927.737	12026
927.843	11954
927.95	11855
928.056	11908
928.162	11961
928.267	11961
928.373	12585
928.479	11973
928.585	11748
928.69	11836
928.796	11939
928.901	11790
929.007	11615
929.112	11802
929.218	11760
929.323	11767
929.428	11638
929.533	11802
929.638	11577
929.743	11558
929.848	11775
929.953	11554
930.058	11471
930.163	11280
930.267	11383
930.372	11497
930.477	11296
930.581	11581
930.685	11356
930.79	11250
930.894	11299
930.998	11223
931.103	11307
931.207	10938
931.311	10904
931.415	10801
931.519	10698
931.623	10618
