Data from test_V78500241_3043.txt Node
Date: Fri Mar 25 15:31:02 CST 2022
User: usil
Spectrometer: V785-0024
Trigger mode: 0
Integration Time (sec): 4.000000E-1
Scans to average: 1
Nonlinearity correction enabled: false
Boxcar width: 0
Storing dark spectrum: false
XAxis mode: Wavelengths
Number of Pixels in Spectrum: 1024
>>>>>Begin Spectral Data<<<<<
801.071	27325
801.214	27252
801.356	26952
801.499	26906
801.641	26807
801.783	26632
801.926	26731
802.068	26773
802.211	26735
802.353	26762
802.496	26450
802.638	26324
802.78	26339
802.923	26431
803.065	26263
803.208	26389
803.35	26415
803.492	26545
803.635	26617
803.777	26465
803.919	26609
804.061	26899
804.204	26522
804.346	26571
804.488	26499
804.63	26476
804.773	26442
804.915	26499
805.057	26785
805.199	26530
805.341	26625
805.483	26556
805.626	26621
805.768	26708
805.91	26686
806.052	26686
806.194	26670
806.336	26781
806.478	26488
806.62	26590
806.762	26686
806.904	26937
807.046	27184
807.188	27127
807.33	27100
807.472	27203
807.614	26815
807.756	26960
807.898	26792
808.04	26842
808.182	26842
808.324	26891
808.465	26982
808.607	27093
808.749	27287
808.891	27294
809.033	27477
809.174	27332
809.316	27230
809.458	27180
809.6	27123
809.741	27306
809.883	27405
810.025	27576
810.166	27561
810.308	27660
810.45	27401
810.591	27272
810.733	27264
810.875	27188
811.016	27165
811.158	27214
811.299	27264
811.441	27424
811.582	27561
811.724	27275
811.865	27245
812.007	27184
812.148	27294
812.29	27272
812.431	27393
812.573	27648
812.714	27694
812.855	27698
812.997	27804
813.138	27827
813.279	27819
813.421	27846
813.562	27496
813.703	27447
813.845	27370
813.986	27176
814.127	26857
814.268	26883
814.41	26975
814.551	26887
814.692	26990
814.833	26800
814.974	26918
815.115	26975
815.256	26872
815.397	26674
815.539	26750
815.68	26598
815.821	26682
815.962	26640
816.103	26530
816.244	26632
816.385	26606
816.526	26400
816.666	26229
816.807	26210
816.948	26271
817.089	26362
817.23	26176
817.371	26050
817.512	26263
817.653	26119
817.793	25982
817.934	26267
818.075	26130
818.216	26191
818.356	26073
818.497	26081
818.638	25890
818.778	25925
818.919	25959
819.06	26008
819.2	26012
819.341	26161
819.481	26088
819.622	26278
819.762	26442
819.903	26324
820.043	26324
820.184	26172
820.324	26138
820.465	26298
820.605	26267
820.746	26282
820.886	25982
821.026	26062
821.167	26225
821.307	26393
821.447	26081
821.588	26111
821.728	25906
821.868	25689
822.008	25578
822.149	25529
822.289	25666
822.429	25285
822.569	25297
822.709	25236
822.849	25202
822.99	25148
823.13	25095
823.27	25126
823.41	24901
823.55	24840
823.69	24932
823.83	24871
823.97	24928
824.11	24684
824.25	24650
824.389	24798
824.529	24779
824.669	24719
824.809	24810
824.949	24928
825.089	24840
825.228	24722
825.368	24719
825.508	24521
825.648	24661
825.787	24734
825.927	24627
826.067	24593
826.206	24547
826.346	24639
826.485	24669
826.625	24566
826.765	24787
826.904	24696
827.044	24403
827.183	24357
827.323	24296
827.462	24494
827.601	24194
827.741	24243
827.88	24308
828.02	24152
828.159	24220
828.298	24190
828.437	24304
828.577	24163
828.716	24410
828.855	24220
828.994	24247
829.134	23961
829.273	24072
829.412	24022
829.551	23977
829.69	24060
829.829	23904
829.968	24060
830.107	24117
830.246	24030
830.385	23950
830.524	23893
830.663	23859
830.802	23699
830.941	23741
831.08	23623
831.219	23722
831.357	23710
831.496	23813
831.635	23573
831.774	23490
831.913	23433
832.051	23376
832.19	23315
832.329	23421
832.467	23265
832.606	23265
832.744	23239
832.883	23299
833.022	23231
833.16	23417
833.299	23364
833.437	23227
833.576	23353
833.714	23334
833.852	23414
833.991	23318
834.129	23452
834.267	23395
834.406	23288
834.544	23315
834.682	23356
834.821	23341
834.959	23577
835.097	23208
835.235	23387
835.373	23387
835.511	23292
835.65	23143
835.788	23056
835.926	22946
836.064	23083
836.202	23166
836.34	23204
836.478	23311
836.615	23124
836.753	23185
836.891	23277
837.029	23064
837.167	23197
837.305	23086
837.443	23181
837.58	22976
837.718	23056
837.856	23052
837.993	23090
838.131	22995
838.269	22930
838.406	22847
838.544	22866
838.681	22824
838.819	22641
838.956	22622
839.094	22592
839.231	22634
839.369	22626
839.506	22839
839.643	22816
839.781	22466
839.918	22462
840.055	22428
840.193	22546
840.33	22451
840.467	22538
840.604	22519
840.742	22710
840.879	22249
841.016	22367
841.153	22246
841.29	22504
841.427	22375
841.564	22436
841.701	22382
841.838	22367
841.975	22379
842.112	22405
842.249	22310
842.385	22329
842.522	22478
842.659	22356
842.796	22230
842.933	22086
843.069	22105
843.206	22128
843.343	22230
843.479	22177
843.616	22257
843.752	21915
843.889	22002
844.025	22131
844.162	21972
844.298	21949
844.435	21945
844.571	21964
844.708	21979
844.844	22154
844.98	22158
845.117	22059
845.253	21892
845.389	21842
845.525	21838
845.661	21880
845.798	21800
845.934	21762
846.07	21523
846.206	21778
846.342	21819
846.478	21610
846.614	21488
846.75	21294
846.886	21420
847.022	21500
847.158	21458
847.294	21401
847.429	21492
847.565	21530
847.701	21671
847.837	21241
847.972	21138
848.108	21218
848.244	21226
848.379	21237
848.515	21116
848.65	20937
848.786	20986
848.921	21001
849.057	20986
849.192	21119
849.328	21013
849.463	20895
849.598	20963
849.734	20906
849.869	20902
850.004	20815
850.14	20804
850.275	20868
850.41	20746
850.545	20697
850.68	20788
850.815	20708
850.95	20750
851.085	20990
851.22	20853
851.355	20921
851.49	20883
851.625	20773
851.76	20830
851.895	20792
852.03	20842
852.165	20792
852.299	20864
852.434	20971
852.569	20815
852.703	20792
852.838	20796
852.973	20933
853.107	20800
853.242	20693
853.376	20659
853.511	20511
853.645	20575
853.78	20731
853.914	20606
854.048	20442
854.183	20579
854.317	20655
854.451	20857
854.585	20674
854.72	20587
854.854	20769
854.988	20636
855.122	20674
855.256	20484
855.39	20632
855.524	20659
855.658	20701
855.792	20716
855.926	20716
856.06	20720
856.194	20758
856.327	20667
856.461	20625
856.595	20499
856.729	20511
856.862	20792
856.996	20651
857.13	20746
857.263	20788
857.397	20887
857.53	20564
857.664	20651
857.797	20746
857.931	20819
858.064	20568
858.197	20674
858.331	20629
858.464	20609
858.597	20659
858.731	20594
858.864	20632
858.997	20606
859.13	20507
859.263	20727
859.396	20686
859.529	20590
859.662	20492
859.795	20609
859.928	20701
860.061	20731
860.194	20731
860.327	20609
860.46	20708
860.592	20632
860.725	20697
860.858	20609
860.99	20564
861.123	20461
861.256	20473
861.388	20648
861.521	21294
861.653	20526
861.786	20328
861.918	20480
862.05	20492
862.183	20480
862.315	20530
862.447	20609
862.58	20533
862.712	20385
862.844	20298
862.976	20358
863.108	20358
863.24	20853
863.372	20339
863.504	20305
863.636	20351
863.768	20446
863.9	20332
864.032	20180
864.164	20286
864.296	20396
864.428	20419
864.559	20366
864.691	20423
864.823	20294
864.954	20377
865.086	20252
865.217	20324
865.349	20157
865.48	20199
865.612	20210
865.743	20351
865.875	20259
866.006	20206
866.137	20290
866.269	20301
866.4	20225
866.531	20161
866.662	20138
866.793	20214
866.924	20237
867.055	20202
867.186	20229
867.317	20214
867.448	20088
867.579	20149
867.71	20096
867.841	20202
867.972	20168
868.103	20271
868.233	20252
868.364	20191
868.495	20294
868.625	20374
868.756	20492
868.886	20423
869.017	20400
869.147	20549
869.278	20518
869.408	20381
869.539	20374
869.669	20431
869.799	20469
869.929	20442
870.06	20560
870.19	20670
870.32	20682
870.45	20750
870.58	20883
870.71	20883
870.84	20830
870.97	20792
871.1	20777
871.23	21077
871.36	21013
871.489	20918
871.619	20979
871.749	20941
871.879	21051
872.008	21142
872.138	21039
872.267	21005
872.397	20845
872.526	20815
872.656	20857
872.785	20914
872.915	20956
873.044	21188
873.173	21104
873.303	21043
873.432	21051
873.561	21150
873.69	21093
873.819	21089
873.948	21017
874.077	21058
874.206	20956
874.335	21032
874.464	21138
874.593	21302
874.722	21291
874.851	21230
874.979	21184
875.108	21306
875.237	21188
875.365	21127
875.494	21329
875.623	21401
875.751	21249
875.88	21287
876.008	21431
876.136	21462
876.265	21591
876.393	21857
876.521	21808
876.65	21736
876.778	21648
876.906	21580
877.034	21583
877.162	21656
877.29	21603
877.418	21736
877.546	21652
877.674	21667
877.802	21709
877.93	21675
878.058	21557
878.185	21587
878.313	21663
878.441	21538
878.568	21408
878.696	21572
878.824	21618
878.951	21747
879.079	21755
879.206	21838
879.333	21789
879.461	21641
879.588	21785
879.715	21865
879.842	21998
879.97	21625
880.097	21492
880.224	21367
880.351	21553
880.478	21450
880.605	21511
880.732	21389
880.859	21663
880.986	21485
881.112	21553
881.239	21374
881.366	21222
881.493	21226
881.619	21028
881.746	21096
881.872	21123
881.999	21024
882.125	21093
882.252	20971
882.378	21001
882.505	21169
882.631	20883
882.757	20670
882.883	20918
883.01	20712
883.136	20838
883.262	20693
883.388	20625
883.514	20716
883.64	20720
883.766	20609
883.892	20499
884.018	20575
884.143	20830
884.269	20785
884.395	20461
884.52	20256
884.646	20488
884.772	20317
884.897	20473
885.023	20381
885.148	20488
885.274	20552
885.399	20328
885.524	20309
885.65	20431
885.775	20423
885.9	20339
886.025	20480
886.15	20336
886.275	20454
886.4	20320
886.525	20339
886.65	20377
886.775	20298
886.9	20537
887.025	20549
887.149	20309
887.274	20248
887.399	20149
887.523	20187
887.648	20088
887.773	20084
887.897	20240
888.021	20149
888.146	20172
888.27	20210
888.395	20157
888.519	20157
888.643	20172
888.767	20294
888.891	20077
889.015	20115
889.139	20107
889.263	20054
889.387	20100
889.511	20111
889.635	20050
889.759	19967
889.883	19898
890.006	19936
890.13	19917
890.254	19833
890.377	19936
890.501	19704
890.624	19696
890.748	19864
890.871	19632
890.995	19457
891.118	19377
891.241	19575
891.364	19685
891.488	19643
891.611	19582
891.734	19666
891.857	19552
891.98	19651
892.103	19635
892.226	19609
892.349	19510
892.471	19346
892.594	19582
892.717	19559
892.839	19544
892.962	19514
893.085	19487
893.207	19403
893.33	19362
893.452	19373
893.575	19552
893.697	19525
893.819	19693
893.941	19639
894.064	19590
894.186	19339
894.308	19430
894.43	19537
894.552	19544
894.674	19506
894.796	19358
894.918	19419
895.04	19407
895.161	19552
895.283	19476
895.405	19540
895.526	19563
895.648	19384
895.769	19578
895.891	19544
896.012	19567
896.134	19529
896.255	19556
896.376	19419
896.498	19460
896.619	19518
896.74	19537
896.861	19552
896.982	19837
897.103	19951
897.224	19742
897.345	19788
897.466	19677
897.587	19696
897.708	19814
897.828	19826
897.949	19651
898.07	19635
898.19	19719
898.311	19795
898.431	19677
898.552	19712
898.672	19788
898.792	19864
898.913	19738
899.033	19605
899.153	19605
899.273	19419
899.393	19388
899.513	19510
899.633	19468
899.753	19529
899.873	19460
899.993	19419
900.113	19403
900.232	19518
900.352	19419
900.472	19400
900.591	19217
900.711	19289
900.83	19145
900.95	19377
901.069	19263
901.189	19034
901.308	18939
901.427	18810
901.546	18871
901.665	18856
901.784	18840
901.904	18692
902.023	18703
902.141	18502
902.26	18475
902.379	18464
902.498	18490
902.617	18399
902.735	18334
902.854	18327
902.973	18262
903.091	18106
903.21	18015
903.328	17942
903.446	18011
903.565	17897
903.683	17908
903.801	17779
903.919	17813
904.038	17847
904.156	17668
904.274	17779
904.392	17577
904.51	17684
904.627	17657
904.745	17642
904.863	17714
904.981	17493
905.098	17299
905.216	17318
905.334	17284
905.451	17318
905.569	17231
905.686	17292
905.803	17341
905.921	17124
906.038	17223
906.155	17193
906.272	16900
906.389	17041
906.506	16900
906.623	16881
906.74	16843
906.857	16664
906.974	16653
907.091	16873
907.208	16984
907.324	16873
907.441	16740
907.557	16615
907.674	16558
907.79	16569
907.907	16599
908.023	16550
908.139	16630
908.256	16413
908.372	16523
908.488	16592
908.604	16333
908.72	16314
908.836	16352
908.952	16337
909.068	16314
909.184	16455
909.3	16276
909.415	16314
909.531	16234
909.647	15991
909.762	16021
909.878	15907
909.993	16002
910.108	15964
910.224	15934
910.339	15998
910.454	15892
910.57	15800
910.685	15694
910.8	15956
910.915	16029
911.03	15671
911.145	15488
911.259	15542
911.374	15599
911.489	15568
911.604	15450
911.718	15439
911.833	15386
911.947	15310
912.062	15230
912.176	15367
912.291	15401
912.405	15462
912.519	15656
912.633	15534
912.748	15439
912.862	15291
912.976	15222
913.09	15127
913.204	15180
913.318	15150
913.431	15207
913.545	15272
913.659	15203
913.772	15279
913.886	14861
914	14925
914.113	15146
914.226	15180
914.34	15074
914.453	14872
914.566	15055
914.68	14948
914.793	14785
914.906	14655
915.019	14632
915.132	14522
915.245	14568
915.358	14663
915.47	14549
915.583	14590
915.696	14648
915.809	14804
915.921	14697
916.034	14583
916.146	14564
916.259	14587
916.371	14610
916.483	14530
916.595	14450
916.708	14526
916.82	14450
916.932	14423
917.044	14351
917.156	14454
917.268	14252
917.38	14309
917.491	14294
917.603	14298
917.715	14377
917.826	14389
917.938	14168
918.049	14149
918.161	14290
918.272	14393
918.384	14339
918.495	14244
918.606	14008
918.717	13989
918.828	14100
918.939	14100
919.05	13997
919.161	14035
919.272	13932
919.383	13898
919.494	14168
919.604	14301
919.715	14100
919.826	13925
919.936	14054
920.047	14058
920.157	14039
920.267	14195
920.378	14130
920.488	14069
920.598	14195
920.708	14347
920.818	14161
920.928	14092
921.038	14259
921.148	14252
921.258	13917
921.368	13921
921.477	13765
921.587	13822
921.697	13605
921.806	13906
921.916	13712
922.025	13476
922.134	13472
922.244	13312
922.353	13362
922.462	13289
922.571	13285
922.68	13137
922.789	13149
922.898	13149
923.007	13000
923.116	13069
923.224	13019
923.333	12985
923.442	12905
923.55	12856
923.659	12977
923.767	12962
923.876	12875
923.984	12916
924.092	12806
924.201	12844
924.309	12745
924.417	12814
924.525	12734
924.633	12688
924.741	13715
924.849	12612
924.956	12753
925.064	12494
925.172	12532
925.279	12601
925.387	12513
925.494	12578
925.602	12650
925.709	12498
925.816	12486
925.924	12498
926.031	12608
926.138	12460
926.245	12399
926.352	12369
926.459	12555
926.566	12547
926.673	12342
926.779	12254
926.886	12330
926.993	12171
927.099	12144
927.206	12049
927.312	12003
927.419	12114
927.525	12053
927.631	12095
927.737	12003
927.843	11965
927.95	11809
928.056	11836
928.162	12026
928.267	11984
928.373	12536
928.479	11988
928.585	11703
928.69	11843
928.796	11935
928.901	11832
929.007	11668
929.112	11764
929.218	11684
929.323	11764
929.428	11665
929.533	11859
929.638	11535
929.743	11600
929.848	11608
929.953	11535
930.058	11455
930.163	11303
930.267	11372
930.372	11478
930.477	11277
930.581	11581
930.685	11467
930.79	11307
930.894	11220
930.998	11303
931.103	11353
931.207	11033
931.311	10915
931.415	10820
931.519	10698
931.623	10603
