Data from test_V78500241_2836.txt Node
Date: Fri Mar 25 15:29:36 CST 2022
User: usil
Spectrometer: V785-0024
Trigger mode: 0
Integration Time (sec): 4.000000E-1
Scans to average: 1
Nonlinearity correction enabled: false
Boxcar width: 0
Storing dark spectrum: false
XAxis mode: Wavelengths
Number of Pixels in Spectrum: 1024
>>>>>Begin Spectral Data<<<<<
801.071	27211
801.214	27112
801.356	26998
801.499	26876
801.641	26731
801.783	26823
801.926	26785
802.068	26899
802.211	26667
802.353	26663
802.496	26461
802.638	26469
802.78	26629
802.923	26389
803.065	26412
803.208	26339
803.35	26457
803.492	26499
803.635	26594
803.777	26484
803.919	26575
804.061	26952
804.204	26667
804.346	26568
804.488	26530
804.63	26571
804.773	26408
804.915	26602
805.057	26727
805.199	26640
805.341	26705
805.483	26750
805.626	26769
805.768	26571
805.91	26693
806.052	26868
806.194	26640
806.336	26864
806.478	26739
806.62	26701
806.762	26743
806.904	26998
807.046	27294
807.188	27100
807.33	27294
807.472	27249
807.614	27108
807.756	27135
807.898	27058
808.04	26914
808.182	26967
808.324	26921
808.465	27093
808.607	27264
808.749	27485
808.891	27393
809.033	27580
809.174	27374
809.316	27386
809.458	27275
809.6	27226
809.741	27374
809.883	27549
810.025	27591
810.166	27580
810.308	27591
810.45	27572
810.591	27466
810.733	27382
810.875	27325
811.016	27302
811.158	27313
811.299	27466
811.441	27447
811.582	27477
811.724	27420
811.865	27408
812.007	27344
812.148	27287
812.29	27374
812.431	27481
812.573	27663
812.714	27625
812.855	27831
812.997	27895
813.138	27975
813.279	27975
813.421	27838
813.562	27686
813.703	27724
813.845	27507
813.986	27173
814.127	27119
814.268	27051
814.41	27070
814.551	26986
814.692	27085
814.833	26971
814.974	27009
815.115	27024
815.256	26838
815.397	26948
815.539	26727
815.68	26769
815.821	26632
815.962	26823
816.103	26834
816.244	26621
816.385	26537
816.526	26366
816.666	26385
816.807	26271
816.948	26301
817.089	26294
817.23	26305
817.371	26301
817.512	26218
817.653	26282
817.793	25986
817.934	26065
818.075	26252
818.216	26256
818.356	26206
818.497	26161
818.638	25966
818.778	26065
818.919	26046
819.06	26020
819.2	25986
819.341	26149
819.481	26149
819.622	26374
819.762	26617
819.903	26480
820.043	26461
820.184	26362
820.324	26286
820.465	26362
820.605	26343
820.746	26290
820.886	26157
821.026	26244
821.167	26225
821.307	26366
821.447	26172
821.588	26153
821.728	26005
821.868	25837
822.008	25795
822.149	25727
822.289	25597
822.429	25537
822.569	25354
822.709	25403
822.849	25251
822.99	25160
823.13	25084
823.27	25145
823.41	25232
823.55	24886
823.69	25088
823.83	25015
823.97	24951
824.11	24749
824.25	24791
824.389	24772
824.529	24833
824.669	24741
824.809	24901
824.949	25050
825.089	24954
825.228	24745
825.368	24791
825.508	24658
825.648	24646
825.787	24768
825.927	24829
826.067	24601
826.206	24677
826.346	24745
826.485	24715
826.625	24814
826.765	24859
826.904	24692
827.044	24395
827.183	24380
827.323	24490
827.462	24574
827.601	24467
827.741	24304
827.88	24460
828.02	24338
828.159	24266
828.298	24369
828.437	24403
828.577	24429
828.716	24570
828.855	24391
828.994	24148
829.134	24148
829.273	24201
829.412	23996
829.551	24072
829.69	24030
829.829	24129
829.968	24174
830.107	24186
830.246	24190
830.385	24022
830.524	23942
830.663	23988
830.802	23870
830.941	23733
831.08	23668
831.219	23821
831.357	23722
831.496	23916
831.635	23699
831.774	23509
831.913	23474
832.051	23509
832.19	23547
832.329	23509
832.467	23277
832.606	23239
832.744	23474
832.883	23250
833.022	23360
833.16	23227
833.299	23482
833.437	23383
833.576	23395
833.714	23455
833.852	23486
833.991	23649
834.129	23543
834.267	23410
834.406	23379
834.544	23467
834.682	23448
834.821	23467
834.959	23600
835.097	23341
835.235	23334
835.373	23429
835.511	23345
835.65	23250
835.788	23239
835.926	23140
836.064	23136
836.202	23071
836.34	23265
836.478	23303
836.615	23292
836.753	23170
836.891	23288
837.029	23341
837.167	23330
837.305	23189
837.443	22980
837.58	23060
837.718	23223
837.856	23170
837.993	23204
838.131	23185
838.269	22972
838.406	23044
838.544	22980
838.681	22809
838.819	22713
838.956	22527
839.094	22565
839.231	22584
839.369	22786
839.506	23033
839.643	22850
839.781	22455
839.918	22542
840.055	22603
840.193	22588
840.33	22322
840.467	22440
840.604	22523
840.742	22755
840.879	22295
841.016	22481
841.153	22344
841.29	22664
841.427	22535
841.564	22584
841.701	22398
841.838	22428
841.975	22360
842.112	22466
842.249	22268
842.385	22360
842.522	22470
842.659	22432
842.796	22280
842.933	22211
843.069	22287
843.206	22272
843.343	22280
843.479	22238
843.616	22249
843.752	21945
843.889	22105
844.025	22097
844.162	21797
844.298	22105
844.435	21960
844.571	22025
844.708	21994
844.844	22230
844.98	22192
845.117	22105
845.253	22036
845.389	21907
845.525	21922
845.661	21964
845.798	21800
845.934	21838
846.07	21679
846.206	21823
846.342	21865
846.478	21717
846.614	21492
846.75	21534
846.886	21523
847.022	21564
847.158	21583
847.294	21587
847.429	21622
847.565	21504
847.701	21724
847.837	21195
847.972	21184
848.108	21272
848.244	21344
848.379	21093
848.515	21142
848.65	21077
848.786	21062
848.921	21020
849.057	21298
849.192	21241
849.328	21070
849.463	21214
849.598	21020
849.734	20880
849.869	21051
850.004	20902
850.14	20842
850.275	20967
850.41	20883
850.545	20781
850.68	20800
850.815	20910
850.95	20880
851.085	21020
851.22	21024
851.355	20960
851.49	20914
851.625	20804
851.76	20944
851.895	20899
852.03	20739
852.165	20975
852.299	20823
852.434	21096
852.569	20887
852.703	20785
852.838	20914
852.973	20971
853.107	20925
853.242	20845
853.376	20644
853.511	20541
853.645	20663
853.78	20834
853.914	20735
854.048	20648
854.183	20667
854.317	20731
854.451	20842
854.585	20674
854.72	20758
854.854	20746
854.988	20621
855.122	20754
855.256	20613
855.39	20727
855.524	20640
855.658	20811
855.792	20670
855.926	20667
856.06	20594
856.194	20804
856.327	20804
856.461	20659
856.595	20670
856.729	20686
856.862	20724
856.996	20887
857.13	20796
857.263	20853
857.397	20792
857.53	20750
857.664	20800
857.797	20800
857.931	20826
858.064	20659
858.197	20861
858.331	20670
858.464	20701
858.597	20587
858.731	20609
858.864	20697
858.997	20526
859.13	20720
859.263	20746
859.396	20845
859.529	20609
859.662	20659
859.795	20674
859.928	20746
860.061	20857
860.194	20979
860.327	20648
860.46	20876
860.592	20819
860.725	20842
860.858	20834
860.99	20632
861.123	20644
861.256	20598
861.388	20674
861.521	21294
861.653	20606
861.786	20530
861.918	20415
862.05	20522
862.183	20568
862.315	20583
862.447	20689
862.58	20644
862.712	20396
862.844	20503
862.976	20522
863.108	20454
863.24	20925
863.372	20389
863.504	20434
863.636	20355
863.768	20484
863.9	20355
864.032	20427
864.164	20423
864.296	20393
864.428	20473
864.559	20484
864.691	20530
864.823	20438
864.954	20355
865.086	20404
865.217	20377
865.349	20256
865.48	20237
865.612	20240
865.743	20499
865.875	20267
866.006	20301
866.137	20377
866.269	20290
866.4	20259
866.531	20336
866.662	20229
866.793	20286
866.924	20210
867.055	20218
867.186	20317
867.317	20161
867.448	20119
867.579	20240
867.71	20240
867.841	20206
867.972	20332
868.103	20271
868.233	20218
868.364	20332
868.495	20309
868.625	20400
868.756	20560
868.886	20442
869.017	20450
869.147	20594
869.278	20621
869.408	20473
869.539	20564
869.669	20621
869.799	20556
869.929	20560
870.06	20526
870.19	20883
870.32	20769
870.45	20876
870.58	20895
870.71	21024
870.84	20921
870.97	20963
871.1	20967
871.23	21043
871.36	21051
871.489	20963
871.619	20902
871.749	21062
871.879	21131
872.008	21169
872.138	21089
872.267	21077
872.397	20990
872.526	20887
872.656	21009
872.785	20910
872.915	21116
873.044	21260
873.173	21146
873.303	21142
873.432	21146
873.561	21188
873.69	21169
873.819	21150
873.948	21169
874.077	21184
874.206	21066
874.335	21184
874.464	21150
874.593	21283
874.722	21291
874.851	21325
874.979	21473
875.108	21389
875.237	21310
875.365	21294
875.494	21348
875.623	21439
875.751	21359
875.88	21454
876.008	21298
876.136	21466
876.265	21797
876.393	21797
876.521	21907
876.65	21816
876.778	21728
876.906	21686
877.034	21736
877.162	21644
877.29	21644
877.418	21705
877.546	21774
877.674	21698
877.802	21682
877.93	21644
878.058	21644
878.185	21515
878.313	21713
878.441	21629
878.568	21447
878.696	21656
878.824	21835
878.951	21857
879.079	21808
879.206	22059
879.333	21876
879.461	21785
879.588	21774
879.715	21892
879.842	22017
879.97	21747
880.097	21507
880.224	21492
880.351	21618
880.478	21663
880.605	21488
880.732	21511
880.859	21762
880.986	21530
881.112	21530
881.239	21351
881.366	21161
881.493	21173
881.619	21188
881.746	21146
881.872	21203
881.999	21070
882.125	21131
882.252	21119
882.378	21036
882.505	21214
882.631	21009
882.757	20880
882.883	20933
883.01	20906
883.136	20636
883.262	20746
883.388	20735
883.514	20823
883.64	20777
883.766	20731
883.892	20682
884.018	20640
884.143	20769
884.269	20876
884.395	20514
884.52	20450
884.646	20366
884.772	20495
884.897	20343
885.023	20537
885.148	20590
885.274	20686
885.399	20583
885.524	20358
885.65	20434
885.775	20495
885.9	20457
886.025	20564
886.15	20556
886.275	20400
886.4	20484
886.525	20438
886.65	20381
886.775	20339
886.9	20613
887.025	20678
887.149	20469
887.274	20355
887.399	20271
887.523	20267
887.648	20092
887.773	20119
887.897	20324
888.021	20298
888.146	20221
888.27	20355
888.395	20298
888.519	20237
888.643	20301
888.767	20278
888.891	20229
889.015	20103
889.139	20145
889.263	19982
889.387	20210
889.511	20298
889.635	20145
889.759	20122
889.883	19974
890.006	19936
890.13	20183
890.254	20008
890.377	19936
890.501	19841
890.624	19822
890.748	19822
890.871	19700
890.995	19590
891.118	19559
891.241	19693
891.364	19651
891.488	19795
891.611	19556
891.734	19594
891.857	19746
891.98	19544
892.103	19613
892.226	19605
892.349	19651
892.471	19457
892.594	19502
892.717	19597
892.839	19400
892.962	19590
893.085	19613
893.207	19525
893.33	19491
893.452	19525
893.575	19563
893.697	19521
893.819	19628
893.941	19788
894.064	19723
894.186	19518
894.308	19502
894.43	19651
894.552	19742
894.674	19693
894.796	19495
894.918	19525
895.04	19495
895.161	19666
895.283	19647
895.405	19506
895.526	19449
895.648	19483
895.769	19575
895.891	19594
896.012	19643
896.134	19647
896.255	19643
896.376	19529
896.498	19597
896.619	19502
896.74	19540
896.861	19616
896.982	19928
897.103	20050
897.224	19818
897.345	19715
897.466	19750
897.587	19791
897.708	20020
897.828	19826
897.949	19811
898.07	19639
898.19	19772
898.311	19928
898.431	19746
898.552	19788
898.672	19788
898.792	19845
898.913	19822
899.033	19594
899.153	19571
899.273	19525
899.393	19613
899.513	19559
899.633	19571
899.753	19480
899.873	19464
899.993	19571
900.113	19613
900.232	19521
900.352	19438
900.472	19464
900.591	19202
900.711	19434
900.83	19202
900.95	19396
901.069	19457
901.189	19217
901.308	19031
901.427	18935
901.546	18871
901.665	19046
901.784	18920
901.904	18909
902.023	18738
902.141	18532
902.26	18494
902.379	18479
902.498	18486
902.617	18490
902.735	18422
902.854	18418
902.973	18296
903.091	18190
903.21	18076
903.328	18057
903.446	17950
903.565	17946
903.683	17961
903.801	17832
903.919	17904
904.038	17931
904.156	17855
904.274	17733
904.392	17676
904.51	17592
904.627	17687
904.745	17646
904.863	17760
904.981	17619
905.098	17455
905.216	17387
905.334	17421
905.451	17433
905.569	17261
905.686	17318
905.803	17318
905.921	17212
906.038	17296
906.155	17197
906.272	17003
906.389	17197
906.506	16934
906.623	16938
906.74	16816
906.857	16736
906.974	16858
907.091	17037
907.208	17010
907.324	16961
907.441	16843
907.557	16656
907.674	16626
907.79	16554
907.907	16653
908.023	16649
908.139	16653
908.256	16664
908.372	16527
908.488	16447
908.604	16303
908.72	16367
908.836	16390
908.952	16386
909.068	16363
909.184	16428
909.3	16481
909.415	16417
909.531	16367
909.647	16166
909.762	16032
909.878	16185
909.993	16177
910.108	16017
910.224	16101
910.339	16017
910.454	15964
910.57	15884
910.685	15854
910.8	16059
910.915	15941
911.03	15960
911.145	15755
911.259	15709
911.374	15751
911.489	15492
911.604	15603
911.718	15405
911.833	15424
911.947	15351
912.062	15256
912.176	15382
912.291	15515
912.405	15435
912.519	15656
912.633	15694
912.748	15485
912.862	15443
912.976	15268
913.09	15093
913.204	15294
913.318	15249
913.431	15310
913.545	15279
913.659	15370
913.772	15214
913.886	15169
914	15024
914.113	15013
914.226	15268
914.34	15135
914.453	14781
914.566	15108
914.68	14990
914.793	14933
914.906	14777
915.019	14667
915.132	14598
915.245	14705
915.358	14670
915.47	14731
915.583	14644
915.696	14686
915.809	14731
915.921	14819
916.034	14765
916.146	14526
916.259	14606
916.371	14667
916.483	14587
916.595	14590
916.708	14545
916.82	14575
916.932	14484
917.044	14507
917.156	14434
917.268	14347
917.38	14328
917.491	14396
917.603	14290
917.715	14419
917.826	14503
917.938	14301
918.049	14214
918.161	14351
918.272	14336
918.384	14396
918.495	14282
918.606	14195
918.717	14012
918.828	14103
918.939	14100
919.05	14043
919.161	14111
919.272	13917
919.383	13993
919.494	14180
919.604	14278
919.715	14138
919.826	14073
919.936	14084
920.047	14084
920.157	14119
920.267	14278
920.378	14096
920.488	14035
920.598	14267
920.708	14400
920.818	14214
920.928	14244
921.038	14423
921.148	14305
921.258	14027
921.368	13898
921.477	13879
921.587	13761
921.697	13677
921.806	13906
921.916	13693
922.025	13586
922.134	13449
922.244	13510
922.353	13556
922.462	13419
922.571	13289
922.68	13187
922.789	13232
922.898	13061
923.007	13126
923.116	13152
923.224	13141
923.333	13118
923.442	13031
923.55	12958
923.659	12981
923.767	13107
923.876	12951
923.984	13027
924.092	12814
924.201	12993
924.309	12916
924.417	12878
924.525	12764
924.633	12730
924.741	13761
924.849	12646
924.956	12688
925.064	12578
925.172	12509
925.279	12559
925.387	12589
925.494	12642
925.602	12677
925.709	12551
925.816	12464
925.924	12441
926.031	12627
926.138	12509
926.245	12574
926.352	12353
926.459	12563
926.566	12566
926.673	12403
926.779	12213
926.886	12369
926.993	12205
927.099	12178
927.206	12140
927.312	12053
927.419	12159
927.525	12106
927.631	12155
927.737	11973
927.843	12007
927.95	11931
928.056	11950
928.162	11999
928.267	12114
928.373	12639
928.479	12087
928.585	11802
928.69	11988
928.796	11931
928.901	11935
929.007	11691
929.112	11786
929.218	11809
929.323	11646
929.428	11703
929.533	11771
929.638	11592
929.743	11752
929.848	11691
929.953	11680
930.058	11611
930.163	11429
930.267	11383
930.372	11452
930.477	11395
930.581	11611
930.685	11421
930.79	11353
930.894	11258
930.998	11261
931.103	11356
931.207	11071
931.311	11090
931.415	10908
931.519	10706
931.623	10710
