Data from test_V78500241_757.txt Node
Date: Fri Mar 25 15:15:07 CST 2022
User: usil
Spectrometer: V785-0024
Trigger mode: 0
Integration Time (sec): 4.000000E-1
Scans to average: 1
Nonlinearity correction enabled: false
Boxcar width: 0
Storing dark spectrum: false
XAxis mode: Wavelengths
Number of Pixels in Spectrum: 1024
>>>>>Begin Spectral Data<<<<<
801.071	27793
801.214	27892
801.356	27580
801.499	27405
801.641	27367
801.783	27420
801.926	27355
802.068	27310
802.211	27165
802.353	27260
802.496	27085
802.638	27062
802.78	26864
802.923	27074
803.065	27077
803.208	26967
803.35	27051
803.492	27192
803.635	27085
803.777	27020
803.919	27100
804.061	27549
804.204	27188
804.346	27074
804.488	27131
804.63	27112
804.773	27226
804.915	27195
805.057	27264
805.199	27218
805.341	27233
805.483	27321
805.626	27393
805.768	27100
805.91	27199
806.052	27401
806.194	27268
806.336	27496
806.478	27306
806.62	27332
806.762	27427
806.904	27576
807.046	27835
807.188	27759
807.33	27812
807.472	27812
807.614	27671
807.756	27762
807.898	27641
808.04	27701
808.182	27568
808.324	27599
808.465	27755
808.607	27800
808.749	27991
808.891	28032
809.033	28029
809.174	27960
809.316	27895
809.458	28055
809.6	27922
809.741	28097
809.883	28116
810.025	28249
810.166	28401
810.308	28322
810.45	28166
810.591	28162
810.733	28112
810.875	27907
811.016	27857
811.158	27751
811.299	27979
811.441	28059
811.582	28166
811.724	28082
811.865	27953
812.007	27914
812.148	27812
812.29	28120
812.431	28196
812.573	28421
812.714	28512
812.855	28569
812.997	28584
813.138	28801
813.279	28580
813.421	28584
813.562	28428
813.703	28360
813.845	28287
813.986	27945
814.127	27686
814.268	27709
814.41	27732
814.551	27644
814.692	27774
814.833	27561
814.974	27561
815.115	27743
815.256	27351
815.397	27511
815.539	27561
815.68	27496
815.821	27329
815.962	27576
816.103	27496
816.244	27302
816.385	27272
816.526	27203
816.666	27123
816.807	26933
816.948	26940
817.089	26982
817.23	27013
817.371	26994
817.512	26986
817.653	26960
817.793	26956
817.934	26967
818.075	27077
818.216	26918
818.356	26994
818.497	26887
818.638	26769
818.778	26648
818.919	26727
819.06	26697
819.2	26902
819.341	27123
819.481	26967
819.622	27237
819.762	27355
819.903	27211
820.043	27055
820.184	27085
820.324	27032
820.465	27176
820.605	27085
820.746	26971
820.886	26899
821.026	27142
821.167	26963
821.307	27066
821.447	27032
821.588	26842
821.728	26651
821.868	26522
822.008	26511
822.149	26336
822.289	26473
822.429	26240
822.569	26088
822.709	26153
822.849	26008
822.99	25997
823.13	25966
823.27	25887
823.41	25830
823.55	25738
823.69	25753
823.83	25772
823.97	25704
824.11	25552
824.25	25540
824.389	25483
824.529	25575
824.669	25609
824.809	25814
824.949	25712
825.089	25685
825.228	25597
825.368	25381
825.508	25552
825.648	25487
825.787	25479
825.927	25666
826.067	25384
826.206	25460
826.346	25422
826.485	25620
826.625	25381
826.765	25514
826.904	25445
827.044	25346
827.183	25232
827.323	25217
827.462	25289
827.601	25141
827.741	25110
827.88	25304
828.02	25076
828.159	25141
828.298	25152
828.437	25259
828.577	25164
828.716	25228
828.855	25088
828.994	24970
829.134	24867
829.273	24951
829.412	24768
829.551	24798
829.69	24859
829.829	24973
829.968	24958
830.107	24928
830.246	24848
830.385	24844
830.524	24878
830.663	24814
830.802	24601
830.941	24525
831.08	24551
831.219	24547
831.357	24509
831.496	24779
831.635	24429
831.774	24407
831.913	24361
832.051	24327
832.19	24258
832.329	24243
832.467	24197
832.606	24140
832.744	24216
832.883	24129
833.022	24182
833.16	24235
833.299	24213
833.437	24289
833.576	24182
833.714	24114
833.852	24334
833.991	24125
834.129	24369
834.267	24342
834.406	24300
834.544	24277
834.682	24216
834.821	24136
834.959	24357
835.097	24144
835.235	24125
835.373	24117
835.511	24102
835.65	23999
835.788	23961
835.926	23817
836.064	23901
836.202	23874
836.34	23992
836.478	24064
836.615	23961
836.753	24041
836.891	24018
837.029	24060
837.167	23969
837.305	23958
837.443	23923
837.58	23809
837.718	24038
837.856	23824
837.993	23802
838.131	23847
838.269	23760
838.406	23695
838.544	23699
838.681	23528
838.819	23452
838.956	23421
839.094	23383
839.231	23429
839.369	23387
839.506	23771
839.643	23554
839.781	23345
839.918	23288
840.055	23288
840.193	23280
840.33	23246
840.467	23273
840.604	23315
840.742	23490
840.879	23117
841.016	23250
841.153	23170
841.29	23398
841.427	23277
841.564	23410
841.701	23235
841.838	23254
841.975	23208
842.112	23147
842.249	23037
842.385	22968
842.522	23269
842.659	23170
842.796	22968
842.933	23064
843.069	22786
843.206	22953
843.343	22987
843.479	23086
843.616	22915
843.752	22858
843.889	22869
844.025	22968
844.162	22710
844.298	22980
844.435	22854
844.571	22535
844.708	22923
844.844	23022
844.98	22866
845.117	22980
845.253	22752
845.389	22748
845.525	22713
845.661	22626
845.798	22519
845.934	22470
846.07	22459
846.206	22546
846.342	22588
846.478	22535
846.614	22394
846.75	22238
846.886	22207
847.022	22337
847.158	22234
847.294	22280
847.429	22223
847.565	22246
847.701	22573
847.837	21975
847.972	22078
848.108	22051
848.244	22101
848.379	21903
848.515	21728
848.65	21835
848.786	21934
848.921	21861
849.057	22029
849.192	22055
849.328	21876
849.463	21937
849.598	21911
849.734	21652
849.869	21778
850.004	21644
850.14	21675
850.275	21759
850.41	21637
850.545	21595
850.68	21614
850.815	21515
850.95	21622
851.085	21774
851.22	21686
851.355	21587
851.49	21641
851.625	21481
851.76	21519
851.895	21561
852.03	21526
852.165	21561
852.299	21538
852.434	21793
852.569	21538
852.703	21599
852.838	21675
852.973	21797
853.107	21713
853.242	21580
853.376	21515
853.511	21256
853.645	21241
853.78	21530
853.914	21492
854.048	21420
854.183	21386
854.317	21435
854.451	21580
854.585	21447
854.72	21477
854.854	21523
854.988	21416
855.122	21447
855.256	21374
855.39	21435
855.524	21401
855.658	21485
855.792	21359
855.926	21458
856.06	21416
856.194	21507
856.327	21473
856.461	21321
856.595	21431
856.729	21405
856.862	21542
856.996	21428
857.13	21557
857.263	21603
857.397	21557
857.53	21530
857.664	21469
857.797	21583
857.931	21416
858.064	21477
858.197	21641
858.331	21431
858.464	21367
858.597	21291
858.731	21428
858.864	21439
858.997	21500
859.13	21374
859.263	21393
859.396	21564
859.529	21526
859.662	21397
859.795	21317
859.928	21416
860.061	21580
860.194	21644
860.327	21443
860.46	21397
860.592	21492
860.725	21553
860.858	21561
860.99	21435
861.123	21485
861.256	21389
861.388	21443
861.521	22048
861.653	21230
861.786	21180
861.918	21283
862.05	21256
862.183	21291
862.315	21287
862.447	21412
862.58	21329
862.712	21119
862.844	21119
862.976	21222
863.108	21157
863.24	21450
863.372	21161
863.504	21138
863.636	21085
863.768	21150
863.9	21081
864.032	21085
864.164	21218
864.296	21169
864.428	21291
864.559	21173
864.691	21150
864.823	21036
864.954	21085
865.086	21203
865.217	21089
865.349	20891
865.48	20849
865.612	21066
865.743	21119
865.875	21108
866.006	20971
866.137	20952
866.269	20982
866.4	21039
866.531	20914
866.662	20971
866.793	21005
866.924	20906
867.055	21058
867.186	21077
867.317	21005
867.448	20853
867.579	20979
867.71	20960
867.841	20925
867.972	21070
868.103	20838
868.233	20967
868.364	20914
868.495	20979
868.625	21264
868.756	21332
868.886	21119
869.017	21268
869.147	21310
869.278	21291
869.408	21306
869.539	21233
869.669	21245
869.799	21249
869.929	21359
870.06	21294
870.19	21564
870.32	21576
870.45	21622
870.58	21576
870.71	21701
870.84	21709
870.97	21549
871.1	21660
871.23	21751
871.36	21789
871.489	21690
871.619	21641
871.749	21812
871.879	21842
872.008	21835
872.138	21827
872.267	21739
872.397	21648
872.526	21667
872.656	21808
872.785	21675
872.915	21762
873.044	21945
873.173	21816
873.303	21789
873.432	21972
873.561	21869
873.69	21838
873.819	21797
873.948	21941
874.077	21869
874.206	21804
874.335	21766
874.464	21915
874.593	22078
874.722	22025
874.851	22059
874.979	22032
875.108	22116
875.237	22078
875.365	21861
875.494	22013
875.623	22150
875.751	21994
875.88	22078
876.008	22299
876.136	22196
876.265	22459
876.393	22504
876.521	22459
876.65	22542
876.778	22550
876.906	22276
877.034	22440
877.162	22303
877.29	22337
877.418	22409
877.546	22409
877.674	22428
877.802	22257
877.93	22356
878.058	22447
878.185	22246
878.313	22394
878.441	22360
878.568	22246
878.696	22238
878.824	22375
878.951	22428
879.079	22588
879.206	22691
879.333	22459
879.461	22352
879.588	22462
879.715	22698
879.842	22702
879.97	22519
880.097	22200
880.224	22299
880.351	22162
880.478	22158
880.605	22196
880.732	22150
880.859	22436
880.986	22188
881.112	22314
881.239	22048
881.366	21945
881.493	21964
881.619	21633
881.746	21895
881.872	21717
881.999	21743
882.125	21720
882.252	21895
882.378	21766
882.505	21823
882.631	21686
882.757	21591
882.883	21530
883.01	21458
883.136	21367
883.262	21245
883.388	21386
883.514	21447
883.64	21538
883.766	21287
883.892	21317
884.018	21233
884.143	21443
884.269	21538
884.395	21237
884.52	21093
884.646	21104
884.772	21009
884.897	21020
885.023	20975
885.148	21264
885.274	21184
885.399	21131
885.524	21184
885.65	21131
885.775	21173
885.9	21096
886.025	21241
886.15	21157
886.275	21108
886.4	20918
886.525	21161
886.65	20948
886.775	20948
886.9	21272
887.025	21355
887.149	21142
887.274	20971
887.399	20963
887.523	20727
887.648	20902
887.773	20769
887.897	20899
888.021	20872
888.146	20906
888.27	21062
888.395	20895
888.519	20963
888.643	20895
888.767	21039
888.891	20899
889.015	20625
889.139	20640
889.263	20670
889.387	20826
889.511	20842
889.635	20792
889.759	20686
889.883	20617
890.006	20689
890.13	20861
890.254	20590
890.377	20678
890.501	20533
890.624	20366
890.748	20530
890.871	20377
890.995	20214
891.118	20233
891.241	20400
891.364	20172
891.488	20355
891.611	20229
891.734	20244
891.857	20290
891.98	20305
892.103	20461
892.226	20328
892.349	20180
892.471	20050
892.594	20195
892.717	20183
892.839	20218
892.962	20244
893.085	20332
893.207	20248
893.33	20054
893.452	20054
893.575	20062
893.697	20001
893.819	20309
893.941	20358
894.064	20275
894.186	20107
894.308	20115
894.43	20259
894.552	20374
894.674	20290
894.796	20081
894.918	20134
895.04	20240
895.161	20240
895.283	20267
895.405	20062
895.526	20100
895.648	20145
895.769	20221
895.891	20237
896.012	20172
896.134	20233
896.255	20259
896.376	20073
896.498	20259
896.619	20256
896.74	20130
896.861	20145
896.982	20511
897.103	20514
897.224	20476
897.345	20286
897.466	20180
897.587	20442
897.708	20522
897.828	20385
897.949	20301
898.07	20195
898.19	20309
898.311	20484
898.431	20309
898.552	20427
898.672	20389
898.792	20358
898.913	20301
899.033	20412
899.153	20267
899.273	20092
899.393	20149
899.513	20229
899.633	20199
899.753	20134
899.873	19997
899.993	20092
900.113	20168
900.232	20115
900.352	19986
900.472	19967
900.591	19883
900.711	19887
900.83	19879
900.95	19906
901.069	19955
901.189	19928
901.308	19575
901.427	19460
901.546	19548
901.665	19510
901.784	19609
901.904	19259
902.023	19217
902.141	19110
902.26	19107
902.379	19091
902.498	18947
902.617	18916
902.735	19099
902.854	18787
902.973	18920
903.091	18745
903.21	18669
903.328	18608
903.446	18585
903.565	18536
903.683	18490
903.801	18353
903.919	18391
904.038	18384
904.156	18289
904.274	18369
904.392	18281
904.51	18117
904.627	18232
904.745	18319
904.863	18273
904.981	18053
905.098	17817
905.216	17920
905.334	17980
905.451	18072
905.569	17851
905.686	17908
905.803	17965
905.921	17676
906.038	17832
906.155	17589
906.272	17611
906.389	17649
906.506	17398
906.623	17505
906.74	17402
906.857	17356
906.974	17360
907.091	17368
907.208	17615
907.324	17501
907.441	17379
907.557	17258
907.674	17280
907.79	17105
907.907	17098
908.023	17242
908.139	17121
908.256	17159
908.372	17132
908.488	17029
908.604	16877
908.72	16858
908.836	16801
908.952	16858
909.068	16831
909.184	17006
909.3	16877
909.415	16835
909.531	16965
909.647	16645
909.762	16565
909.878	16649
909.993	16634
910.108	16626
910.224	16565
910.339	16618
910.454	16363
910.57	16379
910.685	16375
910.8	16656
910.915	16588
911.03	16379
911.145	16249
911.259	16219
911.374	16158
911.489	16105
911.604	16093
911.718	15865
911.833	15899
911.947	15907
912.062	15762
912.176	15854
912.291	15797
912.405	15819
912.519	16036
912.633	16086
912.748	15911
912.862	15812
912.976	15759
913.09	15599
913.204	15667
913.318	15751
913.431	15823
913.545	15838
913.659	15838
913.772	15663
913.886	15587
914	15538
914.113	15542
914.226	15584
914.34	15526
914.453	15435
914.566	15614
914.68	15424
914.793	15439
914.906	15157
915.019	15176
915.132	15138
915.245	15127
915.358	15188
915.47	15154
915.583	15207
915.696	15138
915.809	15279
915.921	15195
916.034	15146
916.146	15112
916.259	15039
916.371	15237
916.483	15074
916.595	14960
916.708	14956
916.82	14998
916.932	15009
917.044	14963
917.156	14933
917.268	14750
917.38	14689
917.491	14788
917.603	14781
917.715	14880
917.826	14864
917.938	14781
918.049	14533
918.161	14682
918.272	14902
918.384	14849
918.495	14731
918.606	14678
918.717	14454
918.828	14503
918.939	14568
919.05	14533
919.161	14556
919.272	14415
919.383	14339
919.494	14632
919.604	14739
919.715	14518
919.826	14488
919.936	14484
920.047	14564
920.157	14545
920.267	14610
920.378	14434
920.488	14507
920.598	14670
920.708	14701
920.818	14644
920.928	14648
921.038	14762
921.148	14644
921.258	14434
921.368	14381
921.477	14225
921.587	14168
921.697	14069
921.806	14305
921.916	13989
922.025	13993
922.134	13913
922.244	13894
922.353	13871
922.462	13753
922.571	13788
922.68	13597
922.789	13514
922.898	13628
923.007	13480
923.116	13518
923.224	13597
923.333	13506
923.442	13480
923.55	13282
923.659	13369
923.767	13327
923.876	13358
923.984	13411
924.092	13285
924.201	13369
924.309	13282
924.417	13289
924.525	13221
924.633	13160
924.741	13909
924.849	13057
924.956	13183
925.064	12924
925.172	12901
925.279	12958
925.387	12951
925.494	13034
925.602	13053
925.709	13046
925.816	12856
925.924	12856
926.031	12996
926.138	12867
926.245	13091
926.352	12852
926.459	12913
926.566	12954
926.673	12871
926.779	12688
926.886	12665
926.993	12498
927.099	12521
927.206	12513
927.312	12479
927.419	12498
927.525	12570
927.631	12540
927.737	12448
927.843	12338
927.95	12289
928.056	12311
928.162	12361
928.267	12380
928.373	12993
928.479	12372
928.585	12159
928.69	12372
928.796	12338
928.901	12186
929.007	12083
929.112	12247
929.218	12209
929.323	12095
929.428	12091
929.533	12197
929.638	12022
929.743	12057
929.848	12034
929.953	12022
930.058	11832
930.163	11786
930.267	11790
930.372	11897
930.477	11718
930.581	11961
930.685	11821
930.79	11661
930.894	11756
930.998	11691
931.103	11668
931.207	11429
931.311	11303
931.415	11277
931.519	11029
931.623	11037
