Data from test_V78500241_1156.txt Node
Date: Fri Mar 25 15:17:54 CST 2022
User: usil
Spectrometer: V785-0024
Trigger mode: 0
Integration Time (sec): 4.000000E-1
Scans to average: 1
Nonlinearity correction enabled: false
Boxcar width: 0
Storing dark spectrum: false
XAxis mode: Wavelengths
Number of Pixels in Spectrum: 1024
>>>>>Begin Spectral Data<<<<<
801.071	28314
801.214	28234
801.356	28105
801.499	27983
801.641	27778
801.783	27797
801.926	27930
802.068	27819
802.211	27850
802.353	27800
802.496	27701
802.638	27576
802.78	27625
802.923	27488
803.065	27515
803.208	27488
803.35	27580
803.492	27724
803.635	27762
803.777	27603
803.919	27926
804.061	28177
804.204	27880
804.346	27682
804.488	27633
804.63	27701
804.773	27667
804.915	27899
805.057	27956
805.199	27663
805.341	27816
805.483	28063
805.626	27857
805.768	27759
805.91	27930
806.052	27979
806.194	27911
806.336	28021
806.478	28082
806.62	28017
806.762	28048
806.904	28352
807.046	28523
807.188	28367
807.33	28428
807.472	28375
807.614	28322
807.756	28451
807.898	28230
808.04	28116
808.182	28215
808.324	28261
808.465	28287
808.607	28447
808.749	28497
808.891	28733
809.033	28721
809.174	28710
809.316	28523
809.458	28538
809.6	28637
809.741	28759
809.883	28790
810.025	28968
810.166	28691
810.308	28828
810.45	28968
810.591	28835
810.733	28683
810.875	28523
811.016	28618
811.158	28588
811.299	28653
811.441	28702
811.582	28755
811.724	28634
811.865	28523
812.007	28573
812.148	28641
812.29	28622
812.431	28755
812.573	29083
812.714	28991
812.855	29132
812.997	29334
813.138	29364
813.279	29364
813.421	29280
813.562	29064
813.703	28919
813.845	28919
813.986	28702
814.127	28542
814.268	28371
814.41	28284
814.551	28333
814.692	28447
814.833	28329
814.974	28230
815.115	28325
815.256	28333
815.397	28303
815.539	28169
815.68	28204
815.821	28063
815.962	28268
816.103	28048
816.244	27968
816.385	28032
816.526	27861
816.666	27781
816.807	27747
816.948	27785
817.089	27530
817.23	27587
817.371	27637
817.512	27496
817.653	27542
817.793	27694
817.934	27622
818.075	27747
818.216	27778
818.356	27644
818.497	27439
818.638	27393
818.778	27359
818.919	27386
819.06	27469
819.2	27469
819.341	27679
819.481	27709
819.622	27739
819.762	27975
819.903	27842
820.043	27873
820.184	27667
820.324	27869
820.465	27865
820.605	27652
820.746	27667
820.886	27564
821.026	27831
821.167	27842
821.307	27747
821.447	27610
821.588	27526
821.728	27447
821.868	27268
822.008	27173
822.149	27077
822.289	27127
822.429	26952
822.569	26727
822.709	26838
822.849	26659
822.99	26682
823.13	26587
823.27	26602
823.41	26427
823.55	26393
823.69	26434
823.83	26438
823.97	26370
824.11	26275
824.25	26233
824.389	26282
824.529	26404
824.669	26278
824.809	26461
824.949	26450
825.089	26362
825.228	26320
825.368	26134
825.508	26187
825.648	26176
825.787	26278
825.927	26275
826.067	26134
826.206	26202
826.346	26252
826.485	26199
826.625	26206
826.765	26259
826.904	26225
827.044	25879
827.183	25890
827.323	25902
827.462	25940
827.601	25940
827.741	25898
827.88	25887
828.02	25917
828.159	25864
828.298	26092
828.437	26062
828.577	25871
828.716	25982
828.855	25757
828.994	25620
829.134	25620
829.273	25632
829.412	25677
829.551	25578
829.69	25677
829.829	25525
829.968	25651
830.107	25590
830.246	25609
830.385	25559
830.524	25533
830.663	25464
830.802	25308
830.941	25225
831.08	25194
831.219	25198
831.357	25285
831.496	25468
831.635	25129
831.774	25069
831.913	25042
832.051	25012
832.19	25031
832.329	24939
832.467	24962
832.606	24802
832.744	24867
832.883	24947
833.022	24802
833.16	24878
833.299	25080
833.437	25034
833.576	24973
833.714	24985
833.852	25057
833.991	25027
834.129	24996
834.267	25175
834.406	24935
834.544	25057
834.682	25027
834.821	25129
834.959	25103
835.097	24970
835.235	25099
835.373	24992
835.511	25061
835.65	24890
835.788	24753
835.926	24768
836.064	24669
836.202	24616
836.34	24798
836.478	25012
836.615	24856
836.753	24878
836.891	24814
837.029	24817
837.167	24825
837.305	24707
837.443	24757
837.58	24601
837.718	24745
837.856	24726
837.993	24661
838.131	24551
838.269	24665
838.406	24627
838.544	24369
838.681	24273
838.819	24311
838.956	24235
839.094	24129
839.231	24152
839.369	24281
839.506	24433
839.643	24376
839.781	24155
839.918	24186
840.055	24133
840.193	24106
840.33	24053
840.467	24038
840.604	24030
840.742	24277
840.879	23992
841.016	23973
841.153	23878
841.29	24182
841.427	24076
841.564	23973
841.701	23912
841.838	24045
841.975	23923
842.112	24114
842.249	23836
842.385	23653
842.522	24068
842.659	23855
842.796	23729
842.933	23832
843.069	23729
843.206	23764
843.343	23794
843.479	23790
843.616	23855
843.752	23604
843.889	23478
844.025	23855
844.162	23581
844.298	23676
844.435	23562
844.571	23539
844.708	23611
844.844	23729
844.98	23630
845.117	23627
845.253	23535
845.389	23410
845.525	23486
845.661	23349
845.798	23330
845.934	23372
846.07	23311
846.206	23235
846.342	23372
846.478	23277
846.614	23086
846.75	22831
846.886	22980
847.022	22976
847.158	23052
847.294	22995
847.429	22976
847.565	22968
847.701	23261
847.837	22687
847.972	22725
848.108	22889
848.244	22835
848.379	22744
848.515	22561
848.65	22561
848.786	22523
848.921	22675
849.057	22717
849.192	22622
849.328	22580
849.463	22656
849.598	22512
849.734	22398
849.869	22519
850.004	22390
850.14	22303
850.275	22261
850.41	22253
850.545	22295
850.68	22386
850.815	22424
850.95	22367
851.085	22546
851.22	22512
851.355	22299
851.49	22443
851.625	22291
851.76	22299
851.895	22230
852.03	22234
852.165	22344
852.299	22382
852.434	22405
852.569	22512
852.703	22234
852.838	22360
852.973	22546
853.107	22565
853.242	22238
853.376	22261
853.511	22131
853.645	22097
853.78	22272
853.914	22139
854.048	22162
854.183	22128
854.317	22211
854.451	22322
854.585	22226
854.72	22188
854.854	22280
854.988	22147
855.122	22169
855.256	22059
855.39	22192
855.524	22261
855.658	22112
855.792	22204
855.926	22268
856.06	22295
856.194	22166
856.327	22272
856.461	22116
856.595	22150
856.729	22185
856.862	22246
856.996	22207
857.13	22215
857.263	22337
857.397	22265
857.53	22211
857.664	22207
857.797	22238
857.931	22299
858.064	22223
858.197	22303
858.331	22215
858.464	22025
858.597	22074
858.731	22055
858.864	22124
858.997	22067
859.13	22188
859.263	22215
859.396	22261
859.529	22215
859.662	22101
859.795	21983
859.928	22242
860.061	22360
860.194	22409
860.327	22291
860.46	22120
860.592	22329
860.725	22329
860.858	22211
860.99	22246
861.123	22291
861.256	22223
861.388	22230
861.521	22961
861.653	22070
861.786	21895
861.918	21835
862.05	21945
862.183	21983
862.315	22188
862.447	22150
862.58	22120
862.712	21789
862.844	21937
862.976	21979
863.108	22010
863.24	22230
863.372	21915
863.504	21850
863.636	21907
863.768	21915
863.9	21907
864.032	21827
864.164	21789
864.296	21869
864.428	21983
864.559	21941
864.691	21991
864.823	21994
864.954	21915
865.086	21922
865.217	21831
865.349	21698
865.48	21804
865.612	21762
865.743	21941
865.875	21861
866.006	21804
866.137	21705
866.269	21762
866.4	21846
866.531	21652
866.662	21728
866.793	21564
866.924	21614
867.055	21812
867.186	21732
867.317	21648
867.448	21694
867.579	21671
867.71	21583
867.841	21591
867.972	21793
868.103	21667
868.233	21603
868.364	21633
868.495	21838
868.625	22025
868.756	21941
868.886	21789
869.017	21922
869.147	21979
869.278	22010
869.408	22006
869.539	22021
869.669	22025
869.799	22029
869.929	22074
870.06	22006
870.19	22363
870.32	22200
870.45	22310
870.58	22470
870.71	22481
870.84	22462
870.97	22230
871.1	22428
871.23	22489
871.36	22451
871.489	22382
871.619	22535
871.749	22508
871.879	22550
872.008	22622
872.138	22455
872.267	22519
872.397	22417
872.526	22299
872.656	22417
872.785	22516
872.915	22569
873.044	22599
873.173	22546
873.303	22645
873.432	22565
873.561	22561
873.69	22569
873.819	22527
873.948	22679
874.077	22481
874.206	22428
874.335	22607
874.464	22641
874.593	22767
874.722	22774
874.851	22649
874.979	22774
875.108	22736
875.237	22694
875.365	22645
875.494	22736
875.623	22812
875.751	22752
875.88	22790
876.008	22702
876.136	22946
876.265	23273
876.393	23254
876.521	23322
876.65	23288
876.778	23086
876.906	23105
877.034	23079
877.162	23193
877.29	23022
877.418	23041
877.546	23128
877.674	22999
877.802	23029
877.93	23124
878.058	23003
878.185	22984
878.313	23044
878.441	23128
878.568	23048
878.696	22965
878.824	23018
878.951	23086
879.079	23318
879.206	23463
879.333	23322
879.461	23048
879.588	23227
879.715	23341
879.842	23364
879.97	23189
880.097	22995
880.224	22965
880.351	22892
880.478	22919
880.605	22938
880.732	22919
880.859	23014
880.986	23037
881.112	23075
881.239	22854
881.366	22664
881.493	22538
881.619	22527
881.746	22504
881.872	22584
881.999	22474
882.125	22432
882.252	22580
882.378	22424
882.505	22634
882.631	22238
882.757	22348
882.883	22223
883.01	22131
883.136	22116
883.262	22040
883.388	22105
883.514	22329
883.64	22211
883.766	22109
883.892	21991
884.018	22013
884.143	22188
884.269	22226
884.395	21960
884.52	21892
884.646	21838
884.772	21797
884.897	21701
885.023	21876
885.148	21953
885.274	21873
885.399	21964
885.524	21812
885.65	21808
885.775	21793
885.9	21747
886.025	22013
886.15	21861
886.275	21717
886.4	21625
886.525	21816
886.65	21629
886.775	21781
886.9	21873
887.025	21865
887.149	21937
887.274	21625
887.399	21488
887.523	21557
887.648	21534
887.773	21355
887.897	21591
888.021	21587
888.146	21500
888.27	21622
888.395	21625
888.519	21633
888.643	21564
888.767	21538
888.891	21515
889.015	21264
889.139	21355
889.263	21466
889.387	21511
889.511	21591
889.635	21488
889.759	21302
889.883	21370
890.006	21260
890.13	21351
890.254	21211
890.377	21321
890.501	21230
890.624	21085
890.748	21089
890.871	21074
890.995	20960
891.118	20864
891.241	20998
891.364	20948
891.488	20971
891.611	20921
891.734	20948
891.857	20979
891.98	20902
892.103	20948
892.226	20952
892.349	20765
892.471	20587
892.594	20902
892.717	20857
892.839	20785
892.962	20807
893.085	20853
893.207	20659
893.33	20705
893.452	20625
893.575	20899
893.697	20625
893.819	20971
893.941	21013
894.064	20960
894.186	20754
894.308	20746
894.43	20883
894.552	20937
894.674	20727
894.796	20750
894.918	20819
895.04	20754
895.161	20697
895.283	20796
895.405	20716
895.526	20765
895.648	20686
895.769	20883
895.891	20815
896.012	20804
896.134	20842
896.255	20807
896.376	20731
896.498	20872
896.619	20891
896.74	20788
896.861	20773
896.982	21043
897.103	21131
897.224	21047
897.345	20994
897.466	21112
897.587	20910
897.708	21123
897.828	21032
897.949	20788
898.07	20804
898.19	20956
898.311	21085
898.431	20868
898.552	20941
898.672	21009
898.792	20990
898.913	21032
899.033	20765
899.153	20739
899.273	20629
899.393	20667
899.513	20689
899.633	20533
899.753	20804
899.873	20720
899.993	20781
900.113	20682
900.232	20629
900.352	20526
900.472	20583
900.591	20461
900.711	20450
900.83	20427
900.95	20545
901.069	20689
901.189	20385
901.308	20248
901.427	19989
901.546	20073
901.665	20027
901.784	19947
901.904	19902
902.023	19814
902.141	19734
902.26	19582
902.379	19670
902.498	19567
902.617	19491
902.735	19567
902.854	19487
902.973	19476
903.091	19304
903.21	19247
903.328	19240
903.446	19187
903.565	19031
903.683	19152
903.801	18954
903.919	19031
904.038	19031
904.156	18814
904.274	18916
904.392	18806
904.51	18776
904.627	18795
904.745	18825
904.863	18901
904.981	18627
905.098	18589
905.216	18593
905.334	18395
905.451	18471
905.569	18437
905.686	18509
905.803	18426
905.921	18232
906.038	18338
906.155	18201
906.272	18102
906.389	18125
906.506	18034
906.623	18072
906.74	17996
906.857	17840
906.974	17961
907.091	17969
907.208	18038
907.324	18022
907.441	17977
907.557	17809
907.674	17729
907.79	17623
907.907	17714
908.023	17741
908.139	17764
908.256	17646
908.372	17718
908.488	17539
908.604	17429
908.72	17356
908.836	17372
908.952	17315
909.068	17440
909.184	17474
909.3	17444
909.415	17471
909.531	17414
909.647	17204
909.762	17136
909.878	17174
909.993	17124
910.108	17067
910.224	17102
910.339	17132
910.454	17006
910.57	16961
910.685	16862
910.8	17071
910.915	17075
911.03	16946
911.145	16702
911.259	16847
911.374	16805
911.489	16679
911.604	16630
911.718	16535
911.833	16558
911.947	16314
912.062	16333
912.176	16413
912.291	16443
912.405	16470
912.519	16519
912.633	16641
912.748	16478
912.862	16356
912.976	16257
913.09	16112
913.204	16173
913.318	16166
913.431	16390
913.545	16337
913.659	16322
913.772	16287
913.886	16063
914	16101
914.113	16154
914.226	16124
914.34	16101
914.453	15930
914.566	16082
914.68	15991
914.793	15880
914.906	15637
915.019	15606
915.132	15549
915.245	15728
915.358	15572
915.47	15667
915.583	15667
915.696	15644
915.809	15694
915.921	15709
916.034	15603
916.146	15652
916.259	15496
916.371	15675
916.483	15633
916.595	15488
916.708	15481
916.82	15515
916.932	15447
917.044	15424
917.156	15348
917.268	15340
917.38	15310
917.491	15230
917.603	15329
917.715	15291
917.826	15272
917.938	15173
918.049	15089
918.161	15302
918.272	15283
918.384	15230
918.495	15207
918.606	15066
918.717	14994
918.828	15036
918.939	15097
919.05	14861
919.161	15009
919.272	14845
919.383	14830
919.494	15017
919.604	15184
919.715	15001
919.826	14762
919.936	14990
920.047	15013
920.157	14933
920.267	15123
920.378	15047
920.488	14895
920.598	15142
920.708	15218
920.818	15161
920.928	15131
921.038	15226
921.148	15180
921.258	14956
921.368	14785
921.477	14659
921.587	14708
921.697	14621
921.806	14670
921.916	14590
922.025	14336
922.134	14336
922.244	14248
922.353	14408
922.462	14225
922.571	14161
922.68	14039
922.789	14031
922.898	14062
923.007	13890
923.116	13928
923.224	13947
923.333	13864
923.442	13811
923.55	13818
923.659	13780
923.767	13765
923.876	13719
923.984	13826
924.092	13662
924.201	13670
924.309	13784
924.417	13601
924.525	13594
924.633	13658
924.741	14549
924.849	13419
924.956	13464
925.064	13369
925.172	13403
925.279	13320
925.387	13384
925.494	13297
925.602	13460
925.709	13434
925.816	13346
925.924	13331
926.031	13304
926.138	13259
926.245	13316
926.352	13171
926.459	13411
926.566	13373
926.673	13122
926.779	13000
926.886	13057
926.993	13031
927.099	12951
927.206	12878
927.312	12810
927.419	12840
927.525	12738
927.631	12859
927.737	12837
927.843	12707
927.95	12662
928.056	12749
928.162	12791
928.267	12677
928.373	13324
928.479	12802
928.585	12612
928.69	12650
928.796	12650
928.901	12612
929.007	12437
929.112	12578
929.218	12593
929.323	12486
929.428	12502
929.533	12593
929.638	12342
929.743	12361
929.848	12372
929.953	12380
930.058	12308
930.163	12045
930.267	12117
930.372	12239
930.477	12087
930.581	12224
930.685	12133
930.79	11961
930.894	11999
930.998	11965
931.103	12057
931.207	11756
931.311	11688
931.415	11600
931.519	11463
931.623	11448
