Data from test_V78500241_2330.txt Node
Date: Fri Mar 25 15:26:04 CST 2022
User: usil
Spectrometer: V785-0024
Trigger mode: 0
Integration Time (sec): 4.000000E-1
Scans to average: 1
Nonlinearity correction enabled: false
Boxcar width: 0
Storing dark spectrum: false
XAxis mode: Wavelengths
Number of Pixels in Spectrum: 1024
>>>>>Begin Spectral Data<<<<<
801.071	27622
801.214	27557
801.356	27237
801.499	27157
801.641	26956
801.783	26880
801.926	27108
802.068	26921
802.211	26853
802.353	26960
802.496	26632
802.638	26617
802.78	26625
802.923	26541
803.065	26602
803.208	26530
803.35	26609
803.492	26838
803.635	26864
803.777	26773
803.919	27043
804.061	27085
804.204	26906
804.346	26705
804.488	26857
804.63	26769
804.773	26815
804.915	26876
805.057	26842
805.199	26887
805.341	26826
805.483	27028
805.626	26994
805.768	26872
805.91	26918
806.052	26891
806.194	26902
806.336	27100
806.478	26933
806.62	26914
806.762	27058
806.904	27169
807.046	27382
807.188	27287
807.33	27397
807.472	27427
807.614	27332
807.756	27226
807.898	27188
808.04	27192
808.182	27138
808.324	27245
808.465	27142
808.607	27519
808.749	27557
808.891	27644
809.033	27698
809.174	27561
809.316	27515
809.458	27462
809.6	27599
809.741	27675
809.883	27595
810.025	27869
810.166	27895
810.308	27759
810.45	27679
810.591	27648
810.733	27637
810.875	27454
811.016	27279
811.158	27325
811.299	27530
811.441	27523
811.582	27694
811.724	27458
811.865	27405
812.007	27496
812.148	27355
812.29	27412
812.431	27545
812.573	27747
812.714	27930
812.855	27983
812.997	28124
813.138	28268
813.279	28006
813.421	27991
813.562	28074
813.703	27876
813.845	27842
813.986	27355
814.127	27321
814.268	27127
814.41	27180
814.551	27222
814.692	27249
814.833	27112
814.974	27108
815.115	27188
815.256	26849
815.397	27226
815.539	27214
815.68	26982
815.821	26864
815.962	26944
816.103	26899
816.244	26724
816.385	26781
816.526	26701
816.666	26583
816.807	26412
816.948	26640
817.089	26434
817.23	26473
817.371	26240
817.512	26537
817.653	26480
817.793	26370
817.934	26438
818.075	26438
818.216	26400
818.356	26377
818.497	26332
818.638	26248
818.778	26294
818.919	26153
819.06	26267
819.2	26278
819.341	26503
819.481	26358
819.622	26613
819.762	26834
819.903	26724
820.043	26644
820.184	26518
820.324	26457
820.465	26571
820.605	26457
820.746	26412
820.886	26438
821.026	26408
821.167	26537
821.307	26598
821.447	26533
821.588	26396
821.728	26096
821.868	26077
822.008	25830
822.149	25799
822.289	25883
822.429	25620
822.569	25540
822.709	25597
822.849	25464
822.99	25457
823.13	25400
823.27	25464
823.41	25407
823.55	25088
823.69	25316
823.83	25308
823.97	25217
824.11	25053
824.25	25103
824.389	25126
824.529	25034
824.669	25118
824.809	25240
824.949	25156
825.089	25190
825.228	25084
825.368	24897
825.508	24837
825.648	24981
825.787	24913
825.927	24939
826.067	24867
826.206	24913
826.346	25023
826.485	25004
826.625	24829
826.765	25137
826.904	24985
827.044	24677
827.183	24635
827.323	24684
827.462	24684
827.601	24646
827.741	24669
827.88	24616
828.02	24395
828.159	24563
828.298	24631
828.437	24665
828.577	24566
828.716	24570
828.855	24536
828.994	24361
829.134	24350
829.273	24399
829.412	24258
829.551	24292
829.69	24304
829.829	24422
829.968	24490
830.107	24528
830.246	24266
830.385	24270
830.524	24174
830.663	24045
830.802	24003
830.941	23885
831.08	23866
831.219	24007
831.357	23958
831.496	24159
831.635	23977
831.774	23866
831.913	23901
832.051	23722
832.19	23687
832.329	23585
832.467	23619
832.606	23467
832.744	23600
832.883	23547
833.022	23589
833.16	23608
833.299	23615
833.437	23570
833.576	23627
833.714	23649
833.852	23695
833.991	23630
834.129	23668
834.267	23779
834.406	23695
834.544	23672
834.682	23707
834.821	23573
834.959	23733
835.097	23554
835.235	23703
835.373	23535
835.511	23627
835.65	23535
835.788	23566
835.926	23474
836.064	23261
836.202	23406
836.34	23573
836.478	23531
836.615	23402
836.753	23440
836.891	23608
837.029	23558
837.167	23414
837.305	23395
837.443	23360
837.58	23345
837.718	23318
837.856	23341
837.993	23471
838.131	23349
838.269	23322
838.406	23250
838.544	23185
838.681	23121
838.819	22965
838.956	22767
839.094	22797
839.231	23018
839.369	22976
839.506	23318
839.643	22968
839.781	22778
839.918	22733
840.055	22801
840.193	22850
840.33	22645
840.467	22767
840.604	22801
840.742	23010
840.879	22554
841.016	22710
841.153	22554
841.29	22809
841.427	22809
841.564	22702
841.701	22843
841.838	22660
841.975	22599
842.112	22793
842.249	22531
842.385	22474
842.522	22702
842.659	22516
842.796	22440
842.933	22611
843.069	22424
843.206	22402
843.343	22634
843.479	22462
843.616	22603
843.752	22432
843.889	22299
844.025	22432
844.162	22158
844.298	22481
844.435	22386
844.571	22284
844.708	22356
844.844	22413
844.98	22333
845.117	22295
845.253	22268
845.389	22025
845.525	22150
845.661	22162
845.798	21998
845.934	22090
846.07	21930
846.206	22086
846.342	22109
846.478	22025
846.614	21808
846.75	21709
846.886	21770
847.022	21827
847.158	21819
847.294	21671
847.429	21819
847.565	21720
847.701	21876
847.837	21504
847.972	21526
848.108	21690
848.244	21595
848.379	21367
848.515	21393
848.65	21317
848.786	21321
848.921	21264
849.057	21447
849.192	21408
849.328	21420
849.463	21252
849.598	21268
849.734	21355
849.869	21146
850.004	21051
850.14	21169
850.275	21154
850.41	20979
850.545	21138
850.68	20960
850.815	21230
850.95	21237
851.085	21249
851.22	21169
851.355	21085
851.49	21024
851.625	21104
851.76	21135
851.895	21013
852.03	20887
852.165	21150
852.299	21058
852.434	21127
852.569	21104
852.703	21108
852.838	21283
852.973	21275
853.107	21161
853.242	21058
853.376	20861
853.511	20857
853.645	20864
853.78	21074
853.914	20952
854.048	20781
854.183	20975
854.317	20937
854.451	21096
854.585	20842
854.72	20960
854.854	21009
854.988	20960
855.122	21024
855.256	20743
855.39	20990
855.524	20975
855.658	20868
855.792	20899
855.926	20975
856.06	20944
856.194	20967
856.327	20979
856.461	20876
856.595	20899
856.729	20899
856.862	21066
856.996	20948
857.13	20838
857.263	21020
857.397	21100
857.53	20982
857.664	21047
857.797	21032
857.931	21020
858.064	20994
858.197	21020
858.331	20864
858.464	20933
858.597	20842
858.731	20883
858.864	20895
858.997	20815
859.13	20929
859.263	20994
859.396	21024
859.529	20921
859.662	20853
859.795	20823
859.928	20944
860.061	21058
860.194	21142
860.327	21036
860.46	20899
860.592	20998
860.725	21119
860.858	21013
860.99	20944
861.123	20845
861.256	20963
861.388	20906
861.521	21355
861.653	20678
861.786	20804
861.918	20807
862.05	20754
862.183	20838
862.315	20792
862.447	20998
862.58	20819
862.712	20644
862.844	20655
862.976	20693
863.108	20746
863.24	21275
863.372	20609
863.504	20659
863.636	20545
863.768	20587
863.9	20689
864.032	20556
864.164	20689
864.296	20621
864.428	20693
864.559	20602
864.691	20754
864.823	20720
864.954	20655
865.086	20560
865.217	20674
865.349	20568
865.48	20503
865.612	20511
865.743	20663
865.875	20522
866.006	20575
866.137	20598
866.269	20495
866.4	20511
866.531	20461
866.662	20431
866.793	20492
866.924	20503
867.055	20381
867.186	20434
867.317	20514
867.448	20336
867.579	20381
867.71	20400
867.841	20412
867.972	20492
868.103	20469
868.233	20431
868.364	20518
868.495	20598
868.625	20746
868.756	20899
868.886	20484
869.017	20625
869.147	20849
869.278	20800
869.408	20693
869.539	20739
869.669	20792
869.799	20750
869.929	20834
870.06	20754
870.19	21089
870.32	20921
870.45	21024
870.58	21119
870.71	21161
870.84	21214
870.97	21112
871.1	21070
871.23	21332
871.36	21211
871.489	21218
871.619	21252
871.749	21340
871.879	21389
872.008	21523
872.138	21313
872.267	21272
872.397	21142
872.526	21123
872.656	21180
872.785	21146
872.915	21214
873.044	21321
873.173	21306
873.303	21416
873.432	21237
873.561	21492
873.69	21336
873.819	21359
873.948	21523
874.077	21287
874.206	21222
874.335	21321
874.464	21401
874.593	21724
874.722	21477
874.851	21557
874.979	21641
875.108	21652
875.237	21504
875.365	21447
875.494	21610
875.623	21610
875.751	21538
875.88	21538
876.008	21755
876.136	21686
876.265	21899
876.393	22082
876.521	22002
876.65	22109
876.778	21994
876.906	21888
877.034	21873
877.162	21937
877.29	21827
877.418	21972
877.546	21873
877.674	21857
877.802	21838
877.93	21819
878.058	21774
878.185	21682
878.313	21789
878.441	21941
878.568	21698
878.696	21785
878.824	21876
878.951	21941
879.079	21941
879.206	22150
879.333	22002
879.461	21937
879.588	22059
879.715	22048
879.842	22051
879.97	21873
880.097	21629
880.224	21701
880.351	21690
880.478	21728
880.605	21720
880.732	21778
880.859	22048
880.986	21747
881.112	21857
881.239	21656
881.366	21450
881.493	21439
881.619	21378
881.746	21401
881.872	21275
881.999	21340
882.125	21123
882.252	21313
882.378	21310
882.505	21397
882.631	21176
882.757	21055
882.883	21085
883.01	21017
883.136	20994
883.262	20864
883.388	20807
883.514	20956
883.64	21070
883.766	20941
883.892	20807
884.018	20830
884.143	21036
884.269	21047
884.395	20788
884.52	20693
884.646	20716
884.772	20507
884.897	20625
885.023	20659
885.148	20705
885.274	20769
885.399	20815
885.524	20629
885.65	20800
885.775	20697
885.9	20621
886.025	20804
886.15	20758
886.275	20632
886.4	20598
886.525	20689
886.65	20632
886.775	20625
886.9	20769
887.025	20826
887.149	20552
887.274	20518
887.399	20461
887.523	20465
887.648	20328
887.773	20275
887.897	20488
888.021	20526
888.146	20298
888.27	20514
888.395	20583
888.519	20473
888.643	20377
888.767	20545
888.891	20313
889.015	20294
889.139	20301
889.263	20305
889.387	20366
889.511	20427
889.635	20404
889.759	20206
889.883	20210
890.006	20278
890.13	20355
890.254	20153
890.377	20122
890.501	20065
890.624	19944
890.748	20035
890.871	19936
890.995	19734
891.118	19727
891.241	19940
891.364	19776
891.488	19955
891.611	19795
891.734	19822
891.857	19928
891.98	19868
892.103	19864
892.226	19894
892.349	19822
892.471	19605
892.594	19670
892.717	19681
892.839	19632
892.962	19674
893.085	19761
893.207	19613
893.33	19693
893.452	19628
893.575	19822
893.697	19704
893.819	19959
893.941	19826
894.064	19837
894.186	19662
894.308	19685
894.43	19814
894.552	19845
894.674	19788
894.796	19655
894.918	19712
895.04	19681
895.161	19769
895.283	19757
895.405	19647
895.526	19723
895.648	19628
895.769	19651
895.891	19757
896.012	19685
896.134	19883
896.255	19666
896.376	19624
896.498	19712
896.619	19795
896.74	19696
896.861	19803
896.982	20016
897.103	20237
897.224	20001
897.345	19928
897.466	19818
897.587	20069
897.708	20065
897.828	19925
897.949	19879
898.07	19879
898.19	19978
898.311	19947
898.431	19864
898.552	20016
898.672	19970
898.792	20119
898.913	19909
899.033	19868
899.153	19738
899.273	19674
899.393	19696
899.513	19681
899.633	19681
899.753	19830
899.873	19693
899.993	19727
900.113	19647
900.232	19693
900.352	19655
900.472	19460
900.591	19510
900.711	19521
900.83	19457
900.95	19537
901.069	19605
901.189	19453
901.308	19251
901.427	19038
901.546	19084
901.665	19107
901.784	19061
901.904	19046
902.023	18913
902.141	18707
902.26	18570
902.379	18711
902.498	18665
902.617	18608
902.735	18589
902.854	18620
902.973	18517
903.091	18384
903.21	18281
903.328	18224
903.446	18254
903.565	18015
903.683	18190
903.801	17977
903.919	18053
904.038	18068
904.156	17809
904.274	17897
904.392	17817
904.51	17790
904.627	17798
904.745	17809
904.863	17942
904.981	17665
905.098	17551
905.216	17566
905.334	17490
905.451	17672
905.569	17505
905.686	17585
905.803	17592
905.921	17288
906.038	17493
906.155	17269
906.272	17197
906.389	17250
906.506	17029
906.623	17143
906.74	17098
906.857	16828
906.974	16896
907.091	17048
907.208	17261
907.324	17151
907.441	16965
907.557	16805
907.674	16736
907.79	16698
907.907	16653
908.023	16725
908.139	16733
908.256	16687
908.372	16645
908.488	16599
908.604	16500
908.72	16436
908.836	16447
908.952	16523
909.068	16493
909.184	16565
909.3	16523
909.415	16569
909.531	16405
909.647	16284
909.762	16124
909.878	16322
909.993	16173
910.108	16280
910.224	16234
910.339	16207
910.454	16032
910.57	16059
910.685	15915
910.8	16219
910.915	16181
911.03	15937
911.145	15816
911.259	15865
911.374	15793
911.489	15770
911.604	15724
911.718	15557
911.833	15610
911.947	15382
912.062	15332
912.176	15542
912.291	15606
912.405	15511
912.519	15713
912.633	15789
912.748	15507
912.862	15488
912.976	15405
913.09	15241
913.204	15355
913.318	15439
913.431	15473
913.545	15462
913.659	15412
913.772	15226
913.886	15199
914	15135
914.113	15291
914.226	15329
914.34	15302
914.453	15112
914.566	15211
914.68	15093
914.793	15028
914.906	14956
915.019	14762
915.132	14693
915.245	14765
915.358	14804
915.47	14758
915.583	14857
915.696	14864
915.809	14941
915.921	14880
916.034	14792
916.146	14712
916.259	14667
916.371	14758
916.483	14765
916.595	14693
916.708	14606
916.82	14640
916.932	14598
917.044	14648
917.156	14556
917.268	14431
917.38	14362
917.491	14396
917.603	14457
917.715	14549
917.826	14511
917.938	14389
918.049	14286
918.161	14393
918.272	14568
918.384	14507
918.495	14343
918.606	14233
918.717	14210
918.828	14237
918.939	14237
919.05	14180
919.161	14237
919.272	14050
919.383	14058
919.494	14267
919.604	14400
919.715	14240
919.826	14259
919.936	14149
920.047	14229
920.157	14259
920.267	14298
920.378	14149
920.488	14130
920.598	14328
920.708	14522
920.818	14244
920.928	14320
921.038	14488
921.148	14328
921.258	14115
921.368	14062
921.477	13894
921.587	13928
921.697	13765
921.806	14043
921.916	13788
922.025	13544
922.134	13613
922.244	13525
922.353	13525
922.462	13468
922.571	13400
922.68	13282
922.789	13293
922.898	13221
923.007	13194
923.116	13297
923.224	13270
923.333	13160
923.442	13099
923.55	12973
923.659	12985
923.767	13080
923.876	13053
923.984	13008
924.092	12932
924.201	13019
924.309	12954
924.417	12916
924.525	12821
924.633	12867
924.741	13811
924.849	12738
924.956	12913
925.064	12662
925.172	12631
925.279	12665
925.387	12677
925.494	12631
925.602	12817
925.709	12612
925.816	12521
925.924	12642
926.031	12696
926.138	12601
926.245	12658
926.352	12593
926.459	12612
926.566	12658
926.673	12551
926.779	12467
926.886	12448
926.993	12304
927.099	12292
927.206	12277
927.312	12205
927.419	12209
927.525	12205
927.631	12308
927.737	12049
927.843	12068
927.95	11984
928.056	12159
928.162	11988
928.267	12102
928.373	12700
928.479	12117
928.585	11870
928.69	11946
928.796	12057
928.901	11904
929.007	11805
929.112	11935
929.218	11927
929.323	11851
929.428	11809
929.533	11920
929.638	11718
929.743	11798
929.848	11813
929.953	11764
930.058	11611
930.163	11459
930.267	11539
930.372	11634
930.477	11474
930.581	11615
930.685	11535
930.79	11391
930.894	11398
930.998	11315
931.103	11463
931.207	11117
931.311	10987
931.415	10980
931.519	10835
931.623	10767
