Data from test_V78500241_3542.txt Node
Date: Fri Mar 25 15:34:31 CST 2022
User: usil
Spectrometer: V785-0024
Trigger mode: 0
Integration Time (sec): 4.000000E-1
Scans to average: 1
Nonlinearity correction enabled: false
Boxcar width: 0
Storing dark spectrum: false
XAxis mode: Wavelengths
Number of Pixels in Spectrum: 1024
>>>>>Begin Spectral Data<<<<<
801.071	27150
801.214	27222
801.356	27005
801.499	26891
801.641	26788
801.783	26796
801.926	26811
802.068	26735
802.211	26762
802.353	26579
802.496	26484
802.638	26526
802.78	26381
802.923	26434
803.065	26180
803.208	26301
803.35	26423
803.492	26480
803.635	26598
803.777	26484
803.919	26609
804.061	26925
804.204	26598
804.346	26594
804.488	26366
804.63	26400
804.773	26492
804.915	26495
805.057	26613
805.199	26640
805.341	26579
805.483	26724
805.626	26606
805.768	26549
805.91	26564
806.052	26579
806.194	26602
806.336	26750
806.478	26644
806.62	26602
806.762	26716
806.904	26971
807.046	27252
807.188	26998
807.33	27119
807.472	27081
807.614	27150
807.756	27081
807.898	26842
808.04	26891
808.182	26842
808.324	27005
808.465	26876
808.607	26925
808.749	27294
808.891	27393
809.033	27367
809.174	27367
809.316	27142
809.458	27252
809.6	27230
809.741	27264
809.883	27412
810.025	27458
810.166	27682
810.308	27599
810.45	27397
810.591	27439
810.733	27405
810.875	27344
811.016	27211
811.158	27138
811.299	27264
811.441	27439
811.582	27370
811.724	27310
811.865	27279
812.007	27351
812.148	27165
812.29	27450
812.431	27386
812.573	27561
812.714	27637
812.855	27831
812.997	27869
813.138	27979
813.279	27861
813.421	27675
813.562	27781
813.703	27511
813.845	27469
813.986	27142
814.127	26963
814.268	26864
814.41	26880
814.551	26899
814.692	26982
814.833	26887
814.974	26902
815.115	26975
815.256	26720
815.397	26819
815.539	26727
815.68	26765
815.821	26705
815.962	26743
816.103	26636
816.244	26503
816.385	26442
816.526	26343
816.666	26240
816.807	26172
816.948	26202
817.089	26176
817.23	26225
817.371	26248
817.512	26111
817.653	26134
817.793	26187
817.934	26290
818.075	26225
818.216	26142
818.356	26172
818.497	26172
818.638	25856
818.778	25989
818.919	25993
819.06	26027
819.2	26183
819.341	26130
819.481	26107
819.622	26377
819.762	26518
819.903	26549
820.043	26453
820.184	26423
820.324	26259
820.465	26484
820.605	26301
820.746	26366
820.886	26145
821.026	26301
821.167	26096
821.307	26374
821.447	26115
821.588	26069
821.728	25970
821.868	25811
822.008	25681
822.149	25662
822.289	25731
822.429	25373
822.569	25308
822.709	25301
822.849	25156
822.99	25000
823.13	25168
823.27	25027
823.41	24985
823.55	24821
823.69	24924
823.83	24920
823.97	24943
824.11	24779
824.25	24817
824.389	24772
824.529	24817
824.669	24943
824.809	24871
824.949	24962
825.089	24817
825.228	24871
825.368	24574
825.508	24726
825.648	24749
825.787	24570
825.927	24837
826.067	24650
826.206	24814
826.346	24810
826.485	24810
826.625	24726
826.765	24673
826.904	24738
827.044	24475
827.183	24639
827.323	24494
827.462	24437
827.601	24486
827.741	24369
827.88	24544
828.02	24315
828.159	24388
828.298	24483
828.437	24502
828.577	24399
828.716	24452
828.855	24289
828.994	24159
829.134	24155
829.273	24110
829.412	24114
829.551	24155
829.69	24216
829.829	24243
829.968	24125
830.107	24258
830.246	24121
830.385	24079
830.524	24125
830.663	23999
830.802	23836
830.941	23767
831.08	23596
831.219	23771
831.357	23794
831.496	23996
831.635	23847
831.774	23646
831.913	23638
832.051	23589
832.19	23604
832.329	23490
832.467	23604
832.606	23402
832.744	23421
832.883	23303
833.022	23440
833.16	23490
833.299	23490
833.437	23490
833.576	23497
833.714	23558
833.852	23592
833.991	23528
834.129	23733
834.267	23585
834.406	23570
834.544	23463
834.682	23395
834.821	23619
834.959	23596
835.097	23471
835.235	23558
835.373	23486
835.511	23417
835.65	23284
835.788	23337
835.926	23239
836.064	23170
836.202	23166
836.34	23334
836.478	23379
836.615	23391
836.753	23273
836.891	23398
837.029	23326
837.167	23326
837.305	23204
837.443	23242
837.58	23132
837.718	23277
837.856	23250
837.993	23143
838.131	23162
838.269	23041
838.406	23094
838.544	22892
838.681	22850
838.819	22793
838.956	22778
839.094	22755
839.231	22740
839.369	22908
839.506	23067
839.643	22999
839.781	22725
839.918	22679
840.055	22675
840.193	22694
840.33	22626
840.467	22542
840.604	22729
840.742	22869
840.879	22440
841.016	22485
841.153	22615
841.29	22767
841.427	22599
841.564	22698
841.701	22569
841.838	22527
841.975	22462
842.112	22531
842.249	22462
842.385	22318
842.522	22569
842.659	22462
842.796	22409
842.933	22447
843.069	22192
843.206	22310
843.343	22447
843.479	22318
843.616	22310
843.752	22143
843.889	22207
844.025	22226
844.162	22192
844.298	22306
844.435	22093
844.571	22185
844.708	22074
844.844	22325
844.98	22310
845.117	22211
845.253	22029
845.389	22036
845.525	22010
845.661	22025
845.798	21800
845.934	21895
846.07	21800
846.206	21968
846.342	22006
846.478	21968
846.614	21610
846.75	21542
846.886	21679
847.022	21724
847.158	21682
847.294	21648
847.429	21717
847.565	21481
847.701	21835
847.837	21443
847.972	21192
848.108	21542
848.244	21374
848.379	21275
848.515	21165
848.65	21150
848.786	21363
848.921	21222
849.057	21363
849.192	21348
849.328	21241
849.463	21256
849.598	21230
849.734	21146
849.869	21077
850.004	21077
850.14	20990
850.275	20967
850.41	20857
850.545	20861
850.68	21005
850.815	20883
850.95	21058
851.085	21195
851.22	21081
851.355	21039
851.49	20990
851.625	20921
851.76	20868
851.895	20864
852.03	20887
852.165	20895
852.299	20979
852.434	21062
852.569	21005
852.703	20921
852.838	21093
852.973	21184
853.107	21036
853.242	20868
853.376	20777
853.511	20746
853.645	20819
853.78	20853
853.914	20758
854.048	20857
854.183	20781
854.317	20750
854.451	20937
854.585	20849
854.72	20792
854.854	20933
854.988	20746
855.122	20785
855.256	20727
855.39	20758
855.524	20777
855.658	20956
855.792	20746
855.926	20849
856.06	20788
856.194	20910
856.327	20842
856.461	20731
856.595	20777
856.729	20826
856.862	20853
856.996	20880
857.13	20872
857.263	20883
857.397	20868
857.53	20876
857.664	20838
857.797	20921
857.931	20963
858.064	20785
858.197	20921
858.331	20811
858.464	20720
858.597	20727
858.731	20796
858.864	20788
858.997	20910
859.13	20826
859.263	20838
859.396	20929
859.529	20697
859.662	20769
859.795	20750
859.928	20773
860.061	20910
860.194	21066
860.327	20899
860.46	20921
860.592	20914
860.725	20899
860.858	21096
860.99	20845
861.123	20743
861.256	20746
861.388	20769
861.521	21660
861.653	20743
861.786	20530
861.918	20583
862.05	20648
862.183	20815
862.315	20861
862.447	20762
862.58	20762
862.712	20514
862.844	20568
862.976	20693
863.108	20438
863.24	20960
863.372	20476
863.504	20609
863.636	20457
863.768	20571
863.9	20594
864.032	20552
864.164	20526
864.296	20659
864.428	20613
864.559	20575
864.691	20495
864.823	20625
864.954	20541
865.086	20499
865.217	20552
865.349	20374
865.48	20457
865.612	20351
865.743	20579
865.875	20419
866.006	20339
866.137	20415
866.269	20423
866.4	20332
866.531	20484
866.662	20339
866.793	20328
866.924	20317
867.055	20461
867.186	20332
867.317	20355
867.448	20313
867.579	20415
867.71	20374
867.841	20244
867.972	20408
868.103	20351
868.233	20328
868.364	20480
868.495	20374
868.625	20594
868.756	20720
868.886	20564
869.017	20545
869.147	20648
869.278	20777
869.408	20705
869.539	20674
869.669	20727
869.799	20632
869.929	20762
870.06	20708
870.19	20910
870.32	20986
870.45	21013
870.58	20925
870.71	21096
870.84	21173
870.97	21058
871.1	21070
871.23	21237
871.36	21199
871.489	21070
871.619	21142
871.749	21233
871.879	21268
872.008	21306
872.138	21180
872.267	21096
872.397	21157
872.526	21039
872.656	20960
872.785	21127
872.915	21252
873.044	21279
873.173	21165
873.303	21214
873.432	21306
873.561	21336
873.69	21325
873.819	21294
873.948	21249
874.077	21313
874.206	21199
874.335	21214
874.464	21260
874.593	21526
874.722	21310
874.851	21477
874.979	21576
875.108	21652
875.237	21454
875.365	21443
875.494	21401
875.623	21485
875.751	21450
875.88	21466
876.008	21564
876.136	21614
876.265	21937
876.393	22036
876.521	21979
876.65	21934
876.778	21922
876.906	21857
877.034	21926
877.162	21861
877.29	21846
877.418	21850
877.546	21857
877.674	21778
877.802	21907
877.93	21789
878.058	21785
878.185	21606
878.313	21831
878.441	21804
878.568	21622
878.696	21816
878.824	21827
878.951	21854
879.079	21953
879.206	22112
879.333	22025
879.461	21876
879.588	21956
879.715	21941
879.842	22147
879.97	21842
880.097	21641
880.224	21576
880.351	21827
880.478	21724
880.605	21644
880.732	21751
880.859	21785
880.986	21675
881.112	21717
881.239	21492
881.366	21481
881.493	21412
881.619	21256
881.746	21214
881.872	21226
881.999	21233
882.125	21214
882.252	21230
882.378	21218
882.505	21298
882.631	21112
882.757	21066
882.883	21047
883.01	20796
883.136	20902
883.262	20781
883.388	20716
883.514	20937
883.64	20971
883.766	20815
883.892	20720
884.018	20667
884.143	20948
884.269	20902
884.395	20602
884.52	20640
884.646	20556
884.772	20476
884.897	20556
885.023	20598
885.148	20587
885.274	20724
885.399	20609
885.524	20613
885.65	20609
885.775	20598
885.9	20492
886.025	20682
886.15	20621
886.275	20522
886.4	20465
886.525	20571
886.65	20522
886.775	20469
886.9	20594
887.025	20830
887.149	20549
887.274	20366
887.399	20385
887.523	20389
887.648	20339
887.773	20210
887.897	20423
888.021	20396
888.146	20290
888.27	20419
888.395	20423
888.519	20431
888.643	20362
888.767	20362
888.891	20286
889.015	20176
889.139	20206
889.263	20183
889.387	20275
889.511	20385
889.635	20396
889.759	20069
889.883	20153
890.006	20180
890.13	20263
890.254	20096
890.377	20168
890.501	19932
890.624	20001
890.748	19974
890.871	19894
890.995	19742
891.118	19666
891.241	19734
891.364	19826
891.488	19940
891.611	19769
891.734	19746
891.857	19852
891.98	19780
892.103	19788
892.226	19765
892.349	19746
892.471	19674
892.594	19590
892.717	19662
892.839	19677
892.962	19696
893.085	19639
893.207	19655
893.33	19537
893.452	19544
893.575	19696
893.697	19662
893.819	19788
893.941	19890
894.064	19883
894.186	19525
894.308	19609
894.43	19643
894.552	19871
894.674	19780
894.796	19613
894.918	19609
895.04	19597
895.161	19750
895.283	19647
895.405	19548
895.526	19723
895.648	19689
895.769	19727
895.891	19635
896.012	19746
896.134	19685
896.255	19791
896.376	19639
896.498	19655
896.619	19761
896.74	19597
896.861	19731
896.982	20126
897.103	20122
897.224	20005
897.345	19898
897.466	19788
897.587	19989
897.708	19894
897.828	19970
897.949	19765
898.07	19757
898.19	19833
898.311	20035
898.431	19826
898.552	19894
898.672	20012
898.792	19959
898.913	19940
899.033	19879
899.153	19681
899.273	19571
899.393	19624
899.513	19651
899.633	19712
899.753	19689
899.873	19628
899.993	19765
900.113	19620
900.232	19563
900.352	19605
900.472	19407
900.591	19312
900.711	19331
900.83	19316
900.95	19358
901.069	19635
901.189	19221
901.308	19012
901.427	19015
901.546	19012
901.665	19012
901.784	19004
901.904	18783
902.023	18837
902.141	18593
902.26	18612
902.379	18589
902.498	18555
902.617	18490
902.735	18658
902.854	18517
902.973	18422
903.091	18190
903.21	18110
903.328	18163
903.446	18140
903.565	17950
903.683	18022
903.801	17824
903.919	18007
904.038	17999
904.156	17687
904.274	17863
904.392	17714
904.51	17764
904.627	17737
904.745	17874
904.863	17760
904.981	17577
905.098	17395
905.216	17436
905.334	17573
905.451	17452
905.569	17474
905.686	17467
905.803	17463
905.921	17189
906.038	17391
906.155	17273
906.272	17098
906.389	17166
906.506	17071
906.623	17010
906.74	16946
906.857	16850
906.974	16984
907.091	17071
907.208	17083
907.324	17037
907.441	16972
907.557	16866
907.674	16778
907.79	16733
907.907	16664
908.023	16736
908.139	16668
908.256	16634
908.372	16527
908.488	16668
908.604	16466
908.72	16386
908.836	16474
908.952	16459
909.068	16531
909.184	16512
909.3	16432
909.415	16470
909.531	16325
909.647	16185
909.762	16128
909.878	16112
909.993	16196
910.108	16071
910.224	16093
910.339	16234
910.454	15888
910.57	15884
910.685	15793
910.8	16185
910.915	16177
911.03	15998
911.145	15915
911.259	15812
911.374	15743
911.489	15736
911.604	15629
911.718	15519
911.833	15492
911.947	15481
912.062	15367
912.176	15542
912.291	15542
912.405	15515
912.519	15625
912.633	15656
912.748	15633
912.862	15519
912.976	15405
913.09	15222
913.204	15310
913.318	15336
913.431	15603
913.545	15435
913.659	15405
913.772	15310
913.886	15233
914	15161
914.113	15260
914.226	15180
914.34	15207
914.453	15001
914.566	15207
914.68	14979
914.793	15047
914.906	14868
915.019	14697
915.132	14705
915.245	14746
915.358	14876
915.47	14792
915.583	14716
915.696	14712
915.809	14887
915.921	14925
916.034	14663
916.146	14651
916.259	14598
916.371	14693
916.483	14674
916.595	14556
916.708	14590
916.82	14632
916.932	14537
917.044	14621
917.156	14446
917.268	14381
917.38	14476
917.491	14347
917.603	14465
917.715	14495
917.826	14556
917.938	14446
918.049	14324
918.161	14389
918.272	14499
918.384	14537
918.495	14317
918.606	14256
918.717	14134
918.828	14195
918.939	14214
919.05	14164
919.161	14107
919.272	14027
919.383	14073
919.494	14256
919.604	14366
919.715	14199
919.826	14138
919.936	14142
920.047	14168
920.157	14237
920.267	14343
920.378	14046
920.488	14065
920.598	14180
920.708	14415
920.818	14218
920.928	14290
921.038	14511
921.148	14381
921.258	14100
921.368	13955
921.477	13928
921.587	13890
921.697	13788
921.806	13830
921.916	13769
922.025	13575
922.134	13559
922.244	13453
922.353	13605
922.462	13430
922.571	13358
922.68	13236
922.789	13164
922.898	13187
923.007	13221
923.116	13282
923.224	13198
923.333	13179
923.442	13091
923.55	13012
923.659	13072
923.767	13114
923.876	13000
923.984	13038
924.092	12924
924.201	12981
924.309	12996
924.417	12913
924.525	12817
924.633	12970
924.741	13597
924.849	12688
924.956	12802
925.064	12635
925.172	12585
925.279	12650
925.387	12593
925.494	12582
925.602	12719
925.709	12616
925.816	12601
925.924	12604
926.031	12608
926.138	12601
926.245	12627
926.352	12509
926.459	12665
926.566	12608
926.673	12555
926.779	12319
926.886	12361
926.993	12254
927.099	12121
927.206	12171
927.312	12136
927.419	12171
927.525	12209
927.631	12209
927.737	12049
927.843	12098
927.95	11912
928.056	12030
928.162	11954
928.267	12209
928.373	12620
928.479	12060
928.585	11897
928.69	11980
928.796	11935
928.901	11828
929.007	11821
929.112	11916
929.218	11798
929.323	11764
929.428	11764
929.533	11832
929.638	11684
929.743	11703
929.848	11745
929.953	11737
930.058	11657
930.163	11547
930.267	11524
930.372	11627
930.477	11528
930.581	11657
930.685	11497
930.79	11376
930.894	11478
930.998	11387
931.103	11528
931.207	11102
931.311	11064
931.415	10984
931.519	10714
931.623	10797
