Data from test_V78500241_1540.txt Node
Date: Fri Mar 25 15:20:34 CST 2022
User: usil
Spectrometer: V785-0024
Trigger mode: 0
Integration Time (sec): 4.000000E-1
Scans to average: 1
Nonlinearity correction enabled: false
Boxcar width: 0
Storing dark spectrum: false
XAxis mode: Wavelengths
Number of Pixels in Spectrum: 1024
>>>>>Begin Spectral Data<<<<<
801.071	28048
801.214	27819
801.356	27679
801.499	27819
801.641	27523
801.783	27462
801.926	27557
802.068	27568
802.211	27572
802.353	27466
802.496	27230
802.638	27325
802.78	27233
802.923	27096
803.065	27062
803.208	27055
803.35	27241
803.492	27291
803.635	27382
803.777	27370
803.919	27264
804.061	27713
804.204	27458
804.346	27363
804.488	27367
804.63	27405
804.773	27203
804.915	27389
805.057	27504
805.199	27344
805.341	27511
805.483	27504
805.626	27629
805.768	27568
805.91	27473
806.052	27698
806.194	27549
806.336	27747
806.478	27496
806.62	27473
806.762	27618
806.904	27736
807.046	28070
807.188	27903
807.33	28051
807.472	27994
807.614	27861
807.756	27766
807.898	27781
808.04	27804
808.182	27743
808.324	27755
808.465	27892
808.607	28006
808.749	28120
808.891	28188
809.033	28314
809.174	28276
809.316	27991
809.458	28162
809.6	28135
809.741	28234
809.883	28268
810.025	28421
810.166	28447
810.308	28455
810.45	28443
810.591	28341
810.733	28097
810.875	28310
811.016	28097
811.158	28162
811.299	28249
811.441	28318
811.582	28215
811.724	28162
811.865	28101
812.007	28219
812.148	28230
812.29	28409
812.431	28436
812.573	28523
812.714	28561
812.855	28588
812.997	28850
813.138	28843
813.279	28858
813.421	28717
813.562	28691
813.703	28466
813.845	28432
813.986	27956
814.127	28032
814.268	27903
814.41	27899
814.551	27835
814.692	27895
814.833	27774
814.974	27831
815.115	27819
815.256	27846
815.397	27690
815.539	27903
815.68	27625
815.821	27599
815.962	27568
816.103	27641
816.244	27504
816.385	27435
816.526	27530
816.666	27302
816.807	27165
816.948	27252
817.089	27252
817.23	27279
817.371	27009
817.512	27207
817.653	27100
817.793	27116
817.934	27222
818.075	27199
818.216	27199
818.356	27131
818.497	27020
818.638	26864
818.778	26979
818.919	26887
819.06	27020
819.2	26979
819.341	27157
819.481	27169
819.622	27245
819.762	27450
819.903	27405
820.043	27359
820.184	27241
820.324	27100
820.465	27370
820.605	27348
820.746	27279
820.886	27070
821.026	27112
821.167	27150
821.307	27230
821.447	27192
821.588	27017
821.728	26971
821.868	26743
822.008	26530
822.149	26625
822.289	26537
822.429	26229
822.569	26313
822.709	26343
822.849	26164
822.99	26195
823.13	26054
823.27	26195
823.41	25868
823.55	25947
823.69	25966
823.83	25936
823.97	25909
824.11	25719
824.25	25704
824.389	25765
824.529	25898
824.669	25852
824.809	25776
824.949	26092
825.089	25890
825.228	25826
825.368	25647
825.508	25567
825.648	25738
825.787	25590
825.927	25700
826.067	25814
826.206	25556
826.346	25605
826.485	25582
826.625	25658
826.765	25670
826.904	25719
827.044	25407
827.183	25472
827.323	25324
827.462	25464
827.601	25335
827.741	25244
827.88	25426
828.02	25331
828.159	25369
828.298	25365
828.437	25354
828.577	25251
828.716	25430
828.855	25263
828.994	25004
829.134	25031
829.273	25072
829.412	25057
829.551	24958
829.69	24981
829.829	25160
829.968	25137
830.107	25118
830.246	25008
830.385	24882
830.524	24863
830.663	24791
830.802	24878
830.941	24601
831.08	24635
831.219	24848
831.357	24703
831.496	24901
831.635	24730
831.774	24604
831.913	24502
832.051	24479
832.19	24494
832.329	24452
832.467	24311
832.606	24243
832.744	24216
832.883	24357
833.022	24319
833.16	24380
833.299	24407
833.437	24445
833.576	24426
833.714	24357
833.852	24410
833.991	24433
834.129	24448
834.267	24410
834.406	24342
834.544	24361
834.682	24395
834.821	24315
834.959	24509
835.097	24410
835.235	24376
835.373	24281
835.511	24357
835.65	24167
835.788	24266
835.926	24114
836.064	24022
836.202	23931
836.34	24270
836.478	24311
836.615	24129
836.753	24216
836.891	24296
837.029	24388
837.167	24224
837.305	24091
837.443	24121
837.58	24053
837.718	24148
837.856	23950
837.993	23977
838.131	24057
838.269	23950
838.406	23882
838.544	23764
838.681	23668
838.819	23775
838.956	23535
839.094	23463
839.231	23596
839.369	23524
839.506	23786
839.643	23729
839.781	23592
839.918	23535
840.055	23570
840.193	23482
840.33	23334
840.467	23467
840.604	23490
840.742	23684
840.879	23277
841.016	23258
841.153	23269
841.29	23623
841.427	23444
841.564	23444
841.701	23345
841.838	23299
841.975	23242
842.112	23315
842.249	23261
842.385	23174
842.522	23425
842.659	23265
842.796	23159
842.933	23193
843.069	23098
843.206	23075
843.343	23284
843.479	23208
843.616	23242
843.752	22942
843.889	22953
844.025	23155
844.162	22930
844.298	23113
844.435	22934
844.571	23010
844.708	23037
844.844	23098
844.98	23189
845.117	23052
845.253	22976
845.389	22869
845.525	22767
845.661	22915
845.798	22694
845.934	22755
846.07	22729
846.206	22634
846.342	22854
846.478	22748
846.614	22421
846.75	22405
846.886	22413
847.022	22573
847.158	22386
847.294	22405
847.429	22459
847.565	22402
847.701	22618
847.837	22265
847.972	22200
848.108	22257
848.244	22215
848.379	22017
848.515	22097
848.65	21949
848.786	22082
848.921	22105
849.057	22131
849.192	22029
849.328	22055
849.463	22120
849.598	21861
849.734	21991
849.869	21876
850.004	21778
850.14	21975
850.275	21728
850.41	21739
850.545	21671
850.68	21595
850.815	21774
850.95	21797
851.085	21854
851.22	21861
851.355	21778
851.49	21694
851.625	21660
851.76	21743
851.895	21682
852.03	21747
852.165	21743
852.299	21854
852.434	21880
852.569	21724
852.703	21732
852.838	21846
852.973	21907
853.107	21751
853.242	21652
853.376	21580
853.511	21428
853.645	21382
853.78	21816
853.914	21732
854.048	21534
854.183	21488
854.317	21572
854.451	21835
854.585	21622
854.72	21671
854.854	21717
854.988	21504
855.122	21538
855.256	21523
855.39	21606
855.524	21629
855.658	21568
855.792	21675
855.926	21591
856.06	21660
856.194	21610
856.327	21599
856.461	21504
856.595	21603
856.729	21663
856.862	21660
856.996	21606
857.13	21652
857.263	21698
857.397	21686
857.53	21637
857.664	21679
857.797	21743
857.931	21675
858.064	21671
858.197	21652
858.331	21538
858.464	21504
858.597	21534
858.731	21603
858.864	21644
858.997	21557
859.13	21549
859.263	21629
859.396	21720
859.529	21686
859.662	21557
859.795	21553
859.928	21603
860.061	21774
860.194	21827
860.327	21572
860.46	21606
860.592	21774
860.725	21709
860.858	21644
860.99	21576
861.123	21595
861.256	21568
861.388	21641
861.521	22314
861.653	21561
861.786	21500
861.918	21374
862.05	21389
862.183	21530
862.315	21443
862.447	21526
862.58	21496
862.712	21245
862.844	21245
862.976	21386
863.108	21313
863.24	21694
863.372	21245
863.504	21332
863.636	21203
863.768	21340
863.9	21351
864.032	21184
864.164	21256
864.296	21268
864.428	21351
864.559	21336
864.691	21291
864.823	21249
864.954	21192
865.086	21302
865.217	21245
865.349	21043
865.48	21138
865.612	21180
865.743	21317
865.875	21249
866.006	21020
866.137	21207
866.269	21119
866.4	21066
866.531	21157
866.662	20956
866.793	21142
866.924	21142
867.055	21051
867.186	21161
867.317	21020
867.448	21116
867.579	21154
867.71	20990
867.841	21062
867.972	21154
868.103	21142
868.233	21020
868.364	21214
868.495	21226
868.625	21321
868.756	21420
868.886	21294
869.017	21351
869.147	21545
869.278	21420
869.408	21363
869.539	21405
869.669	21443
869.799	21393
869.929	21511
870.06	21393
870.19	21690
870.32	21633
870.45	21709
870.58	21595
870.71	21808
870.84	21857
870.97	21671
871.1	21694
871.23	21854
871.36	21937
871.489	21804
871.619	21979
871.749	22006
871.879	21797
872.008	22036
872.138	22017
872.267	21876
872.397	21808
872.526	21804
872.656	21728
872.785	21835
872.915	22086
873.044	22002
873.173	22051
873.303	22036
873.432	21968
873.561	22017
873.69	21934
873.819	21880
873.948	22082
874.077	21968
874.206	21797
874.335	22013
874.464	22135
874.593	22219
874.722	22116
874.851	22211
874.979	22196
875.108	22291
875.237	22101
875.365	22131
875.494	22200
875.623	22280
875.751	22097
875.88	22284
876.008	22462
876.136	22341
876.265	22675
876.393	22698
876.521	22767
876.65	22675
876.778	22599
876.906	22527
877.034	22443
877.162	22542
877.29	22462
877.418	22531
877.546	22561
877.674	22504
877.802	22489
877.93	22481
878.058	22554
878.185	22436
878.313	22504
878.441	22440
878.568	22428
878.696	22527
878.824	22512
878.951	22580
879.079	22702
879.206	22793
879.333	22698
879.461	22466
879.588	22599
879.715	22744
879.842	22835
879.97	22710
880.097	22303
880.224	22390
880.351	22402
880.478	22333
880.605	22367
880.732	22329
880.859	22637
880.986	22451
881.112	22363
881.239	22253
881.366	22112
881.493	22097
881.619	21975
881.746	21964
881.872	21903
881.999	21987
882.125	21918
882.252	21945
882.378	21956
882.505	21968
882.631	21724
882.757	21724
882.883	21728
883.01	21656
883.136	21629
883.262	21439
883.388	21458
883.514	21656
883.64	21682
883.766	21454
883.892	21450
884.018	21420
884.143	21523
884.269	21618
884.395	21252
884.52	21245
884.646	21287
884.772	21081
884.897	21161
885.023	21287
885.148	21351
885.274	21401
885.399	21275
885.524	21173
885.65	21363
885.775	21294
885.9	21401
886.025	21370
886.15	21325
886.275	21176
886.4	21135
886.525	21283
886.65	21245
886.775	21119
886.9	21389
887.025	21405
887.149	21211
887.274	21157
887.399	21036
887.523	20944
887.648	21009
887.773	21020
887.897	21112
888.021	21089
888.146	20834
888.27	21150
888.395	21230
888.519	21081
888.643	21176
888.767	21039
888.891	20914
889.015	20826
889.139	20906
889.263	20724
889.387	21154
889.511	21036
889.635	21058
889.759	20887
889.883	20815
890.006	20777
890.13	20895
890.254	20864
890.377	20777
890.501	20792
890.624	20575
890.748	20754
890.871	20480
890.995	20419
891.118	20446
891.241	20408
891.364	20461
891.488	20511
891.611	20419
891.734	20484
891.857	20560
891.98	20343
892.103	20457
892.226	20476
892.349	20324
892.471	20214
892.594	20320
892.717	20404
892.839	20400
892.962	20248
893.085	20427
893.207	20358
893.33	20202
893.452	20176
893.575	20511
893.697	20278
893.819	20423
893.941	20518
894.064	20480
894.186	20199
894.308	20275
894.43	20377
894.552	20393
894.674	20541
894.796	20309
894.918	20332
895.04	20320
895.161	20389
895.283	20305
895.405	20259
895.526	20434
895.648	20286
895.769	20298
895.891	20377
896.012	20442
896.134	20427
896.255	20374
896.376	20214
896.498	20252
896.619	20381
896.74	20317
896.861	20476
896.982	20575
897.103	20754
897.224	20564
897.345	20492
897.466	20473
897.587	20503
897.708	20632
897.828	20689
897.949	20461
898.07	20267
898.19	20412
898.311	20602
898.431	20461
898.552	20465
898.672	20602
898.792	20587
898.913	20499
899.033	20461
899.153	20199
899.273	20168
899.393	20358
899.513	20358
899.633	20233
899.753	20244
899.873	20183
899.993	20343
900.113	20168
900.232	20244
900.352	20202
900.472	20210
900.591	20142
900.711	20031
900.83	20039
900.95	20111
901.069	20096
901.189	19906
901.308	19723
901.427	19571
901.546	19731
901.665	19639
901.784	19639
901.904	19502
902.023	19430
902.141	19206
902.26	19091
902.379	19240
902.498	19133
902.617	19038
902.735	19122
902.854	19107
902.973	18928
903.091	18852
903.21	18970
903.328	18802
903.446	18749
903.565	18665
903.683	18677
903.801	18486
903.919	18494
904.038	18502
904.156	18395
904.274	18441
904.392	18414
904.51	18391
904.627	18277
904.745	18311
904.863	18490
904.981	18239
905.098	18068
905.216	18079
905.334	18003
905.451	18038
905.569	17988
905.686	18053
905.803	18053
905.921	17805
906.038	17904
906.155	17988
906.272	17756
906.389	17737
906.506	17630
906.623	17733
906.74	17516
906.857	17383
906.974	17596
907.091	17592
907.208	17672
907.324	17661
907.441	17364
907.557	17273
907.674	17242
907.79	17208
907.907	17235
908.023	17391
908.139	17258
908.256	17239
908.372	17299
908.488	17269
908.604	17048
908.72	16980
908.836	17033
908.952	16991
909.068	17109
909.184	17166
909.3	17052
909.415	17067
909.531	17037
909.647	16767
909.762	16710
909.878	16679
909.993	16744
910.108	16672
910.224	16603
910.339	16702
910.454	16615
910.57	16485
910.685	16459
910.8	16637
910.915	16679
911.03	16531
911.145	16348
911.259	16322
911.374	16333
911.489	16344
911.604	16162
911.718	16067
911.833	16055
911.947	15854
912.062	15816
912.176	16063
912.291	16097
912.405	15968
912.519	16181
912.633	16223
912.748	16116
912.862	16120
912.976	15876
913.09	15781
913.204	15854
913.318	15861
913.431	15964
913.545	15846
913.659	15907
913.772	15747
913.886	15743
914	15637
914.113	15713
914.226	15755
914.34	15785
914.453	15568
914.566	15603
914.68	15663
914.793	15576
914.906	15340
915.019	15249
915.132	15211
915.245	15279
915.358	15408
915.47	15294
915.583	15279
915.696	15291
915.809	15408
915.921	15435
916.034	15184
916.146	15108
916.259	15195
916.371	15268
916.483	15161
916.595	15097
916.708	14986
916.82	15135
916.932	15047
917.044	15051
917.156	15123
917.268	14971
917.38	15066
917.491	14967
917.603	15036
917.715	15017
917.826	14944
917.938	14807
918.049	14830
918.161	14857
918.272	14944
918.384	14891
918.495	14777
918.606	14765
918.717	14575
918.828	14705
918.939	14667
919.05	14629
919.161	14720
919.272	14511
919.383	14514
919.494	14731
919.604	14796
919.715	14720
919.826	14530
919.936	14602
920.047	14750
920.157	14610
920.267	14902
920.378	14655
920.488	14617
920.598	14720
920.708	14826
920.818	14762
920.928	14750
921.038	14929
921.148	14986
921.258	14621
921.368	14545
921.477	14374
921.587	14317
921.697	14202
921.806	14457
921.916	14229
922.025	14027
922.134	14065
922.244	13947
922.353	13970
922.462	13909
922.571	13921
922.68	13757
922.789	13628
922.898	13689
923.007	13540
923.116	13727
923.224	13662
923.333	13647
923.442	13533
923.55	13483
923.659	13571
923.767	13548
923.876	13411
923.984	13483
924.092	13365
924.201	13365
924.309	13415
924.417	13362
924.525	13278
924.633	13263
924.741	14138
924.849	13122
924.956	13278
925.064	13072
925.172	13065
925.279	13046
925.387	13114
925.494	13046
925.602	13122
925.709	13118
925.816	12935
925.924	12966
926.031	13168
926.138	12939
926.245	12989
926.352	12886
926.459	13008
926.566	13034
926.673	13034
926.779	12814
926.886	12795
926.993	12627
927.099	12604
927.206	12555
927.312	12574
927.419	12707
927.525	12593
927.631	12608
927.737	12544
927.843	12460
927.95	12346
928.056	12418
928.162	12433
928.267	12544
928.373	13061
928.479	12502
928.585	12232
928.69	12384
928.796	12456
928.901	12334
929.007	12053
929.112	12266
929.218	12186
929.323	12182
929.428	12102
929.533	12308
929.638	12102
929.743	12083
929.848	12182
929.953	12114
930.058	12026
930.163	11874
930.267	11863
930.372	11901
930.477	11840
930.581	12072
930.685	11878
930.79	11752
930.894	11760
930.998	11699
931.103	11870
931.207	11421
931.311	11360
931.415	11326
931.519	11124
931.623	11071
