Data from test_V78500241_3505.txt Node
Date: Fri Mar 25 15:34:15 CST 2022
User: usil
Spectrometer: V785-0024
Trigger mode: 0
Integration Time (sec): 4.000000E-1
Scans to average: 1
Nonlinearity correction enabled: false
Boxcar width: 0
Storing dark spectrum: false
XAxis mode: Wavelengths
Number of Pixels in Spectrum: 1024
>>>>>Begin Spectral Data<<<<<
801.071	27378
801.214	27249
801.356	27074
801.499	27055
801.641	26811
801.783	26872
801.926	26952
802.068	26929
802.211	26773
802.353	26549
802.496	26568
802.638	26530
802.78	26492
802.923	26412
803.065	26301
803.208	26408
803.35	26434
803.492	26739
803.635	26568
803.777	26526
803.919	26632
804.061	26967
804.204	26762
804.346	26659
804.488	26655
804.63	26617
804.773	26480
804.915	26701
805.057	26815
805.199	26587
805.341	26587
805.483	26792
805.626	26724
805.768	26632
805.91	26773
806.052	26632
806.194	26724
806.336	26921
806.478	26686
806.62	26762
806.762	26880
806.904	26956
807.046	27233
807.188	27230
807.33	27211
807.472	27237
807.614	27123
807.756	27093
807.898	26990
808.04	27036
808.182	26906
808.324	26925
808.465	27157
808.607	27218
808.749	27306
808.891	27378
809.033	27553
809.174	27348
809.316	27340
809.458	27363
809.6	27302
809.741	27488
809.883	27523
810.025	27713
810.166	27648
810.308	27667
810.45	27466
810.591	27545
810.733	27393
810.875	27302
811.016	27104
811.158	27272
811.299	27507
811.441	27466
811.582	27473
811.724	27329
811.865	27294
812.007	27359
812.148	27226
812.29	27340
812.431	27511
812.573	27606
812.714	27797
812.855	27800
812.997	27876
813.138	28162
813.279	27972
813.421	27930
813.562	27831
813.703	27736
813.845	27564
813.986	27306
814.127	27020
814.268	27005
814.41	27081
814.551	26921
814.692	27112
814.833	26902
814.974	27032
815.115	26975
815.256	26857
815.397	27009
815.539	26758
815.68	26785
815.821	26834
815.962	26777
816.103	26781
816.244	26754
816.385	26541
816.526	26495
816.666	26480
816.807	26358
816.948	26294
817.089	26282
817.23	26343
817.371	26111
817.512	26351
817.653	26248
817.793	26221
817.934	26195
818.075	26202
818.216	26408
818.356	26187
818.497	26088
818.638	25875
818.778	26046
818.919	25963
819.06	26153
819.2	26187
819.341	26328
819.481	26183
819.622	26358
819.762	26644
819.903	26541
820.043	26377
820.184	26594
820.324	26438
820.465	26457
820.605	26488
820.746	26427
820.886	26180
821.026	26256
821.167	26301
821.307	26317
821.447	26259
821.588	26210
821.728	26039
821.868	25932
822.008	25818
822.149	25814
822.289	25750
822.429	25327
822.569	25346
822.709	25335
822.849	25339
822.99	25335
823.13	25206
823.27	25190
823.41	25012
823.55	25050
823.69	24966
823.83	24909
823.97	24962
824.11	24932
824.25	24791
824.389	24901
824.529	24951
824.669	25042
824.809	24913
824.949	24901
825.089	24992
825.228	24897
825.368	24890
825.508	24772
825.648	24707
825.787	24901
825.927	24795
826.067	24738
826.206	24684
826.346	24715
826.485	24837
826.625	24859
826.765	24806
826.904	24821
827.044	24494
827.183	24528
827.323	24486
827.462	24509
827.601	24532
827.741	24422
827.88	24475
828.02	24346
828.159	24532
828.298	24456
828.437	24334
828.577	24555
828.716	24498
828.855	24418
828.994	24133
829.134	24235
829.273	24258
829.412	24273
829.551	24091
829.69	24220
829.829	24114
829.968	24342
830.107	24243
830.246	24266
830.385	24072
830.524	24022
830.663	24003
830.802	23977
830.941	23882
831.08	23847
831.219	23897
831.357	23836
831.496	23980
831.635	23748
831.774	23752
831.913	23893
832.051	23501
832.19	23623
832.329	23672
832.467	23493
832.606	23364
832.744	23330
832.883	23383
833.022	23524
833.16	23592
833.299	23554
833.437	23474
833.576	23630
833.714	23592
833.852	23619
833.991	23623
834.129	23653
834.267	23554
834.406	23604
834.544	23657
834.682	23543
834.821	23512
834.959	23589
835.097	23611
835.235	23509
835.373	23433
835.511	23577
835.65	23261
835.788	23372
835.926	23440
836.064	23261
836.202	23250
836.34	23478
836.478	23501
836.615	23429
836.753	23337
836.891	23444
837.029	23425
837.167	23269
837.305	23288
837.443	23292
837.58	23330
837.718	23318
837.856	23197
837.993	23246
838.131	23341
838.269	23117
838.406	23181
838.544	23128
838.681	22877
838.819	22843
838.956	22656
839.094	22626
839.231	22908
839.369	23006
839.506	22927
839.643	23075
839.781	22767
839.918	22733
840.055	22767
840.193	22805
840.33	22672
840.467	22717
840.604	22672
840.742	22961
840.879	22550
841.016	22413
841.153	22603
841.29	22721
841.427	22710
841.564	22744
841.701	22645
841.838	22656
841.975	22599
842.112	22656
842.249	22436
842.385	22466
842.522	22679
842.659	22592
842.796	22306
842.933	22379
843.069	22314
843.206	22428
843.343	22432
843.479	22489
843.616	22538
843.752	22207
843.889	22310
844.025	22310
844.162	22124
844.298	22238
844.435	22207
844.571	22204
844.708	22150
844.844	22352
844.98	22329
845.117	22344
845.253	22010
845.389	22070
845.525	22090
845.661	22265
845.798	21979
845.934	21945
846.07	22017
846.206	21956
846.342	21945
846.478	21819
846.614	21793
846.75	21648
846.886	21675
847.022	21686
847.158	21667
847.294	21682
847.429	21766
847.565	21641
847.701	21892
847.837	21519
847.972	21351
848.108	21500
848.244	21561
848.379	21397
848.515	21237
848.65	21344
848.786	21340
848.921	21306
849.057	21249
849.192	21378
849.328	21256
849.463	21214
849.598	21256
849.734	21275
849.869	21043
850.004	21062
850.14	21165
850.275	21127
850.41	20982
850.545	21150
850.68	21032
850.815	21100
850.95	20963
851.085	21199
851.22	21142
851.355	21165
851.49	21116
851.625	21001
851.76	20960
851.895	20830
852.03	20933
852.165	21001
852.299	20998
852.434	21108
852.569	21123
852.703	21032
852.838	21104
852.973	21169
853.107	21116
853.242	20982
853.376	20868
853.511	20800
853.645	20773
853.78	20948
853.914	20902
854.048	20731
854.183	20765
854.317	20963
854.451	21070
854.585	20845
854.72	20895
854.854	20895
854.988	20731
855.122	20739
855.256	20762
855.39	20830
855.524	21047
855.658	20807
855.792	20868
855.926	20872
856.06	20838
856.194	20948
856.327	20838
856.461	20849
856.595	20807
856.729	20811
856.862	20960
856.996	20819
857.13	20902
857.263	20941
857.397	20967
857.53	20918
857.664	20773
857.797	20914
857.931	21077
858.064	20849
858.197	21051
858.331	20861
858.464	20918
858.597	20617
858.731	20857
858.864	20864
858.997	20864
859.13	20845
859.263	20963
859.396	20914
859.529	20815
859.662	20883
859.795	20781
859.928	20899
860.061	20971
860.194	20990
860.327	20887
860.46	20849
860.592	21017
860.725	21047
860.858	20990
860.99	20952
861.123	20746
861.256	20739
861.388	20861
861.521	21606
861.653	20674
861.786	20686
861.918	20598
862.05	20788
862.183	20826
862.315	20769
862.447	20857
862.58	20785
862.712	20549
862.844	20613
862.976	20663
863.108	20708
863.24	20979
863.372	20518
863.504	20511
863.636	20556
863.768	20587
863.9	20712
864.032	20480
864.164	20454
864.296	20537
864.428	20625
864.559	20575
864.691	20697
864.823	20609
864.954	20560
865.086	20518
865.217	20480
865.349	20526
865.48	20419
865.612	20568
865.743	20583
865.875	20575
866.006	20476
866.137	20419
866.269	20400
866.4	20415
866.531	20484
866.662	20431
866.793	20339
866.924	20476
867.055	20454
867.186	20404
867.317	20423
867.448	20358
867.579	20358
867.71	20351
867.841	20412
867.972	20465
868.103	20404
868.233	20545
868.364	20450
868.495	20522
868.625	20765
868.756	20788
868.886	20568
869.017	20682
869.147	20705
869.278	20613
869.408	20705
869.539	20579
869.669	20625
869.799	20724
869.929	20785
870.06	20823
870.19	20963
870.32	20906
870.45	21013
870.58	20986
870.71	21131
870.84	21058
870.97	21108
871.1	21051
871.23	21302
871.36	21291
871.489	21180
871.619	21279
871.749	21218
871.879	21306
872.008	21287
872.138	21306
872.267	21249
872.397	21169
872.526	21077
872.656	21249
872.785	21055
872.915	21272
873.044	21329
873.173	21405
873.303	21317
873.432	21370
873.561	21382
873.69	21431
873.819	21325
873.948	21370
874.077	21237
874.206	21233
874.335	21245
874.464	21534
874.593	21496
874.722	21462
874.851	21538
874.979	21641
875.108	21622
875.237	21481
875.365	21367
875.494	21500
875.623	21606
875.751	21485
875.88	21549
876.008	21774
876.136	21701
876.265	21884
876.393	22048
876.521	22017
876.65	21987
876.778	21857
876.906	21861
877.034	21850
877.162	21831
877.29	21823
877.418	21964
877.546	21857
877.674	21838
877.802	21903
877.93	21956
878.058	21781
878.185	21850
878.313	21812
878.441	21941
878.568	21637
878.696	21781
878.824	21975
878.951	21945
879.079	22166
879.206	22074
879.333	22025
879.461	21823
879.588	22200
879.715	22063
879.842	22169
879.97	22013
880.097	21724
880.224	21781
880.351	21724
880.478	21747
880.605	21698
880.732	21671
880.859	21945
880.986	21679
881.112	21724
881.239	21564
881.366	21473
881.493	21367
881.619	21237
881.746	21382
881.872	21287
881.999	21237
882.125	21241
882.252	21454
882.378	21199
882.505	21420
882.631	21055
882.757	21047
882.883	21100
883.01	21047
883.136	20906
883.262	20872
883.388	20895
883.514	21051
883.64	20948
883.766	20963
883.892	20670
884.018	20777
884.143	20990
884.269	21028
884.395	20754
884.52	20705
884.646	20667
884.772	20689
884.897	20495
885.023	20693
885.148	20708
885.274	20731
885.399	20739
885.524	20724
885.65	20689
885.775	20659
885.9	20602
886.025	20963
886.15	20716
886.275	20621
886.4	20419
886.525	20648
886.65	20503
886.775	20530
886.9	20693
887.025	20762
887.149	20689
887.274	20438
887.399	20385
887.523	20511
887.648	20503
887.773	20454
887.897	20427
888.021	20438
888.146	20355
888.27	20598
888.395	20530
888.519	20537
888.643	20530
888.767	20484
888.891	20396
889.015	20301
889.139	20271
889.263	20282
889.387	20423
889.511	20495
889.635	20442
889.759	20229
889.883	20298
890.006	20275
890.13	20259
890.254	20218
890.377	20081
890.501	19997
890.624	20008
890.748	20081
890.871	19932
890.995	19776
891.118	19776
891.241	19799
891.364	19978
891.488	19940
891.611	19906
891.734	19864
891.857	19928
891.98	19772
892.103	19822
892.226	19746
892.349	19753
892.471	19601
892.594	19647
892.717	19765
892.839	19757
892.962	19750
893.085	19769
893.207	19715
893.33	19715
893.452	19643
893.575	19704
893.697	19670
893.819	19909
893.941	20043
894.064	19803
894.186	19731
894.308	19674
894.43	19784
894.552	19849
894.674	19879
894.796	19635
894.918	19791
895.04	19765
895.161	19772
895.283	19677
895.405	19635
895.526	19575
895.648	19647
895.769	19955
895.891	19704
896.012	19841
896.134	19822
896.255	19909
896.376	19548
896.498	19727
896.619	19776
896.74	19715
896.861	19772
896.982	19944
897.103	20172
897.224	20005
897.345	19963
897.466	19849
897.587	19890
897.708	20058
897.828	19989
897.949	19883
898.07	19776
898.19	19906
898.311	19955
898.431	19830
898.552	20054
898.672	20054
898.792	20027
898.913	19921
899.033	19841
899.153	19811
899.273	19632
899.393	19803
899.513	19761
899.633	19788
899.753	19715
899.873	19655
899.993	19750
900.113	19662
900.232	19712
900.352	19632
900.472	19499
900.591	19460
900.711	19552
900.83	19575
900.95	19514
901.069	19624
901.189	19426
901.308	19228
901.427	19255
901.546	19088
901.665	19122
901.784	19088
901.904	19000
902.023	18772
902.141	18684
902.26	18642
902.379	18673
902.498	18642
902.617	18585
902.735	18578
902.854	18627
902.973	18502
903.091	18361
903.21	18266
903.328	18232
903.446	18224
903.565	18022
903.683	18133
903.801	17969
903.919	17980
904.038	18007
904.156	17771
904.274	17920
904.392	17855
904.51	17882
904.627	17866
904.745	17794
904.863	17912
904.981	17748
905.098	17474
905.216	17592
905.334	17471
905.451	17562
905.569	17516
905.686	17570
905.803	17577
905.921	17383
906.038	17402
906.155	17414
906.272	17258
906.389	17128
906.506	17010
906.623	17155
906.74	17079
906.857	17022
906.974	17010
907.091	17048
907.208	17246
907.324	17052
907.441	17010
907.557	16831
907.674	16915
907.79	16805
907.907	16740
908.023	16831
908.139	16858
908.256	16687
908.372	16641
908.488	16710
908.604	16516
908.72	16398
908.836	16531
908.952	16508
909.068	16599
909.184	16611
909.3	16592
909.415	16554
909.531	16466
909.647	16287
909.762	16253
909.878	16211
909.993	16242
910.108	16306
910.224	16204
910.339	16200
910.454	16124
910.57	15987
910.685	15964
910.8	16204
910.915	16071
911.03	16105
911.145	15941
911.259	15850
911.374	15850
911.489	15660
911.604	15732
911.718	15580
911.833	15595
911.947	15625
912.062	15431
912.176	15648
912.291	15675
912.405	15641
912.519	15705
912.633	15785
912.748	15671
912.862	15538
912.976	15420
913.09	15378
913.204	15420
913.318	15405
913.431	15526
913.545	15458
913.659	15496
913.772	15325
913.886	15272
914	15226
914.113	15332
914.226	15302
914.34	15298
914.453	15161
914.566	15226
914.68	15089
914.793	15047
914.906	14910
915.019	14868
915.132	14807
915.245	14731
915.358	14857
915.47	14830
915.583	14834
915.696	14948
915.809	15001
915.921	14982
916.034	14758
916.146	14853
916.259	14731
916.371	14781
916.483	14773
916.595	14712
916.708	14724
916.82	14689
916.932	14583
917.044	14682
917.156	14610
917.268	14446
917.38	14480
917.491	14552
917.603	14404
917.715	14621
917.826	14610
917.938	14454
918.049	14248
918.161	14438
918.272	14537
918.384	14495
918.495	14400
918.606	14263
918.717	14191
918.828	14233
918.939	14328
919.05	14142
919.161	14214
919.272	14092
919.383	14107
919.494	14309
919.604	14332
919.715	14229
919.826	14119
919.936	14134
920.047	14214
920.157	14199
920.267	14393
920.378	14229
920.488	14290
920.598	14427
920.708	14537
920.818	14317
920.928	14396
921.038	14598
921.148	14427
921.258	14256
921.368	14119
921.477	14031
921.587	13932
921.697	13780
921.806	13955
921.916	13887
922.025	13681
922.134	13708
922.244	13609
922.353	13609
922.462	13499
922.571	13464
922.68	13297
922.789	13278
922.898	13206
923.007	13232
923.116	13304
923.224	13194
923.333	13285
923.442	13057
923.55	13141
923.659	13099
923.767	13187
923.876	12989
923.984	13061
924.092	12993
924.201	12970
924.309	12973
924.417	12962
924.525	12913
924.633	12951
924.741	13723
924.849	12741
924.956	12905
925.064	12730
925.172	12673
925.279	12646
925.387	12707
925.494	12612
925.602	12825
925.709	12829
925.816	12490
925.924	12654
926.031	12696
926.138	12673
926.245	12642
926.352	12445
926.459	12696
926.566	12707
926.673	12525
926.779	12456
926.886	12391
926.993	12330
927.099	12190
927.206	12216
927.312	12167
927.419	12327
927.525	12300
927.631	12285
927.737	12083
927.843	12171
927.95	12003
928.056	12114
928.162	12129
928.267	12095
928.373	12616
928.479	12194
928.585	11969
928.69	12114
928.796	12121
928.901	11961
929.007	11779
929.112	11863
929.218	11901
929.323	11859
929.428	11847
929.533	11958
929.638	11688
929.743	11760
929.848	11843
929.953	11813
930.058	11623
930.163	11486
930.267	11589
930.372	11657
930.477	11532
930.581	11695
930.685	11577
930.79	11448
930.894	11467
930.998	11353
931.103	11474
931.207	11178
931.311	10999
931.415	11006
931.519	10774
931.623	10816
