Data from test_V78500241_2262.txt Node
Date: Fri Mar 25 15:25:36 CST 2022
User: usil
Spectrometer: V785-0024
Trigger mode: 0
Integration Time (sec): 4.000000E-1
Scans to average: 1
Nonlinearity correction enabled: false
Boxcar width: 0
Storing dark spectrum: false
XAxis mode: Wavelengths
Number of Pixels in Spectrum: 1024
>>>>>Begin Spectral Data<<<<<
801.071	27545
801.214	27583
801.356	27370
801.499	27329
801.641	27199
801.783	27203
801.926	27226
802.068	27397
802.211	27116
802.353	27024
802.496	26861
802.638	26731
802.78	26754
802.923	26640
803.065	26587
803.208	26716
803.35	26834
803.492	26845
803.635	27009
803.777	26910
803.919	26967
804.061	27249
804.204	27112
804.346	26800
804.488	26861
804.63	26971
804.773	26887
804.915	27108
805.057	27085
805.199	26823
805.341	27039
805.483	27001
805.626	26967
805.768	27100
805.91	27074
806.052	26979
806.194	26944
806.336	27138
806.478	26979
806.62	27108
806.762	27112
806.904	27351
807.046	27622
807.188	27538
807.33	27656
807.472	27542
807.614	27378
807.756	27530
807.898	27412
808.04	27313
808.182	27363
808.324	27298
808.465	27500
808.607	27637
808.749	27576
808.891	27846
809.033	27823
809.174	27667
809.316	27804
809.458	27603
809.6	27686
809.741	27698
809.883	27812
810.025	27994
810.166	27854
810.308	28055
810.45	28017
810.591	27903
810.733	27698
810.875	27614
811.016	27458
811.158	27580
811.299	27751
811.441	27724
811.582	27701
811.724	27736
811.865	27736
812.007	27618
812.148	27637
812.29	27682
812.431	27808
812.573	28002
812.714	28109
812.855	28246
812.997	28276
813.138	28363
813.279	28363
813.421	28169
813.562	28067
813.703	28029
813.845	27953
813.986	27641
814.127	27435
814.268	27359
814.41	27405
814.551	27260
814.692	27488
814.833	27344
814.974	27275
815.115	27435
815.256	27230
815.397	27199
815.539	27268
815.68	27135
815.821	27085
815.962	27218
816.103	27123
816.244	26868
816.385	26937
816.526	26826
816.666	26678
816.807	26845
816.948	26632
817.089	26682
817.23	26708
817.371	26625
817.512	26659
817.653	26473
817.793	26606
817.934	26651
818.075	26575
818.216	26625
818.356	26640
818.497	26495
818.638	26366
818.778	26423
818.919	26514
819.06	26469
819.2	26518
819.341	26621
819.481	26602
819.622	26739
819.762	26910
819.903	26868
820.043	26830
820.184	26724
820.324	26689
820.465	26746
820.605	26686
820.746	26830
820.886	26693
821.026	26762
821.167	26727
821.307	26701
821.447	26632
821.588	26518
821.728	26507
821.868	26263
822.008	26138
822.149	26130
822.289	26195
822.429	25833
822.569	25590
822.709	25841
822.849	25639
822.99	25651
823.13	25616
823.27	25453
823.41	25422
823.55	25198
823.69	25384
823.83	25396
823.97	25320
824.11	25217
824.25	25168
824.389	25179
824.529	25362
824.669	25244
824.809	25217
824.949	25464
825.089	25266
825.228	25396
825.368	25088
825.508	25103
825.648	25133
825.787	25008
825.927	25110
826.067	25084
826.206	25034
826.346	25114
826.485	25099
826.625	25145
826.765	25057
826.904	25187
827.044	24700
827.183	24954
827.323	24810
827.462	24966
827.601	24878
827.741	24749
827.88	24760
828.02	24658
828.159	24825
828.298	24719
828.437	24848
828.577	24715
828.716	24863
828.855	24768
828.994	24585
829.134	24448
829.273	24445
829.412	24566
829.551	24437
829.69	24498
829.829	24456
829.968	24563
830.107	24540
830.246	24475
830.385	24467
830.524	24296
830.663	24277
830.802	24194
830.941	24266
831.08	24076
831.219	24038
831.357	24350
831.496	24239
831.635	24205
831.774	23992
831.913	23988
832.051	23908
832.19	23923
832.329	23916
832.467	23805
832.606	23714
832.744	23779
832.883	23817
833.022	23798
833.16	23748
833.299	23824
833.437	23760
833.576	23847
833.714	23802
833.852	23840
833.991	23859
834.129	23912
834.267	23771
834.406	23805
834.544	23767
834.682	23794
834.821	23752
834.959	23988
835.097	23817
835.235	23805
835.373	23965
835.511	23752
835.65	23585
835.788	23703
835.926	23554
836.064	23421
836.202	23581
836.34	23707
836.478	23703
836.615	23726
836.753	23558
836.891	23764
837.029	23577
837.167	23615
837.305	23585
837.443	23486
837.58	23444
837.718	23524
837.856	23490
837.993	23330
838.131	23482
838.269	23345
838.406	23372
838.544	23303
838.681	23090
838.819	23178
838.956	23102
839.094	22980
839.231	22976
839.369	23246
839.506	23284
839.643	23239
839.781	23124
839.918	22831
840.055	22927
840.193	22862
840.33	22881
840.467	22892
840.604	22892
840.742	23128
840.879	22736
841.016	22805
841.153	22752
841.29	22900
841.427	22889
841.564	22889
841.701	22763
841.838	22820
841.975	22828
842.112	22843
842.249	22755
842.385	22664
842.522	22778
842.659	22664
842.796	22653
842.933	22702
843.069	22569
843.206	22649
843.343	22611
843.479	22577
843.616	22634
843.752	22432
843.889	22402
844.025	22603
844.162	22428
844.298	22577
844.435	22459
844.571	22436
844.708	22337
844.844	22584
844.98	22634
845.117	22516
845.253	22303
845.389	22257
845.525	22287
845.661	22257
845.798	22181
845.934	22200
846.07	22173
846.206	22166
846.342	22200
846.478	22185
846.614	21987
846.75	21789
846.886	21873
847.022	21953
847.158	21975
847.294	21903
847.429	21975
847.565	21804
847.701	21987
847.837	21720
847.972	21709
848.108	21656
848.244	21675
848.379	21561
848.515	21576
848.65	21507
848.786	21511
848.921	21473
849.057	21530
849.192	21526
849.328	21473
849.463	21488
849.598	21504
849.734	21454
849.869	21355
850.004	21211
850.14	21348
850.275	21359
850.41	21188
850.545	21351
850.68	21233
850.815	21184
850.95	21252
851.085	21450
851.22	21252
851.355	21252
851.49	21195
851.625	21241
851.76	21150
851.895	21043
852.03	21165
852.165	21195
852.299	21245
852.434	21401
852.569	21351
852.703	21256
852.838	21237
852.973	21370
853.107	21329
853.242	21226
853.376	21119
853.511	20815
853.645	21047
853.78	21093
853.914	21062
854.048	21013
854.183	21100
854.317	21112
854.451	21203
854.585	21169
854.72	20952
854.854	21154
854.988	21104
855.122	21154
855.256	21032
855.39	21001
855.524	21131
855.658	21154
855.792	21051
855.926	21119
856.06	21089
856.194	21230
856.327	21077
856.461	21009
856.595	21077
856.729	20982
856.862	21211
856.996	21161
857.13	21066
857.263	21184
857.397	21142
857.53	21028
857.664	21047
857.797	21001
857.931	21272
858.064	21096
858.197	21184
858.331	21108
858.464	21032
858.597	20918
858.731	20937
858.864	21043
858.997	21005
859.13	21123
859.263	21146
859.396	21104
859.529	21112
859.662	21009
859.795	21020
859.928	21081
860.061	21363
860.194	21264
860.327	21192
860.46	21066
860.592	21157
860.725	21302
860.858	21169
860.99	21085
861.123	20925
861.256	20982
861.388	21074
861.521	21922
861.653	20876
861.786	20830
861.918	20918
862.05	20918
862.183	20921
862.315	21036
862.447	20937
862.58	21074
862.712	20815
862.844	20758
862.976	20994
863.108	20872
863.24	21116
863.372	20807
863.504	20785
863.636	20678
863.768	20815
863.9	20727
864.032	20765
864.164	20792
864.296	20765
864.428	20861
864.559	20845
864.691	20773
864.823	20864
864.954	20739
865.086	20785
865.217	20670
865.349	20530
865.48	20716
865.612	20697
865.743	20804
865.875	20724
866.006	20503
866.137	20670
866.269	20667
866.4	20629
866.531	20583
866.662	20571
866.793	20556
866.924	20606
867.055	20632
867.186	20602
867.317	20492
867.448	20457
867.579	20670
867.71	20488
867.841	20514
867.972	20514
868.103	20564
868.233	20621
868.364	20629
868.495	20667
868.625	20785
868.756	20914
868.886	20796
869.017	20849
869.147	20796
869.278	20956
869.408	20861
869.539	20899
869.669	20910
869.799	20990
869.929	20937
870.06	20937
870.19	21150
870.32	21096
870.45	21161
870.58	21279
870.71	21382
870.84	21389
870.97	21039
871.1	21287
871.23	21435
871.36	21473
871.489	21207
871.619	21492
871.749	21340
871.879	21599
872.008	21534
872.138	21481
872.267	21454
872.397	21359
872.526	21264
872.656	21344
872.785	21252
872.915	21466
873.044	21549
873.173	21374
873.303	21549
873.432	21397
873.561	21591
873.69	21523
873.819	21496
873.948	21568
874.077	21481
874.206	21511
874.335	21622
874.464	21595
874.593	21652
874.722	21709
874.851	21682
874.979	21755
875.108	21603
875.237	21682
875.365	21694
875.494	21675
875.623	21819
875.751	21679
875.88	21698
876.008	21789
876.136	21857
876.265	22067
876.393	22276
876.521	22166
876.65	22169
876.778	22059
876.906	21983
877.034	21945
877.162	22101
877.29	21998
877.418	21994
877.546	22162
877.674	21903
877.802	22036
877.93	21972
878.058	22044
878.185	21895
878.313	21975
878.441	22032
878.568	21892
878.696	21994
878.824	22131
878.951	22177
879.079	22249
879.206	22314
879.333	22192
879.461	21941
879.588	22070
879.715	22204
879.842	22363
879.97	22112
880.097	21838
880.224	21880
880.351	21949
880.478	21975
880.605	21804
880.732	21865
880.859	22226
880.986	21899
881.112	21838
881.239	21755
881.366	21641
881.493	21519
881.619	21515
881.746	21462
881.872	21462
881.999	21443
882.125	21329
882.252	21507
882.378	21462
882.505	21526
882.631	21230
882.757	21085
882.883	21287
883.01	21218
883.136	21112
883.262	20941
883.388	21062
883.514	21249
883.64	21169
883.766	21112
883.892	20750
884.018	20941
884.143	21058
884.269	21093
884.395	20792
884.52	20849
884.646	20815
884.772	20754
884.897	20727
885.023	20754
885.148	20842
885.274	20781
885.399	20906
885.524	20823
885.65	20834
885.775	20720
885.9	20739
886.025	20998
886.15	20944
886.275	20830
886.4	20804
886.525	20708
886.65	20693
886.775	20670
886.9	20845
887.025	21058
887.149	20826
887.274	20701
887.399	20526
887.523	20602
887.648	20514
887.773	20488
887.897	20579
888.021	20617
888.146	20518
888.27	20659
888.395	20617
888.519	20769
888.643	20617
888.767	20556
888.891	20537
889.015	20461
889.139	20336
889.263	20366
889.387	20438
889.511	20545
889.635	20461
889.759	20362
889.883	20282
890.006	20362
890.13	20606
890.254	20332
890.377	20355
890.501	20130
890.624	20062
890.748	20218
890.871	20001
890.995	19909
891.118	19970
891.241	19860
891.364	19944
891.488	20054
891.611	19932
891.734	19868
891.857	19845
891.98	19871
892.103	19959
892.226	20020
892.349	19898
892.471	19696
892.594	19753
892.717	19963
892.839	19898
892.962	19803
893.085	19928
893.207	19837
893.33	19658
893.452	19875
893.575	19909
893.697	19856
893.819	20084
893.941	19906
894.064	20142
894.186	19788
894.308	19704
894.43	19890
894.552	19959
894.674	19906
894.796	19868
894.918	19795
895.04	19727
895.161	20005
895.283	19868
895.405	19898
895.526	19875
895.648	19841
895.769	19811
895.891	19883
896.012	19982
896.134	19921
896.255	19769
896.376	19757
896.498	19822
896.619	19902
896.74	19936
896.861	19913
896.982	20332
897.103	20313
897.224	20069
897.345	20027
897.466	20119
897.587	19925
897.708	20111
897.828	20107
897.949	19997
898.07	19932
898.19	19940
898.311	20172
898.431	20001
898.552	20107
898.672	20164
898.792	19986
898.913	20153
899.033	19967
899.153	19917
899.273	19791
899.393	19837
899.513	19947
899.633	19791
899.753	19879
899.873	19769
899.993	19826
900.113	19765
900.232	19731
900.352	19788
900.472	19613
900.591	19601
900.711	19609
900.83	19670
900.95	19605
901.069	19658
901.189	19438
901.308	19331
901.427	19148
901.546	19152
901.665	19259
901.784	19320
901.904	19133
902.023	18916
902.141	18825
902.26	18768
902.379	18772
902.498	18798
902.617	18547
902.735	18734
902.854	18654
902.973	18696
903.091	18384
903.21	18350
903.328	18296
903.446	18216
903.565	18140
903.683	18144
903.801	18114
903.919	18167
904.038	18258
904.156	17992
904.274	18114
904.392	17969
904.51	17946
904.627	17969
904.745	18068
904.863	18022
904.981	17741
905.098	17638
905.216	17672
905.334	17608
905.451	17653
905.569	17642
905.686	17646
905.803	17695
905.921	17463
906.038	17592
906.155	17509
906.272	17299
906.389	17299
906.506	17223
906.623	17128
906.74	17166
906.857	17052
906.974	17136
907.091	17178
907.208	17284
907.324	17212
907.441	17162
907.557	16862
907.674	16904
907.79	16934
907.907	16896
908.023	16877
908.139	16862
908.256	16934
908.372	16767
908.488	16866
908.604	16596
908.72	16516
908.836	16637
908.952	16527
909.068	16569
909.184	16736
909.3	16523
909.415	16573
909.531	16538
909.647	16382
909.762	16375
909.878	16306
909.993	16341
910.108	16295
910.224	16257
910.339	16238
910.454	16200
910.57	16211
910.685	16059
910.8	16329
910.915	16367
911.03	16143
911.145	15930
911.259	15880
911.374	15911
911.489	15861
911.604	15793
911.718	15675
911.833	15656
911.947	15485
912.062	15538
912.176	15629
912.291	15679
912.405	15648
912.519	15808
912.633	15869
912.748	15690
912.862	15652
912.976	15530
913.09	15424
913.204	15462
913.318	15454
913.431	15538
913.545	15584
913.659	15523
913.772	15367
913.886	15317
914	15245
914.113	15367
914.226	15355
914.34	15370
914.453	15169
914.566	15340
914.68	15123
914.793	15184
914.906	14971
915.019	14842
915.132	14804
915.245	14895
915.358	14960
915.47	14906
915.583	14937
915.696	14979
915.809	14941
915.921	14982
916.034	14853
916.146	14864
916.259	14769
916.371	14849
916.483	14838
916.595	14727
916.708	14785
916.82	14804
916.932	14659
917.044	14636
917.156	14659
917.268	14636
917.38	14606
917.491	14530
917.603	14598
917.715	14640
917.826	14651
917.938	14495
918.049	14374
918.161	14518
918.272	14610
918.384	14651
918.495	14492
918.606	14324
918.717	14263
918.828	14298
918.939	14366
919.05	14313
919.161	14240
919.272	14084
919.383	14191
919.494	14275
919.604	14552
919.715	14381
919.826	14157
919.936	14233
920.047	14328
920.157	14294
920.267	14484
920.378	14374
920.488	14237
920.598	14514
920.708	14476
920.818	14526
920.928	14412
921.038	14488
921.148	14552
921.258	14259
921.368	14073
921.477	14058
921.587	13997
921.697	13875
921.806	14115
921.916	14008
922.025	13727
922.134	13651
922.244	13605
922.353	13738
922.462	13472
922.571	13476
922.68	13388
922.789	13339
922.898	13301
923.007	13312
923.116	13419
923.224	13289
923.333	13221
923.442	13217
923.55	13164
923.659	13206
923.767	13247
923.876	13053
923.984	13129
924.092	13069
924.201	13107
924.309	13099
924.417	13126
924.525	12993
924.633	12996
924.741	13780
924.849	12768
924.956	13034
925.064	12840
925.172	12779
925.279	12783
925.387	12779
925.494	12707
925.602	12894
925.709	12798
925.816	12620
925.924	12726
926.031	12700
926.138	12745
926.245	12669
926.352	12574
926.459	12730
926.566	12764
926.673	12669
926.779	12483
926.886	12509
926.993	12464
927.099	12311
927.206	12308
927.312	12338
927.419	12300
927.525	12334
927.631	12330
927.737	12213
927.843	12277
927.95	12053
928.056	12098
928.162	12129
928.267	12251
928.373	12802
928.479	12304
928.585	12007
928.69	12121
928.796	12178
928.901	12034
929.007	11916
929.112	11980
929.218	11942
929.323	11999
929.428	11798
929.533	12034
929.638	11916
929.743	11889
929.848	11775
929.953	11828
930.058	11733
930.163	11600
930.267	11573
930.372	11695
930.477	11520
930.581	11859
930.685	11634
930.79	11433
930.894	11463
930.998	11505
931.103	11547
931.207	11178
931.311	11155
931.415	11048
931.519	10900
931.623	10782
