Data from test_V78500241_2612.txt Node
Date: Fri Mar 25 15:28:02 CST 2022
User: usil
Spectrometer: V785-0024
Trigger mode: 0
Integration Time (sec): 4.000000E-1
Scans to average: 1
Nonlinearity correction enabled: false
Boxcar width: 0
Storing dark spectrum: false
XAxis mode: Wavelengths
Number of Pixels in Spectrum: 1024
>>>>>Begin Spectral Data<<<<<
801.071	27195
801.214	27222
801.356	26868
801.499	26849
801.641	26792
801.783	26613
801.926	26602
802.068	26636
802.211	26644
802.353	26552
802.496	26400
802.638	26286
802.78	26286
802.923	26366
803.065	26282
803.208	26183
803.35	26415
803.492	26408
803.635	26583
803.777	26404
803.919	26480
804.061	26853
804.204	26598
804.346	26495
804.488	26229
804.63	26415
804.773	26469
804.915	26541
805.057	26450
805.199	26328
805.341	26492
805.483	26746
805.626	26526
805.768	26583
805.91	26575
806.052	26663
806.194	26545
806.336	26781
806.478	26609
806.62	26511
806.762	26659
806.904	26918
807.046	27001
807.188	26982
807.33	26960
807.472	26940
807.614	27032
807.756	26937
807.898	26758
808.04	26830
808.182	26720
808.324	26910
808.465	26986
808.607	27127
808.749	27077
808.891	27241
809.033	27348
809.174	27024
809.316	27157
809.458	27135
809.6	27192
809.741	27233
809.883	27420
810.025	27561
810.166	27370
810.308	27408
810.45	27382
810.591	27397
810.733	27184
810.875	27192
811.016	26872
811.158	27104
811.299	27252
811.441	27264
811.582	27431
811.724	27173
811.865	27180
812.007	27119
812.148	27051
812.29	27138
812.431	27416
812.573	27534
812.714	27599
812.855	27736
812.997	27743
813.138	28010
813.279	27747
813.421	27766
813.562	27618
813.703	27378
813.845	27321
813.986	27024
814.127	26754
814.268	26918
814.41	26952
814.551	26762
814.692	26982
814.833	26796
814.974	26807
815.115	26765
815.256	26674
815.397	26625
815.539	26648
815.68	26594
815.821	26415
815.962	26545
816.103	26571
816.244	26549
816.385	26377
816.526	26233
816.666	26301
816.807	25875
816.948	26233
817.089	26221
817.23	26065
817.371	26046
817.512	26043
817.653	26191
817.793	26130
817.934	26031
818.075	26111
818.216	26058
818.356	25925
818.497	25890
818.638	25738
818.778	25784
818.919	25795
819.06	25875
819.2	25978
819.341	26050
819.481	26084
819.622	26298
819.762	26518
819.903	26195
820.043	26263
820.184	26210
820.324	26115
820.465	26229
820.605	26229
820.746	26149
820.886	26062
821.026	26119
821.167	26218
821.307	26183
821.447	26107
821.588	25936
821.728	25928
821.868	25807
822.008	25655
822.149	25685
822.289	25548
822.429	25339
822.569	25244
822.709	25179
822.849	25000
822.99	25050
823.13	25072
823.27	24943
823.41	24882
823.55	24798
823.69	25080
823.83	24894
823.97	24810
824.11	24661
824.25	24646
824.389	24719
824.529	24852
824.669	24783
824.809	24772
824.949	24703
825.089	24852
825.228	24696
825.368	24616
825.508	24566
825.648	24509
825.787	24547
825.927	24654
826.067	24608
826.206	24700
826.346	24559
826.485	24627
826.625	24597
826.765	24669
826.904	24665
827.044	24258
827.183	24232
827.323	24235
827.462	24479
827.601	24308
827.741	24251
827.88	24220
828.02	24076
828.159	24254
828.298	24407
828.437	24372
828.577	24201
828.716	24323
828.855	24171
828.994	24053
829.134	23942
829.273	24038
829.412	24026
829.551	23920
829.69	23935
829.829	24018
829.968	24095
830.107	24022
830.246	23992
830.385	23996
830.524	23920
830.663	23786
830.802	23714
830.941	23642
831.08	23646
831.219	23809
831.357	23676
831.496	23832
831.635	23551
831.774	23661
831.913	23421
832.051	23410
832.19	23288
832.329	23356
832.467	23368
832.606	23113
832.744	23250
832.883	23296
833.022	23223
833.16	23334
833.299	23277
833.437	23364
833.576	23402
833.714	23341
833.852	23368
833.991	23471
834.129	23471
834.267	23444
834.406	23258
834.544	23398
834.682	23242
834.821	23402
834.959	23524
835.097	23280
835.235	23288
835.373	23273
835.511	23311
835.65	23197
835.788	23136
835.926	23143
836.064	22949
836.202	22995
836.34	23273
836.478	23315
836.615	23140
836.753	23174
836.891	23280
837.029	23102
837.167	23098
837.305	23064
837.443	23083
837.58	22927
837.718	23151
837.856	23056
837.993	23109
838.131	23064
838.269	22900
838.406	22968
838.544	22911
838.681	22740
838.819	22675
838.956	22531
839.094	22474
839.231	22584
839.369	22717
839.506	22980
839.643	22755
839.781	22596
839.918	22436
840.055	22504
840.193	22440
840.33	22466
840.467	22413
840.604	22542
840.742	22687
840.879	22432
841.016	22398
841.153	22390
841.29	22653
841.427	22535
841.564	22375
841.701	22535
841.838	22352
841.975	22341
842.112	22375
842.249	22352
842.385	22310
842.522	22436
842.659	22375
842.796	22291
842.933	22303
843.069	22150
843.206	22158
843.343	22329
843.479	22306
843.616	22242
843.752	22055
843.889	21930
844.025	22070
844.162	22006
844.298	22131
844.435	22101
844.571	21941
844.708	21972
844.844	22166
844.98	22162
845.117	22017
845.253	21968
845.389	21732
845.525	21899
845.661	21808
845.798	21785
845.934	21766
846.07	21751
846.206	21854
846.342	21876
846.478	21675
846.614	21557
846.75	21420
846.886	21386
847.022	21561
847.158	21633
847.294	21447
847.429	21485
847.565	21500
847.701	21698
847.837	21268
847.972	21165
848.108	21340
848.244	21226
848.379	21096
848.515	21112
848.65	20948
848.786	21055
848.921	21135
849.057	21116
849.192	21066
849.328	21043
849.463	20971
849.598	20975
849.734	20933
849.869	20918
850.004	20804
850.14	20830
850.275	20807
850.41	20678
850.545	20773
850.68	20823
850.815	20929
850.95	20720
851.085	20937
851.22	20975
851.355	20864
851.49	20815
851.625	20750
851.76	20842
851.895	20842
852.03	20739
852.165	20857
852.299	20891
852.434	20979
852.569	20906
852.703	20796
852.838	20906
852.973	20948
853.107	20990
853.242	20807
853.376	20640
853.511	20492
853.645	20686
853.78	20644
853.914	20583
854.048	20636
854.183	20587
854.317	20682
854.451	20754
854.585	20682
854.72	20629
854.854	20724
854.988	20617
855.122	20636
855.256	20606
855.39	20678
855.524	20701
855.658	20682
855.792	20705
855.926	20583
856.06	20632
856.194	20712
856.327	20644
856.461	20568
856.595	20560
856.729	20640
856.862	20769
856.996	20648
857.13	20636
857.263	20815
857.397	20762
857.53	20655
857.664	20693
857.797	20773
857.931	20743
858.064	20579
858.197	20872
858.331	20640
858.464	20613
858.597	20541
858.731	20579
858.864	20640
858.997	20636
859.13	20670
859.263	20632
859.396	20842
859.529	20583
859.662	20598
859.795	20636
859.928	20670
860.061	20754
860.194	20887
860.327	20769
860.46	20686
860.592	20800
860.725	20781
860.858	20785
860.99	20697
861.123	20518
861.256	20609
861.388	20606
861.521	21302
861.653	20442
861.786	20499
861.918	20609
862.05	20629
862.183	20530
862.315	20579
862.447	20693
862.58	20522
862.712	20393
862.844	20301
862.976	20446
863.108	20446
863.24	20975
863.372	20256
863.504	20347
863.636	20305
863.768	20454
863.9	20442
864.032	20309
864.164	20218
864.296	20412
864.428	20541
864.559	20442
864.691	20457
864.823	20298
864.954	20408
865.086	20454
865.217	20282
865.349	20168
865.48	20195
865.612	20237
865.743	20469
865.875	20183
866.006	20244
866.137	20294
866.269	20343
866.4	20248
866.531	20294
866.662	20062
866.793	20214
866.924	20225
867.055	20259
867.186	20187
867.317	20210
867.448	20176
867.579	20244
867.71	20111
867.841	20187
867.972	20263
868.103	20298
868.233	20267
868.364	20252
868.495	20404
868.625	20530
868.756	20648
868.886	20457
869.017	20389
869.147	20613
869.278	20446
869.408	20522
869.539	20423
869.669	20606
869.799	20533
869.929	20651
870.06	20492
870.19	20743
870.32	20663
870.45	20838
870.58	20842
870.71	20857
870.84	20948
870.97	20902
871.1	20811
871.23	20971
871.36	21005
871.489	20929
871.619	21028
871.749	21047
871.879	21089
872.008	21119
872.138	20998
872.267	21154
872.397	20967
872.526	20906
872.656	20986
872.785	20845
872.915	21123
873.044	21237
873.173	21077
873.303	21070
873.432	21161
873.561	21252
873.69	21047
873.819	21104
873.948	21096
874.077	21039
874.206	21028
874.335	21123
874.464	21214
874.593	21351
874.722	21279
874.851	21298
874.979	21294
875.108	21378
875.237	21237
875.365	21272
875.494	21233
875.623	21367
875.751	21332
875.88	21416
876.008	21359
876.136	21637
876.265	21682
876.393	21766
876.521	21816
876.65	21857
876.778	21724
876.906	21538
877.034	21663
877.162	21690
877.29	21557
877.418	21720
877.546	21580
877.674	21595
877.802	21698
877.93	21656
878.058	21534
878.185	21538
878.313	21614
878.441	21698
878.568	21431
878.696	21553
878.824	21675
878.951	21937
879.079	21873
879.206	22036
879.333	21808
879.461	21606
879.588	21793
879.715	21785
879.842	21956
879.97	21789
880.097	21545
880.224	21469
880.351	21557
880.478	21591
880.605	21500
880.732	21523
880.859	21625
880.986	21351
881.112	21534
881.239	21363
881.366	21370
881.493	21192
881.619	21055
881.746	21089
881.872	21154
881.999	21058
882.125	21066
882.252	21199
882.378	20979
882.505	21195
882.631	21005
882.757	20842
882.883	20864
883.01	20838
883.136	20727
883.262	20667
883.388	20598
883.514	20857
883.64	20830
883.766	20697
883.892	20625
884.018	20579
884.143	20727
884.269	20830
884.395	20492
884.52	20533
884.646	20450
884.772	20537
884.897	20256
885.023	20454
885.148	20442
885.274	20571
885.399	20644
885.524	20514
885.65	20415
885.775	20419
885.9	20427
886.025	20629
886.15	20480
886.275	20381
886.4	20271
886.525	20434
886.65	20366
886.775	20275
886.9	20545
887.025	20571
887.149	20385
887.274	20252
887.399	20126
887.523	20221
887.648	20172
887.773	20149
887.897	20199
888.021	20328
888.146	20164
888.27	20298
888.395	20233
888.519	20259
888.643	20298
888.767	20210
888.891	20122
889.015	20119
889.139	20100
889.263	20039
889.387	20096
889.511	20206
889.635	20122
889.759	20088
889.883	19944
890.006	20024
890.13	20225
890.254	19890
890.377	19909
890.501	19841
890.624	19791
890.748	19845
890.871	19746
890.995	19655
891.118	19449
891.241	19632
891.364	19537
891.488	19700
891.611	19624
891.734	19693
891.857	19704
891.98	19544
892.103	19620
892.226	19616
892.349	19601
892.471	19468
892.594	19438
892.717	19518
892.839	19525
892.962	19521
893.085	19567
893.207	19457
893.33	19415
893.452	19343
893.575	19483
893.697	19495
893.819	19719
893.941	19734
894.064	19689
894.186	19407
894.308	19483
894.43	19643
894.552	19582
894.674	19605
894.796	19582
894.918	19594
895.04	19453
895.161	19651
895.283	19563
895.405	19388
895.526	19491
895.648	19537
895.769	19632
895.891	19559
896.012	19556
896.134	19578
896.255	19422
896.376	19529
896.498	19620
896.619	19639
896.74	19487
896.861	19624
896.982	19883
897.103	20005
897.224	19772
897.345	19818
897.466	19712
897.587	19719
897.708	19849
897.828	19875
897.949	19769
898.07	19438
898.19	19655
898.311	19875
898.431	19651
898.552	19723
898.672	19772
898.792	19841
898.913	19780
899.033	19708
899.153	19571
899.273	19411
899.393	19480
899.513	19651
899.633	19441
899.753	19506
899.873	19483
899.993	19529
900.113	19411
900.232	19472
900.352	19411
900.472	19499
900.591	19274
900.711	19312
900.83	19228
900.95	19289
901.069	19312
901.189	19114
901.308	18958
901.427	18863
901.546	18878
901.665	18947
901.784	18935
901.904	18722
902.023	18776
902.141	18460
902.26	18342
902.379	18410
902.498	18467
902.617	18506
902.735	18399
902.854	18391
902.973	18410
903.091	18098
903.21	18152
903.328	18068
903.446	17977
903.565	17874
903.683	17908
903.801	17821
903.919	17817
904.038	17927
904.156	17642
904.274	17722
904.392	17577
904.51	17703
904.627	17684
904.745	17665
904.863	17718
904.981	17471
905.098	17376
905.216	17383
905.334	17353
905.451	17429
905.569	17296
905.686	17372
905.803	17318
905.921	17117
906.038	17193
906.155	17136
906.272	17132
906.389	17018
906.506	16904
906.623	16828
906.74	16843
906.857	16782
906.974	16771
907.091	16911
907.208	17003
907.324	16908
907.441	16812
907.557	16656
907.674	16645
907.79	16550
907.907	16611
908.023	16691
908.139	16641
908.256	16561
908.372	16440
908.488	16451
908.604	16367
908.72	16314
908.836	16455
908.952	16265
909.068	16337
909.184	16424
909.3	16303
909.415	16272
909.531	16337
909.647	16063
909.762	16162
909.878	15998
909.993	16093
910.108	16006
910.224	16029
910.339	16010
910.454	15854
910.57	15892
910.685	15701
910.8	16097
910.915	16048
911.03	15831
911.145	15751
911.259	15698
911.374	15717
911.489	15568
911.604	15545
911.718	15412
911.833	15469
911.947	15389
912.062	15298
912.176	15447
912.291	15523
912.405	15530
912.519	15618
912.633	15614
912.748	15382
912.862	15382
912.976	15313
913.09	15161
913.204	15116
913.318	15127
913.431	15287
913.545	15310
913.659	15188
913.772	15123
913.886	15066
914	14937
914.113	15039
914.226	15146
914.34	15009
914.453	14902
914.566	15112
914.68	14910
914.793	14815
914.906	14636
915.019	14579
915.132	14488
915.245	14606
915.358	14598
915.47	14640
915.583	14583
915.696	14636
915.809	14670
915.921	14640
916.034	14689
916.146	14530
916.259	14579
916.371	14617
916.483	14556
916.595	14431
916.708	14465
916.82	14514
916.932	14438
917.044	14389
917.156	14473
917.268	14286
917.38	14305
917.491	14309
917.603	14343
917.715	14320
917.826	14282
917.938	14267
918.049	14084
918.161	14298
918.272	14431
918.384	14396
918.495	14229
918.606	14123
918.717	14050
918.828	14115
918.939	14035
919.05	14027
919.161	14096
919.272	13833
919.383	13940
919.494	14191
919.604	14256
919.715	14142
919.826	13997
919.936	13959
920.047	14107
920.157	14001
920.267	14214
920.378	14103
920.488	14039
920.598	14138
920.708	14351
920.818	14187
920.928	14195
921.038	14332
921.148	14362
921.258	14073
921.368	13879
921.477	13849
921.587	13822
921.697	13765
921.806	13856
921.916	13689
922.025	13556
922.134	13434
922.244	13457
922.353	13514
922.462	13297
922.571	13384
922.68	13145
922.789	13072
922.898	13129
923.007	13084
923.116	13061
923.224	13080
923.333	13076
923.442	12947
923.55	12825
923.659	12970
923.767	12996
923.876	12920
923.984	12973
924.092	12909
924.201	12924
924.309	12844
924.417	12875
924.525	12795
924.633	12772
924.741	13662
924.849	12654
924.956	12681
925.064	12582
925.172	12456
925.279	12532
925.387	12513
925.494	12540
925.602	12635
925.709	12547
925.816	12486
925.924	12399
926.031	12563
926.138	12506
926.245	12604
926.352	12334
926.459	12540
926.566	12604
926.673	12410
926.779	12262
926.886	12292
926.993	12136
927.099	12034
927.206	12068
927.312	12102
927.419	12098
927.525	12129
927.631	12197
927.737	11980
927.843	12019
927.95	11809
928.056	11916
928.162	11992
928.267	11965
928.373	12521
928.479	12060
928.585	11802
928.69	11980
928.796	11992
928.901	11836
929.007	11665
929.112	11870
929.218	11733
929.323	11745
929.428	11665
929.533	11790
929.638	11684
929.743	11688
929.848	11676
929.953	11760
930.058	11478
930.163	11433
930.267	11334
930.372	11539
930.477	11414
930.581	11539
930.685	11459
930.79	11318
930.894	11254
930.998	11231
931.103	11337
931.207	11025
931.311	10957
931.415	10881
931.519	10645
931.623	10565
