Data from test_V78500241_1379.txt Node
Date: Fri Mar 25 15:19:27 CST 2022
User: usil
Spectrometer: V785-0024
Trigger mode: 0
Integration Time (sec): 4.000000E-1
Scans to average: 1
Nonlinearity correction enabled: false
Boxcar width: 0
Storing dark spectrum: false
XAxis mode: Wavelengths
Number of Pixels in Spectrum: 1024
>>>>>Begin Spectral Data<<<<<
801.071	28128
801.214	28169
801.356	27804
801.499	27770
801.641	27637
801.783	27603
801.926	27648
802.068	27762
802.211	27526
802.353	27485
802.496	27336
802.638	27344
802.78	27279
802.923	27313
803.065	27233
803.208	27310
803.35	27389
803.492	27538
803.635	27435
803.777	27340
803.919	27469
804.061	27827
804.204	27739
804.346	27412
804.488	27435
804.63	27511
804.773	27382
804.915	27561
805.057	27698
805.199	27492
805.341	27717
805.483	27876
805.626	27823
805.768	27622
805.91	27622
806.052	27736
806.194	27568
806.336	27892
806.478	27652
806.62	27675
806.762	27781
806.904	27998
807.046	28204
807.188	28040
807.33	28036
807.472	28105
807.614	28105
807.756	28211
807.898	27926
808.04	27835
808.182	27918
808.324	28074
808.465	27934
808.607	28242
808.749	28322
808.891	28421
809.033	28493
809.174	28466
809.316	28223
809.458	28306
809.6	28291
809.741	28337
809.883	28421
810.025	28588
810.166	28672
810.308	28603
810.45	28603
810.591	28497
810.733	28485
810.875	28341
811.016	28101
811.158	28272
811.299	28405
811.441	28390
811.582	28424
811.724	28379
811.865	28394
812.007	28303
812.148	28413
812.29	28363
812.431	28573
812.573	28744
812.714	28717
812.855	28911
812.997	28930
813.138	29052
813.279	29162
813.421	29022
813.562	28847
813.703	28729
813.845	28630
813.986	28356
814.127	28158
814.268	27987
814.41	28055
814.551	28006
814.692	28112
814.833	27991
814.974	28029
815.115	28196
815.256	27903
815.397	27888
815.539	27930
815.68	27812
815.821	27686
815.962	27766
816.103	27895
816.244	27785
816.385	27732
816.526	27694
816.666	27492
816.807	27348
816.948	27424
817.089	27454
817.23	27378
817.371	27184
817.512	27336
817.653	27412
817.793	27230
817.934	27363
818.075	27264
818.216	27363
818.356	27218
818.497	27207
818.638	27180
818.778	27081
818.919	27119
819.06	27192
819.2	27104
819.341	27378
819.481	27260
819.622	27515
819.762	27667
819.903	27625
820.043	27553
820.184	27530
820.324	27545
820.465	27637
820.605	27351
820.746	27488
820.886	27389
821.026	27488
821.167	27348
821.307	27561
821.447	27397
821.588	27363
821.728	27055
821.868	26842
822.008	26762
822.149	26857
822.289	26815
822.429	26473
822.569	26450
822.709	26461
822.849	26419
822.99	26434
823.13	26199
823.27	26339
823.41	26183
823.55	26020
823.69	26138
823.83	26092
823.97	26111
824.11	25947
824.25	25837
824.389	25970
824.529	26062
824.669	26008
824.809	26088
824.949	26039
825.089	26122
825.228	26115
825.368	25864
825.508	25811
825.648	25890
825.787	25928
825.927	25917
826.067	25845
826.206	25944
826.346	25852
826.485	25841
826.625	25807
826.765	25974
826.904	25769
827.044	25559
827.183	25658
827.323	25460
827.462	25483
827.601	25605
827.741	25529
827.88	25613
828.02	25464
828.159	25514
828.298	25620
828.437	25590
828.577	25529
828.716	25689
828.855	25616
828.994	25198
829.134	25209
829.273	25324
829.412	25221
829.551	25110
829.69	25354
829.829	25304
829.968	25506
830.107	25327
830.246	25107
830.385	25175
830.524	25145
830.663	25057
830.802	25050
830.941	24798
831.08	24787
831.219	24924
831.357	24825
831.496	25004
831.635	24817
831.774	24719
831.913	24806
832.051	24688
832.19	24509
832.329	24760
832.467	24597
832.606	24395
832.744	24635
832.883	24547
833.022	24650
833.16	24642
833.299	24654
833.437	24631
833.576	24760
833.714	24532
833.852	24513
833.991	24528
834.129	24616
834.267	24738
834.406	24601
834.544	24616
834.682	24650
834.821	24540
834.959	24700
835.097	24574
835.235	24673
835.373	24551
835.511	24555
835.65	24479
835.788	24517
835.926	24273
836.064	24285
836.202	24410
836.34	24464
836.478	24566
836.615	24361
836.753	24361
836.891	24620
837.029	24464
837.167	24448
837.305	24365
837.443	24251
837.58	24266
837.718	24178
837.856	24334
837.993	24140
838.131	24262
838.269	24133
838.406	24262
838.544	24026
838.681	23904
838.819	23790
838.956	23596
839.094	23771
839.231	23779
839.369	23878
839.506	24098
839.643	23927
839.781	23752
839.918	23680
840.055	23779
840.193	23665
840.33	23665
840.467	23695
840.604	23585
840.742	23866
840.879	23383
841.016	23596
841.153	23611
841.29	23767
841.427	23570
841.564	23474
841.701	23638
841.838	23528
841.975	23440
842.112	23455
842.249	23376
842.385	23391
842.522	23676
842.659	23452
842.796	23463
842.933	23436
843.069	23391
843.206	23299
843.343	23341
843.479	23376
843.616	23429
843.752	23200
843.889	23178
844.025	23277
844.162	23159
844.298	23235
844.435	23284
844.571	23136
844.708	23261
844.844	23330
844.98	23246
845.117	23269
845.253	23056
845.389	23170
845.525	23044
845.661	22877
845.798	22881
845.934	22923
846.07	22809
846.206	22862
846.342	23117
846.478	22805
846.614	22748
846.75	22637
846.886	22523
847.022	22649
847.158	22573
847.294	22630
847.429	22596
847.565	22497
847.701	22805
847.837	22436
847.972	22230
848.108	22344
848.244	22443
848.379	22333
848.515	22310
848.65	22257
848.786	22253
848.921	22272
849.057	22348
849.192	22173
849.328	22261
849.463	22109
849.598	22173
849.734	22097
849.869	22078
850.004	21945
850.14	22074
850.275	21991
850.41	21994
850.545	21865
850.68	21991
850.815	21949
850.95	22040
851.085	22150
851.22	22158
851.355	22002
851.49	21983
851.625	21876
851.76	21945
851.895	21869
852.03	21869
852.165	22070
852.299	21983
852.434	22055
852.569	22051
852.703	21972
852.838	21876
852.973	22086
853.107	22124
853.242	21945
853.376	21857
853.511	21625
853.645	21698
853.78	21956
853.914	21766
854.048	21713
854.183	21743
854.317	21838
854.451	22044
854.585	21861
854.72	21762
854.854	21960
854.988	21736
855.122	21850
855.256	21652
855.39	21739
855.524	21949
855.658	21808
855.792	21793
855.926	21907
856.06	21831
856.194	21770
856.327	21785
856.461	21762
856.595	21797
856.729	21774
856.862	21800
856.996	21698
857.13	21907
857.263	21831
857.397	21983
857.53	21819
857.664	21728
857.797	21835
857.931	21983
858.064	21808
858.197	21816
858.331	21797
858.464	21682
858.597	21819
858.731	21732
858.864	21759
858.997	21720
859.13	21831
859.263	21789
859.396	21793
859.529	21835
859.662	21797
859.795	21785
859.928	21705
860.061	22063
860.194	21930
860.327	21842
860.46	21953
860.592	21823
860.725	21926
860.858	21873
860.99	21880
861.123	21686
861.256	21713
861.388	21827
861.521	22538
861.653	21679
861.786	21496
861.918	21587
862.05	21656
862.183	21675
862.315	21690
862.447	21850
862.58	21793
862.712	21477
862.844	21424
862.976	21587
863.108	21606
863.24	21861
863.372	21443
863.504	21458
863.636	21355
863.768	21469
863.9	21526
864.032	21363
864.164	21568
864.296	21648
864.428	21534
864.559	21507
864.691	21564
864.823	21370
864.954	21481
865.086	21534
865.217	21389
865.349	21401
865.48	21454
865.612	21275
865.743	21564
865.875	21351
866.006	21401
866.137	21363
866.269	21389
866.4	21439
866.531	21310
866.662	21416
866.793	21214
866.924	21401
867.055	21317
867.186	21302
867.317	21294
867.448	21184
867.579	21169
867.71	21207
867.841	21298
867.972	21317
868.103	21329
868.233	21370
868.364	21275
868.495	21435
868.625	21568
868.756	21663
868.886	21488
869.017	21466
869.147	21595
869.278	21705
869.408	21561
869.539	21583
869.669	21690
869.799	21564
869.929	21686
870.06	21656
870.19	21873
870.32	21781
870.45	21854
870.58	21937
870.71	22105
870.84	21994
870.97	22097
871.1	22013
871.23	22147
871.36	22120
871.489	22169
871.619	22090
871.749	22154
871.879	22139
872.008	22131
872.138	22093
872.267	22048
872.397	22086
872.526	22002
872.656	22082
872.785	22032
872.915	22082
873.044	22287
873.173	22207
873.303	22207
873.432	22143
873.561	22356
873.69	22131
873.819	22059
873.948	22173
874.077	22341
874.206	22158
874.335	22150
874.464	22314
874.593	22367
874.722	22314
874.851	22276
874.979	22405
875.108	22531
875.237	22310
875.365	22352
875.494	22375
875.623	22341
875.751	22356
875.88	22440
876.008	22508
876.136	22611
876.265	22847
876.393	22892
876.521	22972
876.65	22805
876.778	22645
876.906	22725
877.034	22736
877.162	22847
877.29	22649
877.418	22752
877.546	22805
877.674	22630
877.802	22611
877.93	22710
878.058	22672
878.185	22561
878.313	22557
878.441	22672
878.568	22603
878.696	22744
878.824	22797
878.951	22752
879.079	22831
879.206	23029
879.333	22858
879.461	22733
879.588	22698
879.715	22812
879.842	22995
879.97	22767
880.097	22569
880.224	22527
880.351	22584
880.478	22702
880.605	22470
880.732	22535
880.859	22778
880.986	22432
881.112	22417
881.239	22325
881.366	22177
881.493	22166
881.619	22078
881.746	22215
881.872	22082
881.999	22097
882.125	22131
882.252	22150
882.378	22036
882.505	22185
882.631	21911
882.757	21831
882.883	21907
883.01	21751
883.136	21671
883.262	21614
883.388	21675
883.514	21762
883.64	21892
883.766	21667
883.892	21549
884.018	21576
884.143	21846
884.269	21880
884.395	21526
884.52	21329
884.646	21534
884.772	21351
884.897	21336
885.023	21485
885.148	21553
885.274	21439
885.399	21633
885.524	21466
885.65	21481
885.775	21542
885.9	21511
886.025	21519
886.15	21538
886.275	21359
886.4	21336
886.525	21542
886.65	21359
886.775	21340
886.9	21534
887.025	21618
887.149	21374
887.274	21214
887.399	21173
887.523	21142
887.648	21157
887.773	21100
887.897	21389
888.021	21233
888.146	21100
888.27	21268
888.395	21154
888.519	21389
888.643	21142
888.767	21199
888.891	21036
889.015	20986
889.139	21074
889.263	20982
889.387	21112
889.511	21123
889.635	21108
889.759	21001
889.883	21017
890.006	20933
890.13	21077
890.254	20994
890.377	20899
890.501	20659
890.624	20655
890.748	20899
890.871	20731
890.995	20476
891.118	20514
891.241	20590
891.364	20712
891.488	20712
891.611	20530
891.734	20571
891.857	20625
891.98	20545
892.103	20602
892.226	20469
892.349	20587
892.471	20355
892.594	20530
892.717	20507
892.839	20427
892.962	20381
893.085	20571
893.207	20484
893.33	20362
893.452	20511
893.575	20457
893.697	20530
893.819	20621
893.941	20693
894.064	20507
894.186	20438
894.308	20343
894.43	20556
894.552	20503
894.674	20366
894.796	20393
894.918	20457
895.04	20537
895.161	20381
895.283	20476
895.405	20457
895.526	20408
895.648	20488
895.769	20431
895.891	20408
896.012	20549
896.134	20457
896.255	20454
896.376	20248
896.498	20507
896.619	20434
896.74	20415
896.861	20522
896.982	20632
897.103	20963
897.224	20609
897.345	20724
897.466	20533
897.587	20750
897.708	20785
897.828	20754
897.949	20476
898.07	20541
898.19	20541
898.311	20674
898.431	20571
898.552	20606
898.672	20712
898.792	20705
898.913	20552
899.033	20594
899.153	20583
899.273	20263
899.393	20518
899.513	20442
899.633	20393
899.753	20332
899.873	20233
899.993	20358
900.113	20301
900.232	20355
900.352	20347
900.472	20275
900.591	20069
900.711	20142
900.83	20103
900.95	20244
901.069	20328
901.189	20092
901.308	19845
901.427	19799
901.546	19769
901.665	19727
901.784	19753
901.904	19582
902.023	19506
902.141	19381
902.26	19289
902.379	19400
902.498	19384
902.617	19316
902.735	19350
902.854	19240
902.973	19069
903.091	18977
903.21	18928
903.328	18989
903.446	18837
903.565	18802
903.683	18741
903.801	18498
903.919	18673
904.038	18623
904.156	18559
904.274	18540
904.392	18502
904.51	18525
904.627	18486
904.745	18547
904.863	18540
904.981	18323
905.098	18190
905.216	18178
905.334	18133
905.451	18216
905.569	18106
905.686	18228
905.803	18144
905.921	18045
906.038	18034
906.155	17923
906.272	17942
906.389	17836
906.506	17794
906.623	17802
906.74	17592
906.857	17615
906.974	17661
907.091	17703
907.208	17828
907.324	17722
907.441	17596
907.557	17440
907.674	17391
907.79	17364
907.907	17410
908.023	17429
908.139	17395
908.256	17372
908.372	17353
908.488	17246
908.604	17128
908.72	17109
908.836	17208
908.952	17041
909.068	17212
909.184	17242
909.3	17109
909.415	17216
909.531	17193
909.647	16965
909.762	16801
909.878	16877
909.993	16892
910.108	16816
910.224	16816
910.339	16889
910.454	16664
910.57	16580
910.685	16634
910.8	16984
910.915	16805
911.03	16668
911.145	16493
911.259	16512
911.374	16466
911.489	16303
911.604	16272
911.718	16112
911.833	16215
911.947	16086
912.062	15934
912.176	16067
912.291	16162
912.405	16154
912.519	16200
912.633	16348
912.748	16284
912.862	16169
912.976	16032
913.09	15869
913.204	15991
913.318	15949
913.431	16067
913.545	16017
913.659	16044
913.772	15949
913.886	15819
914	15698
914.113	15873
914.226	15797
914.34	15838
914.453	15656
914.566	15835
914.68	15542
914.793	15622
914.906	15443
915.019	15485
915.132	15351
915.245	15412
915.358	15397
915.47	15226
915.583	15344
915.696	15363
915.809	15530
915.921	15466
916.034	15332
916.146	15272
916.259	15192
916.371	15230
916.483	15389
916.595	15165
916.708	15283
916.82	15218
916.932	15237
917.044	15169
917.156	15211
917.268	15058
917.38	14906
917.491	14990
917.603	14998
917.715	15074
917.826	14990
917.938	14979
918.049	14876
918.161	14891
918.272	15127
918.384	14971
918.495	14994
918.606	14815
918.717	14682
918.828	14727
918.939	14853
919.05	14731
919.161	14686
919.272	14549
919.383	14617
919.494	14811
919.604	14921
919.715	14785
919.826	14693
919.936	14739
920.047	14853
920.157	14819
920.267	14864
920.378	14773
920.488	14621
920.598	14845
920.708	15001
920.818	14872
920.928	14811
921.038	14918
921.148	15017
921.258	14758
921.368	14564
921.477	14412
921.587	14427
921.697	14336
921.806	14457
921.916	14370
922.025	14138
922.134	14077
922.244	14027
922.353	14088
922.462	14069
922.571	13822
922.68	13750
922.789	13757
922.898	13708
923.007	13696
923.116	13761
923.224	13807
923.333	13693
923.442	13571
923.55	13537
923.659	13613
923.767	13632
923.876	13540
923.984	13575
924.092	13480
924.201	13518
924.309	13525
924.417	13514
924.525	13400
924.633	13381
924.741	14130
924.849	13206
924.956	13301
925.064	13198
925.172	13034
925.279	13236
925.387	13202
925.494	13133
925.602	13259
925.709	13126
925.816	13034
925.924	13103
926.031	13103
926.138	13008
926.245	13110
926.352	13019
926.459	13019
926.566	13084
926.673	12939
926.779	12890
926.886	12875
926.993	12654
927.099	12692
927.206	12639
927.312	12662
927.419	12738
927.525	12608
927.631	12688
927.737	12578
927.843	12547
927.95	12437
928.056	12513
928.162	12525
928.267	12540
928.373	13137
928.479	12593
928.585	12437
928.69	12429
928.796	12490
928.901	12471
929.007	12194
929.112	12422
929.218	12353
929.323	12251
929.428	12167
929.533	12384
929.638	12133
929.743	12129
929.848	12281
929.953	12148
930.058	12083
930.163	11870
930.267	11973
930.372	11961
930.477	11878
930.581	12110
930.685	11980
930.79	11866
930.894	11824
930.998	11695
931.103	11935
931.207	11471
931.311	11520
931.415	11318
931.519	11178
931.623	11136
