Data from test_V78500241_3198.txt Node
Date: Fri Mar 25 15:32:07 CST 2022
User: usil
Spectrometer: V785-0024
Trigger mode: 0
Integration Time (sec): 4.000000E-1
Scans to average: 1
Nonlinearity correction enabled: false
Boxcar width: 0
Storing dark spectrum: false
XAxis mode: Wavelengths
Number of Pixels in Spectrum: 1024
>>>>>Begin Spectral Data<<<<<
801.071	26948
801.214	26960
801.356	26727
801.499	26499
801.641	26400
801.783	26389
801.926	26484
802.068	26575
802.211	26476
802.353	26438
802.496	26286
802.638	26005
802.78	26069
802.923	26035
803.065	25921
803.208	26008
803.35	26100
803.492	26214
803.635	26415
803.777	26199
803.919	26381
804.061	26587
804.204	26271
804.346	26134
804.488	26077
804.63	26240
804.773	26195
804.915	26301
805.057	26427
805.199	26301
805.341	26404
805.483	26381
805.626	26389
805.768	26244
805.91	26355
806.052	26393
806.194	26347
806.336	26518
806.478	26400
806.62	26275
806.762	26431
806.904	26598
807.046	26830
807.188	26834
807.33	26720
807.472	26720
807.614	26735
807.756	26705
807.898	26552
808.04	26484
808.182	26705
808.324	26587
808.465	26617
808.607	26792
808.749	26952
808.891	27009
809.033	27119
809.174	26918
809.316	26998
809.458	26975
809.6	26914
809.741	26994
809.883	27028
810.025	27249
810.166	27112
810.308	27260
810.45	27150
810.591	27173
810.733	26918
810.875	26948
811.016	26944
811.158	26864
811.299	26910
811.441	27062
811.582	27093
811.724	26925
811.865	26925
812.007	26891
812.148	26823
812.29	26838
812.431	26982
812.573	27199
812.714	27351
812.855	27272
812.997	27439
813.138	27816
813.279	27466
813.421	27469
813.562	27321
813.703	27298
813.845	27123
813.986	26880
814.127	26788
814.268	26571
814.41	26518
814.551	26613
814.692	26594
814.833	26453
814.974	26503
815.115	26530
815.256	26434
815.397	26522
815.539	26541
815.68	26511
815.821	26252
815.962	26511
816.103	26377
816.244	26138
816.385	26199
816.526	26016
816.666	25955
816.807	25780
816.948	25833
817.089	25906
817.23	25795
817.371	25830
817.512	25772
817.653	25803
817.793	25830
817.934	25860
818.075	25750
818.216	25753
818.356	25750
818.497	25632
818.638	25552
818.778	25578
818.919	25643
819.06	25734
819.2	25624
819.341	25803
819.481	25833
819.622	25966
819.762	26039
819.903	26119
820.043	25928
820.184	25936
820.324	25868
820.465	26001
820.605	25932
820.746	25856
820.886	25822
821.026	25852
821.167	25917
821.307	25845
821.447	25890
821.588	25693
821.728	25601
821.868	25449
822.008	25350
822.149	25304
822.289	25354
822.429	24939
822.569	24859
822.709	25008
822.849	24692
822.99	24787
823.13	24779
823.27	24745
823.41	24528
823.55	24486
823.69	24612
823.83	24627
823.97	24486
824.11	24410
824.25	24403
824.389	24407
824.529	24486
824.669	24426
824.809	24475
824.949	24597
825.089	24384
825.228	24441
825.368	24365
825.508	24414
825.648	24327
825.787	24300
825.927	24308
826.067	24232
826.206	24247
826.346	24338
826.485	24380
826.625	24277
826.765	24414
826.904	24304
827.044	24068
827.183	23889
827.323	23923
827.462	24087
827.601	24026
827.741	24015
827.88	24007
828.02	23973
828.159	24053
828.298	23969
828.437	24007
828.577	23882
828.716	24057
828.855	23965
828.994	23722
829.134	23562
829.273	23668
829.412	23672
829.551	23649
829.69	23611
829.829	23764
829.968	23783
830.107	23726
830.246	23748
830.385	23627
830.524	23535
830.663	23528
830.802	23429
830.941	23303
831.08	23239
831.219	23395
831.357	23341
831.496	23509
831.635	23353
831.774	23239
831.913	23143
832.051	23029
832.19	23117
832.329	22987
832.467	22904
832.606	22892
832.744	23022
832.883	23048
833.022	22965
833.16	22927
833.299	23132
833.437	23086
833.576	23102
833.714	22972
833.852	23086
833.991	23064
834.129	23162
834.267	23223
834.406	23010
834.544	23090
834.682	23105
834.821	23056
834.959	23197
835.097	22889
835.235	23098
835.373	23090
835.511	23083
835.65	23018
835.788	22942
835.926	22828
836.064	22759
836.202	22839
836.34	23037
836.478	23121
836.615	22911
836.753	22919
836.891	23075
837.029	22877
837.167	22881
837.305	22740
837.443	22748
837.58	22885
837.718	22713
837.856	22790
837.993	22584
838.131	22831
838.269	22767
838.406	22771
838.544	22653
838.681	22523
838.819	22447
838.956	22284
839.094	22162
839.231	22257
839.369	22432
839.506	22698
839.643	22443
839.781	22211
839.918	22128
840.055	22204
840.193	22162
840.33	22234
840.467	22249
840.604	22238
840.742	22432
840.879	22116
841.016	22204
841.153	22017
841.29	22303
841.427	22215
841.564	22246
841.701	22181
841.838	22162
841.975	22192
842.112	22200
842.249	21953
842.385	21937
842.522	22128
842.659	21972
842.796	21979
842.933	22029
843.069	21869
843.206	21926
843.343	21994
843.479	21979
843.616	21850
843.752	21797
843.889	21698
844.025	21850
844.162	21694
844.298	21842
844.435	21728
844.571	21667
844.708	21835
844.844	21857
844.98	21915
845.117	21846
845.253	21667
845.389	21492
845.525	21622
845.661	21580
845.798	21488
845.934	21519
846.07	21367
846.206	21553
846.342	21496
846.478	21405
846.614	21344
846.75	21211
846.886	21146
847.022	21306
847.158	21313
847.294	21169
847.429	21256
847.565	21169
847.701	21370
847.837	20925
847.972	20929
848.108	21001
848.244	20979
848.379	20853
848.515	20826
848.65	20815
848.786	20861
848.921	20788
849.057	20921
849.192	20845
849.328	20941
849.463	20826
849.598	20720
849.734	20724
849.869	20560
850.004	20518
850.14	20560
850.275	20492
850.41	20419
850.545	20488
850.68	20625
850.815	20670
850.95	20461
851.085	20777
851.22	20731
851.355	20659
851.49	20594
851.625	20682
851.76	20492
851.895	20396
852.03	20469
852.165	20514
852.299	20625
852.434	20571
852.569	20526
852.703	20511
852.838	20701
852.973	20735
853.107	20720
853.242	20632
853.376	20488
853.511	20324
853.645	20294
853.78	20465
853.914	20431
854.048	20400
854.183	20476
854.317	20461
854.451	20594
854.585	20412
854.72	20355
854.854	20442
854.988	20400
855.122	20434
855.256	20187
855.39	20393
855.524	20450
855.658	20343
855.792	20404
855.926	20294
856.06	20301
856.194	20374
856.327	20400
856.461	20153
856.595	20343
856.729	20415
856.862	20457
856.996	20454
857.13	20469
857.263	20564
857.397	20461
857.53	20514
857.664	20423
857.797	20408
857.931	20393
858.064	20336
858.197	20549
858.331	20343
858.464	20313
858.597	20282
858.731	20336
858.864	20332
858.997	20191
859.13	20324
859.263	20431
859.396	20492
859.529	20362
859.662	20328
859.795	20278
859.928	20389
860.061	20522
860.194	20549
860.327	20499
860.46	20393
860.592	20541
860.725	20480
860.858	20488
860.99	20377
861.123	20305
861.256	20381
861.388	20446
861.521	20933
861.653	20191
861.786	20259
861.918	20225
862.05	20183
862.183	20233
862.315	20324
862.447	20415
862.58	20339
862.712	20084
862.844	20039
862.976	20126
863.108	20240
863.24	20541
863.372	20046
863.504	20134
863.636	20084
863.768	20122
863.9	20096
864.032	20062
864.164	20050
864.296	20069
864.428	20153
864.559	20157
864.691	20119
864.823	20130
864.954	20073
865.086	20100
865.217	20069
865.349	19906
865.48	20001
865.612	20126
865.743	20103
865.875	19978
866.006	19909
866.137	20020
866.269	19993
866.4	19925
866.531	19928
866.662	19936
866.793	19955
866.924	20031
867.055	19913
867.186	19951
867.317	19902
867.448	19936
867.579	19970
867.71	19951
867.841	19856
867.972	19917
868.103	19856
868.233	19993
868.364	19940
868.495	19932
868.625	20126
868.756	20336
868.886	20130
869.017	20176
869.147	20301
869.278	20233
869.408	20301
869.539	20187
869.669	20278
869.799	20210
869.929	20336
870.06	20393
870.19	20476
870.32	20408
870.45	20549
870.58	20575
870.71	20693
870.84	20708
870.97	20613
871.1	20629
871.23	20773
871.36	20693
871.489	20800
871.619	20674
871.749	20754
871.879	20857
872.008	20948
872.138	20697
872.267	20948
872.397	20686
872.526	20629
872.656	20686
872.785	20674
872.915	20826
873.044	20960
873.173	20769
873.303	20933
873.432	20979
873.561	20895
873.69	20811
873.819	20868
873.948	20853
874.077	20678
874.206	20864
874.335	20781
874.464	20937
874.593	21032
874.722	21001
874.851	21058
874.979	21108
875.108	21039
875.237	21032
875.365	20929
875.494	21070
875.623	21096
875.751	21077
875.88	21020
876.008	21260
876.136	21408
876.265	21435
876.393	21591
876.521	21519
876.65	21679
876.778	21515
876.906	21447
877.034	21439
877.162	21443
877.29	21416
877.418	21538
877.546	21386
877.674	21405
877.802	21530
877.93	21408
878.058	21450
878.185	21336
878.313	21359
878.441	21408
878.568	21317
878.696	21256
878.824	21519
878.951	21622
879.079	21652
879.206	21819
879.333	21629
879.461	21412
879.588	21435
879.715	21686
879.842	21724
879.97	21439
880.097	21313
880.224	21310
880.351	21226
880.478	21195
880.605	21249
880.732	21275
880.859	21485
880.986	21249
881.112	21397
881.239	21146
881.366	21017
881.493	20929
881.619	20815
881.746	20880
881.872	20925
881.999	20689
882.125	20830
882.252	20906
882.378	20853
882.505	20979
882.631	20636
882.757	20613
882.883	20606
883.01	20625
883.136	20514
883.262	20480
883.388	20511
883.514	20682
883.64	20564
883.766	20507
883.892	20362
884.018	20301
884.143	20606
884.269	20613
884.395	20339
884.52	20187
884.646	20199
884.772	20244
884.897	20134
885.023	20210
885.148	20423
885.274	20404
885.399	20237
885.524	20252
885.65	20149
885.775	20225
885.9	20161
886.025	20343
886.15	20278
886.275	20168
886.4	20180
886.525	20122
886.65	20126
886.775	20084
886.9	20336
887.025	20381
887.149	20130
887.274	20088
887.399	20001
887.523	19967
887.648	19894
887.773	19970
887.897	20046
888.021	20096
888.146	19993
888.27	20058
888.395	20027
888.519	20001
888.643	20031
888.767	20088
888.891	19906
889.015	19727
889.139	19826
889.263	19765
889.387	19833
889.511	20046
889.635	19917
889.759	19757
889.883	19708
890.006	19811
890.13	19803
890.254	19731
890.377	19708
890.501	19586
890.624	19495
890.748	19635
890.871	19453
890.995	19434
891.118	19228
891.241	19304
891.364	19324
891.488	19556
891.611	19438
891.734	19369
891.857	19388
891.98	19274
892.103	19419
892.226	19480
892.349	19362
892.471	19171
892.594	19263
892.717	19354
892.839	19312
892.962	19388
893.085	19377
893.207	19266
893.33	19228
893.452	19270
893.575	19343
893.697	19350
893.819	19369
893.941	19422
894.064	19483
894.186	19289
894.308	19194
894.43	19457
894.552	19415
894.674	19419
894.796	19209
894.918	19373
895.04	19324
895.161	19365
895.283	19381
895.405	19129
895.526	19240
895.648	19282
895.769	19396
895.891	19289
896.012	19403
896.134	19381
896.255	19308
896.376	19244
896.498	19251
896.619	19304
896.74	19213
896.861	19308
896.982	19666
897.103	19765
897.224	19559
897.345	19567
897.466	19491
897.587	19460
897.708	19674
897.828	19556
897.949	19514
898.07	19301
898.19	19529
898.311	19715
898.431	19460
898.552	19628
898.672	19559
898.792	19662
898.913	19544
899.033	19396
899.153	19362
899.273	19282
899.393	19274
899.513	19327
899.633	19350
899.753	19304
899.873	19293
899.993	19251
900.113	19217
900.232	19293
900.352	19122
900.472	19206
900.591	19008
900.711	19141
900.83	19088
900.95	19175
901.069	19206
901.189	19053
901.308	18776
901.427	18593
901.546	18768
901.665	18779
901.784	18715
901.904	18551
902.023	18498
902.141	18228
902.26	18350
902.379	18338
902.498	18174
902.617	18232
902.735	18205
902.854	18247
902.973	18148
903.091	17923
903.21	17912
903.328	17935
903.446	17733
903.565	17699
903.683	17741
903.801	17657
903.919	17672
904.038	17604
904.156	17535
904.274	17592
904.392	17520
904.51	17455
904.627	17554
904.745	17497
904.863	17539
904.981	17254
905.098	17098
905.216	17204
905.334	17197
905.451	17242
905.569	17121
905.686	17246
905.803	17140
905.921	16877
906.038	17014
906.155	17124
906.272	16866
906.389	16854
906.506	16717
906.623	16698
906.74	16603
906.857	16565
906.974	16641
907.091	16801
907.208	16850
907.324	16668
907.441	16653
907.557	16481
907.674	16398
907.79	16360
907.907	16436
908.023	16474
908.139	16466
908.256	16318
908.372	16318
908.488	16287
908.604	16238
908.72	16013
908.836	16154
908.952	16158
909.068	16196
909.184	16196
909.3	16147
909.415	16249
909.531	16101
909.647	15884
909.762	15857
909.878	15816
909.993	15785
910.108	15884
910.224	15774
910.339	15835
910.454	15770
910.57	15618
910.685	15545
910.8	15793
910.915	15778
911.03	15743
911.145	15580
911.259	15435
911.374	15538
911.489	15397
911.604	15287
911.718	15138
911.833	15291
911.947	15157
912.062	15146
912.176	15260
912.291	15283
912.405	15222
912.519	15515
912.633	15393
912.748	15252
912.862	15245
912.976	15039
913.09	14933
913.204	15013
913.318	15001
913.431	15028
913.545	15165
913.659	15237
913.772	14941
913.886	14895
914	14792
914.113	14887
914.226	14956
914.34	14899
914.453	14758
914.566	14849
914.68	14800
914.793	14705
914.906	14594
915.019	14454
915.132	14282
915.245	14450
915.358	14488
915.47	14507
915.583	14495
915.696	14518
915.809	14427
915.921	14594
916.034	14419
916.146	14347
916.259	14252
916.371	14507
916.483	14366
916.595	14358
916.708	14214
916.82	14244
916.932	14199
917.044	14259
917.156	14317
917.268	14195
917.38	14164
917.491	14103
917.603	14199
917.715	14183
917.826	14278
917.938	14081
918.049	14008
918.161	14145
918.272	14286
918.384	14267
918.495	14024
918.606	13967
918.717	13849
918.828	13837
918.939	13925
919.05	13860
919.161	13871
919.272	13723
919.383	13795
919.494	13967
919.604	14138
919.715	13932
919.826	13765
919.936	13967
920.047	13928
920.157	13936
920.267	14107
920.378	13894
920.488	13894
920.598	14077
920.708	14214
920.818	14050
920.928	14035
921.038	14164
921.148	14035
921.258	13841
921.368	13765
921.477	13704
921.587	13655
921.697	13453
921.806	13651
921.916	13518
922.025	13320
922.134	13278
922.244	13240
922.353	13350
922.462	13232
922.571	13225
922.68	12993
922.789	12977
922.898	12913
923.007	12966
923.116	12916
923.224	13034
923.333	12814
923.442	12779
923.55	12821
923.659	12768
923.767	12787
923.876	12749
923.984	12840
924.092	12620
924.201	12722
924.309	12783
924.417	12802
924.525	12639
924.633	12707
924.741	13548
924.849	12391
924.956	12566
925.064	12566
925.172	12380
925.279	12391
925.387	12475
925.494	12445
925.602	12551
925.709	12471
925.816	12281
925.924	12285
926.031	12452
926.138	12350
926.245	12369
926.352	12239
926.459	12433
926.566	12422
926.673	12232
926.779	12235
926.886	12140
926.993	11984
927.099	11965
927.206	11973
927.312	11965
927.419	12007
927.525	11908
927.631	12022
927.737	11920
927.843	11817
927.95	11824
928.056	11950
928.162	11859
928.267	11878
928.373	12464
928.479	11870
928.585	11630
928.69	11840
928.796	11859
928.901	11707
929.007	11440
929.112	11790
929.218	11684
929.323	11634
929.428	11619
929.533	11657
929.638	11448
929.743	11532
929.848	11532
929.953	11497
930.058	11452
930.163	11273
930.267	11265
930.372	11467
930.477	11201
930.581	11379
930.685	11337
930.79	11212
930.894	11227
930.998	11193
931.103	11162
931.207	10911
931.311	10881
931.415	10714
931.519	10542
931.623	10504
