Data from test_V78500241_989.txt Node
Date: Fri Mar 25 15:16:44 CST 2022
User: usil
Spectrometer: V785-0024
Trigger mode: 0
Integration Time (sec): 4.000000E-1
Scans to average: 1
Nonlinearity correction enabled: false
Boxcar width: 0
Storing dark spectrum: false
XAxis mode: Wavelengths
Number of Pixels in Spectrum: 1024
>>>>>Begin Spectral Data<<<<<
801.071	28268
801.214	28173
801.356	28070
801.499	27857
801.641	27854
801.783	27869
801.926	27850
802.068	27869
802.211	27846
802.353	27736
802.496	27644
802.638	27515
802.78	27420
802.923	27485
803.065	27515
803.208	27462
803.35	27321
803.492	27583
803.635	27614
803.777	27572
803.919	27652
804.061	28063
804.204	27751
804.346	27629
804.488	27671
804.63	27671
804.773	27728
804.915	27701
805.057	27774
805.199	27698
805.341	27660
805.483	27937
805.626	27838
805.768	27641
805.91	27698
806.052	27800
806.194	27789
806.336	27964
806.478	27945
806.62	27941
806.762	27899
806.904	28097
807.046	28424
807.188	28337
807.33	28261
807.472	28223
807.614	28192
807.756	28325
807.898	28295
808.04	28109
808.182	28101
808.324	28086
808.465	28230
808.607	28333
808.749	28508
808.891	28516
809.033	28630
809.174	28668
809.316	28371
809.458	28451
809.6	28531
809.741	28611
809.883	28603
810.025	28854
810.166	28824
810.308	28847
810.45	28888
810.591	28767
810.733	28611
810.875	28630
811.016	28447
811.158	28280
811.299	28542
811.441	28679
811.582	28622
811.724	28493
811.865	28565
812.007	28596
812.148	28531
812.29	28641
812.431	28778
812.573	28866
812.714	29018
812.855	29204
812.997	29223
813.138	29406
813.279	29288
813.421	29037
813.562	29185
813.703	28908
813.845	28713
813.986	28626
814.127	28443
814.268	28265
814.41	28379
814.551	28272
814.692	28242
814.833	28242
814.974	28040
815.115	28367
815.256	28188
815.397	28154
815.539	28188
815.68	28135
815.821	28082
815.962	28135
816.103	28055
816.244	27937
816.385	27918
816.526	27850
816.666	27629
816.807	27591
816.948	27648
817.089	27701
817.23	27660
817.371	27572
817.512	27580
817.653	27523
817.793	27679
817.934	27526
818.075	27595
818.216	27603
818.356	27519
818.497	27481
818.638	27272
818.778	27226
818.919	27389
819.06	27454
819.2	27401
819.341	27469
819.481	27690
819.622	27743
819.762	27987
819.903	27880
820.043	27808
820.184	27675
820.324	27690
820.465	27770
820.605	27728
820.746	27770
820.886	27656
821.026	27717
821.167	27519
821.307	27747
821.447	27599
821.588	27477
821.728	27408
821.868	27233
822.008	27036
822.149	27039
822.289	27020
822.429	26785
822.569	26811
822.709	26800
822.849	26602
822.99	26716
823.13	26693
823.27	26499
823.41	26427
823.55	26317
823.69	26396
823.83	26298
823.97	26385
824.11	26191
824.25	26138
824.389	26206
824.529	26347
824.669	26332
824.809	26347
824.949	26320
825.089	26301
825.228	26294
825.368	26180
825.508	26115
825.648	26161
825.787	26138
825.927	26218
826.067	26103
826.206	26126
826.346	26180
826.485	26240
826.625	26111
826.765	26206
826.904	26237
827.044	25940
827.183	25822
827.323	25761
827.462	25849
827.601	25753
827.741	25753
827.88	25833
828.02	25605
828.159	25719
828.298	25993
828.437	25814
828.577	25624
828.716	25963
828.855	25871
828.994	25613
829.134	25613
829.273	25582
829.412	25559
829.551	25620
829.69	25537
829.829	25594
829.968	25537
830.107	25605
830.246	25605
830.385	25468
830.524	25403
830.663	25514
830.802	25343
830.941	25198
831.08	25114
831.219	25183
831.357	25213
831.496	25346
831.635	25187
831.774	25152
831.913	25061
832.051	25091
832.19	25012
832.329	24939
832.467	24867
832.606	24829
832.744	24806
832.883	24764
833.022	24753
833.16	24890
833.299	24905
833.437	24909
833.576	24977
833.714	25004
833.852	24992
833.991	25042
834.129	25008
834.267	25019
834.406	24848
834.544	24867
834.682	24856
834.821	24810
834.959	25175
835.097	24810
835.235	24985
835.373	24890
835.511	24810
835.65	24791
835.788	24791
835.926	24692
836.064	24612
836.202	24646
836.34	24791
836.478	24890
836.615	24776
836.753	24829
836.891	24894
837.029	24749
837.167	24635
837.305	24673
837.443	24570
837.58	24517
837.718	24696
837.856	24589
837.993	24536
838.131	24601
838.269	24388
838.406	24585
838.544	24498
838.681	24289
838.819	24186
838.956	24182
839.094	24079
839.231	23980
839.369	24171
839.506	24486
839.643	24270
839.781	23893
839.918	23996
840.055	24129
840.193	23980
840.33	24076
840.467	24064
840.604	24057
840.742	24334
840.879	23741
841.016	23916
841.153	23859
841.29	24144
841.427	23950
841.564	24034
841.701	23961
841.838	23988
841.975	23931
842.112	23813
842.249	23722
842.385	23821
842.522	23885
842.659	23779
842.796	23745
842.933	23691
843.069	23722
843.206	23657
843.343	23885
843.479	23923
843.616	23611
843.752	23585
843.889	23596
844.025	23680
844.162	23516
844.298	23615
844.435	23486
844.571	23547
844.708	23573
844.844	23843
844.98	23562
845.117	23551
845.253	23539
845.389	23421
845.525	23368
845.661	23429
845.798	23368
845.934	23322
846.07	23223
846.206	23273
846.342	23288
846.478	23269
846.614	22987
846.75	23052
846.886	22938
847.022	23071
847.158	23033
847.294	22889
847.429	22972
847.565	23018
847.701	23189
847.837	22843
847.972	22767
848.108	22820
848.244	22843
848.379	22710
848.515	22580
848.65	22557
848.786	22577
848.921	22561
849.057	22664
849.192	22672
849.328	22615
849.463	22523
849.598	22679
849.734	22497
849.869	22455
850.004	22238
850.14	22428
850.275	22428
850.41	22333
850.545	22363
850.68	22405
850.815	22348
850.95	22371
851.085	22584
851.22	22344
851.355	22382
851.49	22344
851.625	22379
851.76	22344
851.895	22158
852.03	22223
852.165	22207
852.299	22333
852.434	22367
852.569	22363
852.703	22314
852.838	22424
852.973	22447
853.107	22516
853.242	22322
853.376	22207
853.511	22078
853.645	22128
853.78	22234
853.914	22204
854.048	22135
854.183	22188
854.317	22226
854.451	22348
854.585	22200
854.72	22162
854.854	22154
854.988	22101
855.122	22124
855.256	22063
855.39	22177
855.524	22192
855.658	22238
855.792	22200
855.926	22226
856.06	22090
856.194	22211
856.327	22124
856.461	22063
856.595	22025
856.729	22261
856.862	22219
856.996	22150
857.13	22188
857.263	22291
857.397	22207
857.53	22135
857.664	22238
857.797	22230
857.931	22325
858.064	22192
858.197	22280
858.331	22105
858.464	22010
858.597	22078
858.731	22090
858.864	22067
858.997	22082
859.13	22188
859.263	22112
859.396	22090
859.529	22162
859.662	22013
859.795	22131
859.928	22204
860.061	22371
860.194	22348
860.327	22150
860.46	22150
860.592	22341
860.725	22390
860.858	22257
860.99	22143
861.123	22196
861.256	22101
861.388	22207
861.521	22649
861.653	21937
861.786	21854
861.918	21884
862.05	22040
862.183	22070
862.315	22078
862.447	22173
862.58	22090
862.712	21850
862.844	21831
862.976	21945
863.108	21964
863.24	22211
863.372	21789
863.504	21800
863.636	21816
863.768	21953
863.9	21819
864.032	21717
864.164	21846
864.296	21899
864.428	22078
864.559	21892
864.691	21949
864.823	21934
864.954	21751
865.086	21903
865.217	21701
865.349	21614
865.48	21774
865.612	21690
865.743	21945
865.875	21808
866.006	21652
866.137	21682
866.269	21679
866.4	21675
866.531	21557
866.662	21717
866.793	21603
866.924	21580
867.055	21797
867.186	21812
867.317	21622
867.448	21526
867.579	21644
867.71	21660
867.841	21553
867.972	21743
868.103	21530
868.233	21675
868.364	21717
868.495	21831
868.625	21968
868.756	22131
868.886	21819
869.017	21743
869.147	21964
869.278	22006
869.408	21945
869.539	21869
869.669	21880
869.799	21945
869.929	22063
870.06	22128
870.19	22291
870.32	22143
870.45	22226
870.58	22116
870.71	22455
870.84	22432
870.97	22394
871.1	22257
871.23	22447
871.36	22421
871.489	22440
871.619	22523
871.749	22459
871.879	22500
872.008	22516
872.138	22421
872.267	22497
872.397	22314
872.526	22398
872.656	22219
872.785	22443
872.915	22421
873.044	22455
873.173	22519
873.303	22489
873.432	22668
873.561	22504
873.69	22432
873.819	22569
873.948	22702
874.077	22542
874.206	22527
874.335	22489
874.464	22653
874.593	22729
874.722	22694
874.851	22755
874.979	22679
875.108	22790
875.237	22729
875.365	22561
875.494	22820
875.623	22771
875.751	22721
875.88	22740
876.008	22885
876.136	23029
876.265	22980
876.393	23292
876.521	23307
876.65	23159
876.778	23147
876.906	22965
877.034	23147
877.162	23098
877.29	22999
877.418	23098
877.546	23155
877.674	23014
877.802	23060
877.93	23003
878.058	22987
878.185	22930
878.313	22938
878.441	22946
878.568	22915
878.696	23109
878.824	23075
878.951	23162
879.079	23261
879.206	23235
879.333	23162
879.461	22965
879.588	23113
879.715	23208
879.842	23299
879.97	23071
880.097	22938
880.224	22885
880.351	22957
880.478	22877
880.605	22889
880.732	22896
880.859	23060
880.986	22984
881.112	22873
881.239	22740
881.366	22599
881.493	22489
881.619	22504
881.746	22519
881.872	22493
881.999	22405
882.125	22398
882.252	22459
882.378	22382
882.505	22557
882.631	22272
882.757	22173
882.883	22291
883.01	22223
883.136	22124
883.262	22025
883.388	21907
883.514	22150
883.64	22219
883.766	22059
883.892	21884
884.018	22006
884.143	22055
884.269	22101
884.395	21888
884.52	21800
884.646	21755
884.772	21819
884.897	21701
885.023	21838
885.148	21720
885.274	21968
885.399	21816
885.524	21808
885.65	21736
885.775	21854
885.9	21724
886.025	21915
886.15	21869
886.275	21637
886.4	21587
886.525	21663
886.65	21686
886.775	21694
886.9	21930
887.025	22010
887.149	21732
887.274	21633
887.399	21583
887.523	21450
887.648	21587
887.773	21408
887.897	21633
888.021	21504
888.146	21378
888.27	21519
888.395	21580
888.519	21549
888.643	21545
888.767	21599
888.891	21420
889.015	21237
889.139	21412
889.263	21291
889.387	21500
889.511	21500
889.635	21462
889.759	21332
889.883	21268
890.006	21420
890.13	21469
890.254	21207
890.377	21192
890.501	21112
890.624	21028
890.748	20986
890.871	21005
890.995	20918
891.118	20906
891.241	20998
891.364	20842
891.488	20956
891.611	20899
891.734	20899
891.857	20887
891.98	20921
892.103	20944
892.226	20956
892.349	20853
892.471	20625
892.594	20872
892.717	20830
892.839	20792
892.962	20754
893.085	20777
893.207	20674
893.33	20708
893.452	20746
893.575	20845
893.697	20686
893.819	20857
893.941	20982
894.064	20834
894.186	20773
894.308	20674
894.43	20857
894.552	20804
894.674	20807
894.796	20705
894.918	20765
895.04	20678
895.161	20804
895.283	20758
895.405	20636
895.526	20773
895.648	20705
895.769	20781
895.891	20712
896.012	20743
896.134	20750
896.255	20834
896.376	20659
896.498	20804
896.619	20815
896.74	20785
896.861	20754
896.982	21131
897.103	21180
897.224	20933
897.345	20842
897.466	20982
897.587	20887
897.708	21051
897.828	20895
897.949	20899
898.07	20720
898.19	20762
898.311	20994
898.431	20933
898.552	20929
898.672	21108
898.792	20880
898.913	20914
899.033	20811
899.153	20838
899.273	20670
899.393	20629
899.513	20686
899.633	20731
899.753	20617
899.873	20587
899.993	20682
900.113	20651
900.232	20659
900.352	20587
900.472	20503
900.591	20492
900.711	20427
900.83	20377
900.95	20476
901.069	20446
901.189	20294
901.308	20119
901.427	19963
901.546	20035
901.665	20081
901.784	20084
901.904	19940
902.023	19723
902.141	19506
902.26	19639
902.379	19635
902.498	19464
902.617	19411
902.735	19537
902.854	19407
902.973	19487
903.091	19282
903.21	19141
903.328	19152
903.446	19152
903.565	19031
903.683	19012
903.801	18856
903.919	18970
904.038	18863
904.156	18867
904.274	18943
904.392	18623
904.51	18734
904.627	18642
904.745	18810
904.863	18757
904.981	18471
905.098	18410
905.216	18445
905.334	18525
905.451	18426
905.569	18467
905.686	18365
905.803	18422
905.921	18201
906.038	18308
906.155	18308
906.272	18060
906.389	18174
906.506	17931
906.623	17984
906.74	17969
906.857	17874
906.974	17859
907.091	18053
907.208	18171
907.324	18034
907.441	17897
907.557	17646
907.674	17699
907.79	17608
907.907	17665
908.023	17710
908.139	17703
908.256	17665
908.372	17577
908.488	17516
908.604	17360
908.72	17368
908.836	17353
908.952	17478
909.068	17471
909.184	17372
909.3	17360
909.415	17448
909.531	17391
909.647	17006
909.762	17014
909.878	17041
909.993	17117
910.108	17041
910.224	17041
910.339	17067
910.454	17045
910.57	16877
910.685	16759
910.8	17132
910.915	17014
911.03	16904
911.145	16637
911.259	16672
911.374	16611
911.489	16649
911.604	16512
911.718	16527
911.833	16531
911.947	16280
912.062	16230
912.176	16402
912.291	16481
912.405	16367
912.519	16592
912.633	16679
912.748	16447
912.862	16329
912.976	16348
913.09	16131
913.204	16154
913.318	16253
913.431	16253
913.545	16192
913.659	16360
913.772	16143
913.886	16048
914	16055
914.113	15983
914.226	16196
914.34	16025
914.453	15869
914.566	16036
914.68	15972
914.793	15895
914.906	15705
915.019	15587
915.132	15435
915.245	15629
915.358	15633
915.47	15660
915.583	15526
915.696	15644
915.809	15747
915.921	15717
916.034	15603
916.146	15511
916.259	15485
916.371	15587
916.483	15488
916.595	15469
916.708	15477
916.82	15412
916.932	15496
917.044	15351
917.156	15336
917.268	15260
917.38	15245
917.491	15188
917.603	15233
917.715	15329
917.826	15317
917.938	15230
918.049	15047
918.161	15127
918.272	15287
918.384	15306
918.495	15161
918.606	15097
918.717	14975
918.828	14925
918.939	15039
919.05	14883
919.161	14933
919.272	14800
919.383	14883
919.494	15036
919.604	15108
919.715	14952
919.826	14868
919.936	14830
920.047	15017
920.157	14910
920.267	15047
920.378	14899
920.488	14906
920.598	15085
920.708	15275
920.818	15085
920.928	15135
921.038	15222
921.148	15211
921.258	14868
921.368	14750
921.477	14621
921.587	14800
921.697	14579
921.806	14682
921.916	14530
922.025	14358
922.134	14294
922.244	14275
922.353	14244
922.462	14161
922.571	14062
922.68	13993
922.789	13917
922.898	13936
923.007	13894
923.116	14027
923.224	13917
923.333	13959
923.442	13826
923.55	13734
923.659	13772
923.767	13845
923.876	13719
923.984	13753
924.092	13655
924.201	13685
924.309	13696
924.417	13639
924.525	13594
924.633	13594
924.741	14522
924.849	13354
924.956	13491
925.064	13430
925.172	13289
925.279	13358
925.387	13369
925.494	13282
925.602	13388
925.709	13373
925.816	13137
925.924	13247
926.031	13346
926.138	13339
926.245	13293
926.352	13118
926.459	13316
926.566	13304
926.673	13171
926.779	13065
926.886	13088
926.993	12962
927.099	12951
927.206	12833
927.312	12810
927.419	12867
927.525	12935
927.631	12875
927.737	12791
927.843	12753
927.95	12582
928.056	12681
928.162	12764
928.267	12764
928.373	13217
928.479	12802
928.585	12498
928.69	12639
928.796	12730
928.901	12574
929.007	12369
929.112	12532
929.218	12517
929.323	12464
929.428	12380
929.533	12498
929.638	12311
929.743	12334
929.848	12407
929.953	12304
930.058	12232
930.163	11999
930.267	12182
930.372	12262
930.477	12022
930.581	12273
930.685	12167
930.79	11942
930.894	11969
930.998	11935
931.103	12072
931.207	11783
931.311	11642
931.415	11532
931.519	11379
931.623	11311
