Data from test_V78500241_108.txt Node
Date: Fri Mar 25 15:10:36 CST 2022
User: usil
Spectrometer: V785-0024
Trigger mode: 0
Integration Time (sec): 4.000000E-1
Scans to average: 1
Nonlinearity correction enabled: false
Boxcar width: 0
Storing dark spectrum: false
XAxis mode: Wavelengths
Number of Pixels in Spectrum: 1024
>>>>>Begin Spectral Data<<<<<
801.071	28280
801.214	28128
801.356	27884
801.499	27778
801.641	27770
801.783	27713
801.926	27629
802.068	27838
802.211	27538
802.353	27542
802.496	27298
802.638	27306
802.78	27279
802.923	27180
803.065	27188
803.208	27195
803.35	27329
803.492	27367
803.635	27359
803.777	27370
803.919	27389
804.061	27736
804.204	27382
804.346	27310
804.488	27218
804.63	27233
804.773	27150
804.915	27389
805.057	27389
805.199	27329
805.341	27393
805.483	27443
805.626	27313
805.768	27424
805.91	27397
806.052	27450
806.194	27245
806.336	27568
806.478	27511
806.62	27386
806.762	27439
806.904	27629
807.046	27911
807.188	27808
807.33	27793
807.472	27873
807.614	27800
807.756	27778
807.898	27587
808.04	27595
808.182	27526
808.324	27595
808.465	27720
808.607	27743
808.749	27937
808.891	27934
809.033	28090
809.174	27968
809.316	27972
809.458	28010
809.6	27823
809.741	27994
809.883	27960
810.025	28257
810.166	28093
810.308	28169
810.45	28055
810.591	27869
810.733	27945
810.875	27865
811.016	27709
811.158	27698
811.299	27842
811.441	28010
811.582	28059
811.724	27892
811.865	27728
812.007	27819
812.148	27766
812.29	27842
812.431	28185
812.573	28173
812.714	28196
812.855	28401
812.997	28485
813.138	28497
813.279	28436
813.421	28519
813.562	28234
813.703	28143
813.845	27926
813.986	27698
814.127	27580
814.268	27492
814.41	27534
814.551	27454
814.692	27614
814.833	27329
814.974	27519
815.115	27450
815.256	27359
815.397	27169
815.539	27283
815.68	27104
815.821	27169
815.962	27233
816.103	27272
816.244	27089
816.385	26921
816.526	26868
816.666	26861
816.807	26533
816.948	26762
817.089	26811
817.23	26720
817.371	26594
817.512	26613
817.653	26590
817.793	26579
817.934	26629
818.075	26773
818.216	26564
818.356	26541
818.497	26400
818.638	26457
818.778	26400
818.919	26309
819.06	26328
819.2	26404
819.341	26552
819.481	26446
819.622	26708
819.762	26853
819.903	26990
820.043	26708
820.184	26724
820.324	26739
820.465	26552
820.605	26518
820.746	26609
820.886	26488
821.026	26701
821.167	26549
821.307	26735
821.447	26313
821.588	26530
821.728	26298
821.868	26134
822.008	25940
822.149	25959
822.289	25913
822.429	25715
822.569	25696
822.709	25499
822.849	25518
822.99	25613
823.13	25316
823.27	25453
823.41	25240
823.55	25194
823.69	25168
823.83	25091
823.97	25114
824.11	25042
824.25	24992
824.389	25038
824.529	25202
824.669	24966
824.809	25152
824.949	25023
825.089	25053
825.228	25008
825.368	24966
825.508	24833
825.648	24970
825.787	24928
825.927	24776
826.067	24779
826.206	24795
826.346	24977
826.485	24924
826.625	24882
826.765	24821
826.904	24886
827.044	24654
827.183	24547
827.323	24589
827.462	24585
827.601	24445
827.741	24551
827.88	24498
828.02	24448
828.159	24403
828.298	24525
828.437	24498
828.577	24483
828.716	24585
828.855	24452
828.994	24243
829.134	24174
829.273	24190
829.412	24224
829.551	24064
829.69	24076
829.829	24197
829.968	24350
830.107	24216
830.246	24201
830.385	24239
830.524	24083
830.663	23866
830.802	23851
830.941	23741
831.08	23741
831.219	23904
831.357	23752
831.496	23965
831.635	23729
831.774	23646
831.913	23714
832.051	23558
832.19	23585
832.329	23547
832.467	23341
832.606	23299
832.744	23467
832.883	23181
833.022	23360
833.16	23387
833.299	23459
833.437	23311
833.576	23440
833.714	23398
833.852	23360
833.991	23455
834.129	23455
834.267	23490
834.406	23315
834.544	23531
834.682	23417
834.821	23307
834.959	23512
835.097	23387
835.235	23425
835.373	23170
835.511	23410
835.65	23174
835.788	23254
835.926	23029
836.064	23025
836.202	23086
836.34	23223
836.478	23223
836.615	23208
836.753	23193
836.891	23364
837.029	23242
837.167	23083
837.305	23060
837.443	23018
837.58	23041
837.718	23109
837.856	23083
837.993	23044
838.131	23037
838.269	22972
838.406	23006
838.544	22877
838.681	22733
838.819	22694
838.956	22504
839.094	22485
839.231	22504
839.369	22706
839.506	22908
839.643	22694
839.781	22474
839.918	22371
840.055	22519
840.193	22451
840.33	22360
840.467	22462
840.604	22322
840.742	22687
840.879	22261
841.016	22230
841.153	22200
841.29	22485
841.427	22432
841.564	22363
841.701	22390
841.838	22348
841.975	22348
842.112	22337
842.249	22135
842.385	22154
842.522	22314
842.659	22124
842.796	21991
842.933	22128
843.069	21949
843.206	21941
843.343	22086
843.479	22002
843.616	22078
843.752	21804
843.889	21850
844.025	21960
844.162	21854
844.298	21907
844.435	21774
844.571	21705
844.708	21827
844.844	22044
844.98	21998
845.117	21857
845.253	21800
845.389	21701
845.525	21732
845.661	21625
845.798	21534
845.934	21629
846.07	21587
846.206	21519
846.342	21648
846.478	21462
846.614	21389
846.75	21252
846.886	21245
847.022	21336
847.158	21264
847.294	21279
847.429	21214
847.565	21165
847.701	21561
847.837	20933
847.972	20952
848.108	21032
848.244	21100
848.379	20971
848.515	20845
848.65	20849
848.786	20895
848.921	20891
849.057	20990
849.192	20883
849.328	20868
849.463	20811
849.598	20701
849.734	20720
849.869	20697
850.004	20613
850.14	20549
850.275	20545
850.41	20511
850.545	20594
850.68	20571
850.815	20549
850.95	20651
851.085	20804
851.22	20716
851.355	20590
851.49	20533
851.625	20560
851.76	20564
851.895	20457
852.03	20438
852.165	20461
852.299	20514
852.434	20682
852.569	20545
852.703	20484
852.838	20648
852.973	20674
853.107	20636
853.242	20602
853.376	20434
853.511	20271
853.645	20195
853.78	20499
853.914	20450
854.048	20370
854.183	20332
854.317	20442
854.451	20568
854.585	20351
854.72	20343
854.854	20492
854.988	20267
855.122	20286
855.256	20229
855.39	20290
855.524	20484
855.658	20393
855.792	20465
855.926	20286
856.06	20366
856.194	20549
856.327	20324
856.461	20320
856.595	20271
856.729	20290
856.862	20492
856.996	20374
857.13	20442
857.263	20495
857.397	20469
857.53	20408
857.664	20370
857.797	20438
857.931	20374
858.064	20389
858.197	20408
858.331	20404
858.464	20218
858.597	20206
858.731	20351
858.864	20343
858.997	20438
859.13	20396
859.263	20244
859.396	20328
859.529	20320
859.662	20271
859.795	20263
859.928	20419
860.061	20511
860.194	20450
860.327	20362
860.46	20370
860.592	20377
860.725	20590
860.858	20400
860.99	20221
861.123	20256
861.256	20244
861.388	20412
861.521	20902
861.653	20195
861.786	20039
861.918	20214
862.05	20237
862.183	20294
862.315	20339
862.447	20419
862.58	20298
862.712	20054
862.844	20107
862.976	20164
863.108	20084
863.24	20514
863.372	20027
863.504	20016
863.636	20058
863.768	20031
863.9	20012
864.032	19951
864.164	19944
864.296	20073
864.428	20115
864.559	20138
864.691	20111
864.823	20149
864.954	19913
865.086	19967
865.217	19982
865.349	19849
865.48	19970
865.612	19955
865.743	20180
865.875	19951
866.006	19837
866.137	19913
866.269	19989
866.4	19932
866.531	19761
866.662	19864
866.793	19879
866.924	19750
867.055	19913
867.186	19917
867.317	19811
867.448	19765
867.579	19856
867.71	19803
867.841	19765
867.972	19921
868.103	19807
868.233	19887
868.364	19811
868.495	19947
868.625	19993
868.756	20088
868.886	20100
869.017	20134
869.147	20046
869.278	20191
869.408	20084
869.539	20161
869.669	20199
869.799	20103
869.929	20122
870.06	20153
870.19	20343
870.32	20320
870.45	20465
870.58	20473
870.71	20503
870.84	20556
870.97	20389
871.1	20396
871.23	20708
871.36	20636
871.489	20571
871.619	20606
871.749	20617
871.879	20674
872.008	20716
872.138	20758
872.267	20636
872.397	20526
872.526	20579
872.656	20518
872.785	20438
872.915	20739
873.044	20830
873.173	20564
873.303	20765
873.432	20689
873.561	20849
873.69	20804
873.819	20682
873.948	20746
874.077	20678
874.206	20568
874.335	20667
874.464	20842
874.593	20941
874.722	20929
874.851	20941
874.979	21047
875.108	20963
875.237	20982
875.365	20876
875.494	20921
875.623	21058
875.751	20902
875.88	20929
876.008	21100
876.136	21249
876.265	21424
876.393	21443
876.521	21416
876.65	21321
876.778	21401
876.906	21382
877.034	21393
877.162	21264
877.29	21287
877.418	21279
877.546	21310
877.674	21336
877.802	21416
877.93	21424
878.058	21325
878.185	21214
878.313	21127
878.441	21370
878.568	21142
878.696	21298
878.824	21264
878.951	21389
879.079	21473
879.206	21549
879.333	21576
879.461	21374
879.588	21477
879.715	21488
879.842	21606
879.97	21439
880.097	21192
880.224	21138
880.351	21203
880.478	21096
880.605	21039
880.732	21089
880.859	21481
880.986	21150
881.112	21230
881.239	21009
881.366	20826
881.493	20842
881.619	20834
881.746	20788
881.872	20804
881.999	20708
882.125	20708
882.252	20895
882.378	20693
882.505	20914
882.631	20625
882.757	20522
882.883	20545
883.01	20526
883.136	20419
883.262	20221
883.388	20206
883.514	20351
883.64	20533
883.766	20434
883.892	20313
884.018	20256
884.143	20499
884.269	20454
884.395	20111
884.52	20081
884.646	20206
884.772	20020
884.897	20100
885.023	20130
885.148	20176
885.274	20187
885.399	20263
885.524	20107
885.65	20062
885.775	20138
885.9	20115
886.025	20111
886.15	20073
886.275	19982
886.4	19928
886.525	20134
886.65	19902
886.775	20012
886.9	20290
887.025	20381
887.149	20054
887.274	19951
887.399	19921
887.523	19928
887.648	19784
887.773	19769
887.897	19963
888.021	19974
888.146	19807
888.27	19947
888.395	20069
888.519	19890
888.643	19890
888.767	19913
888.891	19902
889.015	19712
889.139	19594
889.263	19575
889.387	19791
889.511	19795
889.635	19742
889.759	19609
889.883	19681
890.006	19620
890.13	19696
890.254	19457
890.377	19601
890.501	19369
890.624	19381
890.748	19434
890.871	19358
890.995	19381
891.118	19175
891.241	19289
891.364	19213
891.488	19407
891.611	19289
891.734	19206
891.857	19308
891.98	19316
892.103	19350
892.226	19266
892.349	19126
892.471	19057
892.594	19160
892.717	19251
892.839	19206
892.962	19187
893.085	19308
893.207	19175
893.33	18993
893.452	19065
893.575	19225
893.697	19129
893.819	19304
893.941	19301
894.064	19327
894.186	19031
894.308	19057
894.43	19228
894.552	19343
894.674	19278
894.796	19095
894.918	19209
895.04	19069
895.161	19171
895.283	19266
895.405	19152
895.526	19069
895.648	19129
895.769	19168
895.891	19164
896.012	19320
896.134	19240
896.255	19320
896.376	19164
896.498	19228
896.619	19232
896.74	19213
896.861	19278
896.982	19529
897.103	19738
897.224	19514
897.345	19468
897.466	19403
897.587	19426
897.708	19571
897.828	19472
897.949	19369
898.07	19285
898.19	19327
898.311	19457
898.431	19403
898.552	19388
898.672	19449
898.792	19514
898.913	19434
899.033	19278
899.153	19122
899.273	19065
899.393	19095
899.513	19137
899.633	19145
899.753	19198
899.873	19076
899.993	19179
900.113	19107
900.232	19198
900.352	18993
900.472	19168
900.591	18928
900.711	19061
900.83	18932
900.95	19103
901.069	19034
901.189	18856
901.308	18635
901.427	18574
901.546	18540
901.665	18521
901.784	18639
901.904	18540
902.023	18281
902.141	18136
902.26	18038
902.379	18159
902.498	18041
902.617	17897
902.735	18087
902.854	18076
902.973	17897
903.091	17714
903.21	17676
903.328	17684
903.446	17623
903.565	17615
903.683	17452
903.801	17421
903.919	17459
904.038	17512
904.156	17398
904.274	17414
904.392	17318
904.51	17326
904.627	17303
904.745	17322
904.863	17288
904.981	17151
905.098	16972
905.216	16965
905.334	17018
905.451	17003
905.569	16927
905.686	17075
905.803	16839
905.921	16839
906.038	16915
906.155	16824
906.272	16767
906.389	16592
906.506	16500
906.623	16550
906.74	16603
906.857	16371
906.974	16500
907.091	16508
907.208	16599
907.324	16637
907.441	16474
907.557	16242
907.674	16215
907.79	16196
907.907	16181
908.023	16135
908.139	16166
908.256	16192
908.372	16185
908.488	16055
908.604	16029
908.72	15968
908.836	15964
908.952	15884
909.068	15941
909.184	15930
909.3	15880
909.415	15930
909.531	15899
909.647	15720
909.762	15591
909.878	15557
909.993	15599
910.108	15538
910.224	15564
910.339	15458
910.454	15584
910.57	15462
910.685	15363
910.8	15778
910.915	15561
911.03	15397
911.145	15256
911.259	15192
911.374	15291
911.489	15230
911.604	15070
911.718	14986
911.833	15047
911.947	14849
912.062	14720
912.176	14960
912.291	14895
912.405	14861
912.519	15070
912.633	15100
912.748	14960
912.862	14834
912.976	14727
913.09	14678
913.204	14819
913.318	14769
913.431	14857
913.545	14830
913.659	14952
913.772	14716
913.886	14541
914	14511
914.113	14682
914.226	14689
914.34	14625
914.453	14556
914.566	14640
914.68	14564
914.793	14514
914.906	14298
915.019	14183
915.132	14176
915.245	14191
915.358	14252
915.47	14351
915.583	14267
915.696	14294
915.809	14320
915.921	14374
916.034	14202
916.146	14062
916.259	14123
916.371	14237
916.483	14202
916.595	14027
916.708	14058
916.82	14081
916.932	14005
917.044	14020
917.156	13947
917.268	13902
917.38	13921
917.491	13970
917.603	13837
917.715	13993
917.826	13997
917.938	13837
918.049	13689
918.161	13883
918.272	13932
918.384	14005
918.495	13879
918.606	13731
918.717	13624
918.828	13715
918.939	13655
919.05	13616
919.161	13616
919.272	13422
919.383	13495
919.494	13685
919.604	13841
919.715	13620
919.826	13533
919.936	13563
920.047	13674
920.157	13639
920.267	13864
920.378	13537
920.488	13655
920.598	13738
920.708	13917
920.818	13849
920.928	13811
921.038	14008
921.148	13776
921.258	13689
921.368	13548
921.477	13506
921.587	13304
921.697	13247
921.806	13392
921.916	13240
922.025	13156
922.134	13031
922.244	13031
922.353	13095
922.462	12852
922.571	12772
922.68	12700
922.789	12646
922.898	12703
923.007	12570
923.116	12658
923.224	12612
923.333	12642
923.442	12528
923.55	12426
923.659	12452
923.767	12517
923.876	12399
923.984	12464
924.092	12380
924.201	12407
924.309	12483
924.417	12479
924.525	12311
924.633	12384
924.741	13152
924.849	12178
924.956	12277
925.064	12209
925.172	12057
925.279	12163
925.387	12205
925.494	12152
925.602	12266
925.709	12197
925.816	11984
925.924	12117
926.031	12159
926.138	12098
926.245	12148
926.352	11988
926.459	12098
926.566	12159
926.673	12041
926.779	11870
926.886	11847
926.993	11764
927.099	11657
927.206	11665
927.312	11661
927.419	11748
927.525	11684
927.631	11855
927.737	11547
927.843	11516
927.95	11467
928.056	11577
928.162	11577
928.267	11688
928.373	12121
928.479	11630
928.585	11395
928.69	11627
928.796	11543
928.901	11459
929.007	11315
929.112	11406
929.218	11383
929.323	11265
929.428	11265
929.533	11417
929.638	11231
929.743	11189
929.848	11254
929.953	11227
930.058	11136
930.163	10957
930.267	11014
930.372	11075
930.477	11018
930.581	11201
930.685	11003
930.79	10915
930.894	10946
930.998	10858
931.103	11010
931.207	10630
931.311	10599
931.415	10512
931.519	10207
931.623	10291
