Data from test_V78500241_3066.txt Node
Date: Fri Mar 25 15:31:12 CST 2022
User: usil
Spectrometer: V785-0024
Trigger mode: 0
Integration Time (sec): 4.000000E-1
Scans to average: 1
Nonlinearity correction enabled: false
Boxcar width: 0
Storing dark spectrum: false
XAxis mode: Wavelengths
Number of Pixels in Spectrum: 1024
>>>>>Begin Spectral Data<<<<<
801.071	27348
801.214	27176
801.356	27146
801.499	27043
801.641	26640
801.783	26807
801.926	26849
802.068	26887
802.211	26785
802.353	26697
802.496	26644
802.638	26537
802.78	26427
802.923	26381
803.065	26301
803.208	26347
803.35	26469
803.492	26682
803.635	26587
803.777	26537
803.919	26556
804.061	26952
804.204	26693
804.346	26587
804.488	26469
804.63	26556
804.773	26480
804.915	26503
805.057	26781
805.199	26503
805.341	26758
805.483	26731
805.626	26762
805.768	26625
805.91	26739
806.052	26720
806.194	26587
806.336	26895
806.478	26674
806.62	26587
806.762	26720
806.904	26815
807.046	27230
807.188	27211
807.33	27142
807.472	27169
807.614	27047
807.756	27135
807.898	26975
808.04	26891
808.182	26940
808.324	26952
808.465	26956
808.607	27252
808.749	27370
808.891	27386
809.033	27504
809.174	27325
809.316	27374
809.458	27386
809.6	27344
809.741	27443
809.883	27386
810.025	27591
810.166	27576
810.308	27557
810.45	27496
810.591	27473
810.733	27249
810.875	27222
811.016	27306
811.158	27241
811.299	27443
811.441	27481
811.582	27561
811.724	27351
811.865	27313
812.007	27237
812.148	27306
812.29	27416
812.431	27614
812.573	27572
812.714	27705
812.855	27793
812.997	27850
813.138	27994
813.279	27873
813.421	27842
813.562	27690
813.703	27701
813.845	27523
813.986	27241
814.127	27081
814.268	27005
814.41	26990
814.551	26944
814.692	27055
814.833	26940
814.974	26933
815.115	27020
815.256	26921
815.397	26830
815.539	26857
815.68	26735
815.821	26765
815.962	26743
816.103	26602
816.244	26533
816.385	26552
816.526	26609
816.666	26328
816.807	26153
816.948	26263
817.089	26332
817.23	26252
817.371	26336
817.512	26328
817.653	26210
817.793	26290
817.934	26202
818.075	26237
818.216	26244
818.356	26164
818.497	26069
818.638	26069
818.778	25974
818.919	25925
819.06	26077
819.2	26103
819.341	26142
819.481	26130
819.622	26438
819.762	26473
819.903	26453
820.043	26465
820.184	26351
820.324	26431
820.465	26377
820.605	26358
820.746	26206
820.886	26096
821.026	26259
821.167	26438
821.307	26377
821.447	26294
821.588	26020
821.728	26096
821.868	25776
822.008	25674
822.149	25822
822.289	25700
822.429	25468
822.569	25312
822.709	25297
822.849	25316
822.99	25156
823.13	25160
823.27	25118
823.41	24966
823.55	24875
823.69	25088
823.83	25042
823.97	24958
824.11	24783
824.25	24840
824.389	24928
824.529	24825
824.669	24802
824.809	24951
824.949	24966
825.089	24825
825.228	24848
825.368	24604
825.508	24646
825.648	24650
825.787	24779
825.927	24787
826.067	24574
826.206	24783
826.346	24821
826.485	24707
826.625	24825
826.765	24722
826.904	24764
827.044	24555
827.183	24551
827.323	24365
827.462	24642
827.601	24361
827.741	24418
827.88	24452
828.02	24232
828.159	24365
828.298	24467
828.437	24384
828.577	24357
828.716	24604
828.855	24365
828.994	24083
829.134	24163
829.273	24190
829.412	24015
829.551	24030
829.69	24106
829.829	24148
829.968	24201
830.107	24197
830.246	24155
830.385	23977
830.524	24030
830.663	23893
830.802	23855
830.941	23809
831.08	23691
831.219	23657
831.357	23840
831.496	23996
831.635	23676
831.774	23680
831.913	23623
832.051	23566
832.19	23376
832.329	23551
832.467	23459
832.606	23265
832.744	23440
832.883	23322
833.022	23364
833.16	23414
833.299	23379
833.437	23330
833.576	23353
833.714	23337
833.852	23436
833.991	23585
834.129	23600
834.267	23630
834.406	23417
834.544	23455
834.682	23368
834.821	23337
834.959	23577
835.097	23425
835.235	23417
835.373	23395
835.511	23410
835.65	23277
835.788	23170
835.926	23151
836.064	23105
836.202	23140
836.34	23235
836.478	23486
836.615	23288
836.753	23147
836.891	23345
837.029	23299
837.167	23239
837.305	23235
837.443	23162
837.58	23033
837.718	23223
837.856	23197
837.993	23025
838.131	23113
838.269	23041
838.406	23022
838.544	22972
838.681	22797
838.819	22736
838.956	22634
839.094	22493
839.231	22569
839.369	22774
839.506	23090
839.643	22968
839.781	22660
839.918	22523
840.055	22660
840.193	22672
840.33	22596
840.467	22512
840.604	22538
840.742	22904
840.879	22462
841.016	22413
841.153	22386
841.29	22679
841.427	22626
841.564	22561
841.701	22497
841.838	22584
841.975	22424
842.112	22462
842.249	22333
842.385	22360
842.522	22451
842.659	22588
842.796	22303
842.933	22204
843.069	22291
843.206	22215
843.343	22234
843.479	22337
843.616	22219
843.752	22074
843.889	22029
844.025	22287
844.162	22200
844.298	22169
844.435	22204
844.571	22078
844.708	22055
844.844	22219
844.98	22204
845.117	22219
845.253	22032
845.389	21926
845.525	21934
845.661	21797
845.798	21797
845.934	21759
846.07	21770
846.206	21880
846.342	22013
846.478	21888
846.614	21572
846.75	21545
846.886	21523
847.022	21663
847.158	21545
847.294	21698
847.429	21530
847.565	21447
847.701	21781
847.837	21272
847.972	21321
848.108	21351
848.244	21408
848.379	21272
848.515	21074
848.65	21066
848.786	21169
848.921	21188
849.057	21161
849.192	21218
849.328	21100
849.463	21142
849.598	21138
849.734	21119
849.869	20971
850.004	20925
850.14	20971
850.275	20815
850.41	20800
850.545	20899
850.68	20857
850.815	20967
850.95	20990
851.085	21051
851.22	21005
851.355	20967
851.49	20944
851.625	20876
851.76	20849
851.895	20921
852.03	20887
852.165	20937
852.299	20883
852.434	20933
852.569	20906
852.703	20895
852.838	20902
852.973	21020
853.107	21013
853.242	20788
853.376	20712
853.511	20636
853.645	20705
853.78	20785
853.914	20727
854.048	20667
854.183	20648
854.317	20735
854.451	20918
854.585	20800
854.72	20746
854.854	20811
854.988	20617
855.122	20693
855.256	20469
855.39	20640
855.524	20849
855.658	20788
855.792	20762
855.926	20743
856.06	20735
856.194	20842
856.327	20670
856.461	20602
856.595	20545
856.729	20640
856.862	20739
856.996	20727
857.13	20804
857.263	20811
857.397	20807
857.53	20792
857.664	20746
857.797	20678
857.931	20754
858.064	20651
858.197	20868
858.331	20629
858.464	20746
858.597	20575
858.731	20712
858.864	20674
858.997	20667
859.13	20708
859.263	20731
859.396	20731
859.529	20697
859.662	20693
859.795	20632
859.928	20781
860.061	20853
860.194	20872
860.327	20792
860.46	20724
860.592	20868
860.725	20868
860.858	20864
860.99	20625
861.123	20663
861.256	20632
861.388	20632
861.521	21233
861.653	20598
861.786	20537
861.918	20568
862.05	20564
862.183	20651
862.315	20575
862.447	20773
862.58	20648
862.712	20412
862.844	20389
862.976	20587
863.108	20469
863.24	20750
863.372	20385
863.504	20488
863.636	20469
863.768	20469
863.9	20454
864.032	20374
864.164	20427
864.296	20434
864.428	20537
864.559	20480
864.691	20552
864.823	20404
864.954	20377
865.086	20423
865.217	20404
865.349	20290
865.48	20358
865.612	20343
865.743	20423
865.875	20404
866.006	20351
866.137	20320
866.269	20461
866.4	20377
866.531	20176
866.662	20221
866.793	20149
866.924	20351
867.055	20275
867.186	20259
867.317	20202
867.448	20237
867.579	20298
867.71	20290
867.841	20214
867.972	20278
868.103	20237
868.233	20286
868.364	20290
868.495	20419
868.625	20560
868.756	20636
868.886	20480
869.017	20541
869.147	20644
869.278	20667
869.408	20434
869.539	20404
869.669	20629
869.799	20556
869.929	20667
870.06	20545
870.19	20914
870.32	20864
870.45	20857
870.58	20986
870.71	21112
870.84	21066
870.97	20986
871.1	20956
871.23	21180
871.36	21169
871.489	20956
871.619	21085
871.749	21108
871.879	21176
872.008	21252
872.138	21161
872.267	21131
872.397	21013
872.526	20971
872.656	20960
872.785	20895
872.915	21146
873.044	21176
873.173	21192
873.303	21169
873.432	21306
873.561	21218
873.69	21150
873.819	21169
873.948	21230
874.077	21184
874.206	21142
874.335	21123
874.464	21363
874.593	21435
874.722	21336
874.851	21466
874.979	21378
875.108	21386
875.237	21363
875.365	21233
875.494	21344
875.623	21462
875.751	21397
875.88	21443
876.008	21587
876.136	21576
876.265	21789
876.393	22006
876.521	21831
876.65	21903
876.778	21812
876.906	21682
877.034	21698
877.162	21751
877.29	21694
877.418	21823
877.546	21759
877.674	21778
877.802	21785
877.93	21732
878.058	21739
878.185	21644
878.313	21625
878.441	21743
878.568	21610
878.696	21679
878.824	21759
878.951	21903
879.079	21945
879.206	22002
879.333	21869
879.461	21838
879.588	21831
879.715	21865
879.842	22082
879.97	21846
880.097	21526
880.224	21622
880.351	21549
880.478	21504
880.605	21538
880.732	21595
880.859	21736
880.986	21561
881.112	21458
881.239	21370
881.366	21401
881.493	21256
881.619	21237
881.746	21218
881.872	21146
881.999	21058
882.125	21112
882.252	21222
882.378	21089
882.505	21112
882.631	20986
882.757	20891
882.883	20925
883.01	20975
883.136	20800
883.262	20632
883.388	20663
883.514	20842
883.64	20781
883.766	20670
883.892	20674
884.018	20716
884.143	20800
884.269	20804
884.395	20625
884.52	20408
884.646	20530
884.772	20473
884.897	20396
885.023	20431
885.148	20571
885.274	20754
885.399	20629
885.524	20461
885.65	20590
885.775	20476
885.9	20590
886.025	20602
886.15	20606
886.275	20514
886.4	20518
886.525	20518
886.65	20339
886.775	20488
886.9	20514
887.025	20621
887.149	20480
887.274	20404
887.399	20339
887.523	20275
887.648	20218
887.773	20218
887.897	20408
888.021	20240
888.146	20298
888.27	20332
888.395	20408
888.519	20324
888.643	20271
888.767	20195
888.891	20122
889.015	20077
889.139	20088
889.263	20073
889.387	20313
889.511	20427
889.635	20263
889.759	20035
889.883	20054
890.006	20145
890.13	20134
890.254	20046
890.377	19936
890.501	19913
890.624	19845
890.748	19780
890.871	19662
890.995	19567
891.118	19556
891.241	19620
891.364	19723
891.488	19799
891.611	19734
891.734	19586
891.857	19811
891.98	19632
892.103	19723
892.226	19685
892.349	19670
892.471	19510
892.594	19544
892.717	19632
892.839	19537
892.962	19594
893.085	19605
893.207	19575
893.33	19582
893.452	19529
893.575	19674
893.697	19468
893.819	19795
893.941	19856
894.064	19738
894.186	19609
894.308	19453
894.43	19734
894.552	19761
894.674	19632
894.796	19518
894.918	19548
895.04	19556
895.161	19586
895.283	19609
895.405	19491
895.526	19594
895.648	19525
895.769	19445
895.891	19616
896.012	19685
896.134	19601
896.255	19594
896.376	19605
896.498	19472
896.619	19635
896.74	19521
896.861	19655
896.982	19928
897.103	19989
897.224	19841
897.345	19788
897.466	19677
897.587	19822
897.708	19913
897.828	19921
897.949	19818
898.07	19685
898.19	19750
898.311	19883
898.431	19765
898.552	19784
898.672	19940
898.792	19811
898.913	19761
899.033	19693
899.153	19712
899.273	19514
899.393	19613
899.513	19685
899.633	19567
899.753	19613
899.873	19468
899.993	19445
900.113	19419
900.232	19563
900.352	19544
900.472	19362
900.591	19396
900.711	19316
900.83	19362
900.95	19392
901.069	19487
901.189	19339
901.308	19027
901.427	19046
901.546	18757
901.665	19114
901.784	18996
901.904	18909
902.023	18810
902.141	18582
902.26	18544
902.379	18563
902.498	18471
902.617	18429
902.735	18456
902.854	18429
902.973	18277
903.091	18178
903.21	18167
903.328	18121
903.446	18133
903.565	18022
903.683	18019
903.801	17794
903.919	17965
904.038	17889
904.156	17691
904.274	17771
904.392	17752
904.51	17729
904.627	17729
904.745	17745
904.863	17775
904.981	17577
905.098	17501
905.216	17490
905.334	17452
905.451	17368
905.569	17307
905.686	17448
905.803	17414
905.921	17159
906.038	17334
906.155	17143
906.272	17006
906.389	17102
906.506	17014
906.623	17048
906.74	16968
906.857	16812
906.974	16923
907.091	16930
907.208	16987
907.324	16904
907.441	16854
907.557	16622
907.674	16660
907.79	16603
907.907	16630
908.023	16763
908.139	16656
908.256	16554
908.372	16554
908.488	16607
908.604	16344
908.72	16314
908.836	16405
908.952	16402
909.068	16409
909.184	16436
909.3	16432
909.415	16428
909.531	16379
909.647	16128
909.762	16090
909.878	15953
909.993	16040
910.108	16124
910.224	15941
910.339	16093
910.454	16044
910.57	15876
910.685	15816
910.8	16044
910.915	15922
911.03	15907
911.145	15633
911.259	15603
911.374	15694
911.489	15656
911.604	15599
911.718	15462
911.833	15466
911.947	15401
912.062	15344
912.176	15412
912.291	15408
912.405	15511
912.519	15739
912.633	15629
912.748	15496
912.862	15412
912.976	15199
913.09	15222
913.204	15169
913.318	15344
913.431	15397
913.545	15313
913.659	15428
913.772	15195
913.886	15131
914	15066
914.113	15077
914.226	15146
914.34	15104
914.453	15032
914.566	15085
914.68	14963
914.793	14929
914.906	14743
915.019	14678
915.132	14625
915.245	14697
915.358	14663
915.47	14670
915.583	14644
915.696	14727
915.809	14720
915.921	14838
916.034	14621
916.146	14606
916.259	14682
916.371	14594
916.483	14648
916.595	14499
916.708	14590
916.82	14495
916.932	14484
917.044	14514
917.156	14400
917.268	14347
917.38	14328
917.491	14408
917.603	14366
917.715	14423
917.826	14400
917.938	14324
918.049	14164
918.161	14434
918.272	14385
918.384	14434
918.495	14275
918.606	14153
918.717	14073
918.828	14221
918.939	14153
919.05	14123
919.161	14115
919.272	13940
919.383	13940
919.494	14195
919.604	14320
919.715	14214
919.826	14096
919.936	14123
920.047	14134
920.157	14119
920.267	14374
920.378	14084
920.488	14054
920.598	14176
920.708	14400
920.818	14237
920.928	14149
921.038	14362
921.148	14332
921.258	13967
921.368	13959
921.477	13814
921.587	13803
921.697	13750
921.806	13811
921.916	13636
922.025	13529
922.134	13476
922.244	13525
922.353	13510
922.462	13324
922.571	13304
922.68	13259
922.789	13164
922.898	13179
923.007	13053
923.116	13179
923.224	13053
923.333	13145
923.442	13038
923.55	13008
923.659	12954
923.767	13126
923.876	12897
923.984	13057
924.092	12913
924.201	12871
924.309	12856
924.417	12924
924.525	12844
924.633	12856
924.741	13723
924.849	12688
924.956	12734
925.064	12612
925.172	12452
925.279	12555
925.387	12574
925.494	12665
925.602	12635
925.709	12608
925.816	12551
925.924	12521
926.031	12604
926.138	12566
926.245	12544
926.352	12418
926.459	12578
926.566	12597
926.673	12479
926.779	12338
926.886	12353
926.993	12258
927.099	12140
927.206	12102
927.312	12209
927.419	12258
927.525	12205
927.631	12144
927.737	12087
927.843	11996
927.95	11901
928.056	11946
928.162	11965
928.267	12087
928.373	12650
928.479	12026
928.585	11851
928.69	11969
928.796	11999
928.901	11942
929.007	11722
929.112	11843
929.218	11870
929.323	11745
929.428	11745
929.533	11870
929.638	11668
929.743	11627
929.848	11752
929.953	11638
930.058	11440
930.163	11395
930.267	11528
930.372	11570
930.477	11402
930.581	11608
930.685	11376
930.79	11337
930.894	11368
930.998	11277
931.103	11383
931.207	11178
931.311	11033
931.415	10953
931.519	10649
931.623	10755
