Data from test_V78500241_2286.txt Node
Date: Fri Mar 25 15:25:46 CST 2022
User: usil
Spectrometer: V785-0024
Trigger mode: 0
Integration Time (sec): 4.000000E-1
Scans to average: 1
Nonlinearity correction enabled: false
Boxcar width: 0
Storing dark spectrum: false
XAxis mode: Wavelengths
Number of Pixels in Spectrum: 1024
>>>>>Begin Spectral Data<<<<<
801.071	27637
801.214	27660
801.356	27538
801.499	27294
801.641	27245
801.783	27173
801.926	27268
802.068	27230
802.211	27123
802.353	27146
802.496	26781
802.638	26975
802.78	26853
802.923	26880
803.065	26807
803.208	26712
803.35	26826
803.492	27028
803.635	27104
803.777	26979
803.919	27017
804.061	27462
804.204	27116
804.346	26971
804.488	27062
804.63	27085
804.773	26975
804.915	27074
805.057	27150
805.199	27036
805.341	27241
805.483	27336
805.626	27222
805.768	27062
805.91	27199
806.052	27230
806.194	27176
806.336	27363
806.478	27249
806.62	27230
806.762	27332
806.904	27641
807.046	27603
807.188	27701
807.33	27644
807.472	27797
807.614	27633
807.756	27755
807.898	27443
808.04	27485
808.182	27542
808.324	27561
808.465	27625
808.607	27656
808.749	27732
808.891	27945
809.033	27975
809.174	27861
809.316	27797
809.458	27880
809.6	27739
809.741	27968
809.883	27994
810.025	28200
810.166	28086
810.308	28124
810.45	28067
810.591	28048
810.733	27808
810.875	27747
811.016	27633
811.158	27656
811.299	27949
811.441	28017
811.582	27937
811.724	27914
811.865	27835
812.007	27789
812.148	27774
812.29	27884
812.431	27994
812.573	28147
812.714	28280
812.855	28185
812.997	28329
813.138	28443
813.279	28516
813.421	28360
813.562	28356
813.703	28131
813.845	28082
813.986	27736
814.127	27686
814.268	27416
814.41	27599
814.551	27488
814.692	27515
814.833	27507
814.974	27492
815.115	27568
815.256	27462
815.397	27317
815.539	27416
815.68	27268
815.821	27302
815.962	27355
816.103	27332
816.244	27127
816.385	26960
816.526	27036
816.666	26796
816.807	26868
816.948	26842
817.089	26902
817.23	26777
817.371	26849
817.512	26819
817.653	26712
817.793	26739
817.934	26727
818.075	26785
818.216	26765
818.356	26739
818.497	26701
818.638	26503
818.778	26537
818.919	26606
819.06	26629
819.2	26606
819.341	26689
819.481	26952
819.622	26834
819.762	27116
819.903	26921
820.043	26967
820.184	26834
820.324	27028
820.465	26940
820.605	26876
820.746	26804
820.886	26811
821.026	26823
821.167	26845
821.307	26800
821.447	26887
821.588	26659
821.728	26686
821.868	26514
822.008	26183
822.149	26218
822.289	26119
822.429	26111
822.569	25864
822.709	26081
822.849	25742
822.99	25803
823.13	25685
823.27	25761
823.41	25643
823.55	25521
823.69	25537
823.83	25662
823.97	25495
824.11	25411
824.25	25419
824.389	25331
824.529	25460
824.669	25384
824.809	25548
824.949	25377
825.089	25605
825.228	25419
825.368	25137
825.508	25168
825.648	25209
825.787	25266
825.927	25369
826.067	25335
826.206	25213
826.346	25236
826.485	25206
826.625	25316
826.765	25392
826.904	25339
827.044	25000
827.183	25110
827.323	24947
827.462	25004
827.601	24901
827.741	25000
827.88	25012
828.02	24913
828.159	24856
828.298	24970
828.437	25023
828.577	24909
828.716	25015
828.855	24894
828.994	24692
829.134	24787
829.273	24783
829.412	24631
829.551	24536
829.69	24589
829.829	24681
829.968	24772
830.107	24745
830.246	24829
830.385	24631
830.524	24566
830.663	24448
830.802	24414
830.941	24388
831.08	24239
831.219	24300
831.357	24243
831.496	24528
831.635	24239
831.774	24190
831.913	24121
832.051	24060
832.19	24148
832.329	24038
832.467	24197
832.606	23904
832.744	23866
832.883	23935
833.022	23889
833.16	23973
833.299	23851
833.437	23939
833.576	23999
833.714	24136
833.852	24068
833.991	24030
834.129	24087
834.267	24095
834.406	24022
834.544	23999
834.682	24057
834.821	23958
834.959	24095
835.097	24038
835.235	24038
835.373	24011
835.511	23992
835.65	23771
835.788	23946
835.926	23874
836.064	23798
836.202	23646
836.34	23718
836.478	23889
836.615	23798
836.753	23726
836.891	23942
837.029	23809
837.167	23672
837.305	23600
837.443	23779
837.58	23665
837.718	23729
837.856	23703
837.993	23596
838.131	23627
838.269	23566
838.406	23505
838.544	23493
838.681	23231
838.819	23364
838.956	23189
839.094	23227
839.231	23265
839.369	23387
839.506	23577
839.643	23372
839.781	23098
839.918	23037
840.055	23250
840.193	23212
840.33	23132
840.467	23178
840.604	23048
840.742	23265
840.879	22942
841.016	22984
841.153	22987
841.29	23079
841.427	23033
841.564	23166
841.701	23193
841.838	22995
841.975	23071
842.112	22984
842.249	22843
842.385	22809
842.522	23022
842.659	22820
842.796	22828
842.933	22683
843.069	22786
843.206	22797
843.343	22778
843.479	22790
843.616	22771
843.752	22596
843.889	22702
844.025	22702
844.162	22516
844.298	22531
844.435	22580
844.571	22535
844.708	22588
844.844	22786
844.98	22664
845.117	22660
845.253	22535
845.389	22424
845.525	22436
845.661	22512
845.798	22375
845.934	22481
846.07	22303
846.206	22348
846.342	22504
846.478	22265
846.614	22048
846.75	22086
846.886	22128
847.022	22204
847.158	22048
847.294	22101
847.429	22078
847.565	22006
847.701	22219
847.837	21812
847.972	21720
848.108	21979
848.244	21831
848.379	21686
848.515	21644
848.65	21633
848.786	21660
848.921	21648
849.057	21736
849.192	21690
849.328	21679
849.463	21564
849.598	21507
849.734	21641
849.869	21477
850.004	21401
850.14	21481
850.275	21382
850.41	21291
850.545	21260
850.68	21294
850.815	21458
850.95	21466
851.085	21633
851.22	21496
851.355	21447
851.49	21230
851.625	21424
851.76	21386
851.895	21252
852.03	21294
852.165	21336
852.299	21424
852.434	21397
852.569	21401
852.703	21393
852.838	21507
852.973	21561
853.107	21629
853.242	21389
853.376	21245
853.511	21138
853.645	21218
853.78	21317
853.914	21332
854.048	21283
854.183	21184
854.317	21264
854.451	21359
854.585	21222
854.72	21085
854.854	21214
854.988	21176
855.122	21123
855.256	21062
855.39	21203
855.524	21233
855.658	21214
855.792	21294
855.926	21214
856.06	21256
856.194	21370
856.327	21119
856.461	21150
856.595	21233
856.729	21260
856.862	21268
856.996	21154
857.13	21374
857.263	21233
857.397	21317
857.53	21211
857.664	21294
857.797	21203
857.931	21332
858.064	21214
858.197	21332
858.331	21142
858.464	21214
858.597	20979
858.731	21184
858.864	21233
858.997	21176
859.13	21199
859.263	21207
859.396	21310
859.529	21237
859.662	21306
859.795	21165
859.928	21268
860.061	21496
860.194	21469
860.327	21222
860.46	21211
860.592	21397
860.725	21363
860.858	21359
860.99	21287
861.123	21192
861.256	21218
861.388	21218
861.521	22006
861.653	20994
861.786	21074
861.918	21089
862.05	21161
862.183	21169
862.315	21138
862.447	21199
862.58	21123
862.712	20929
862.844	20986
862.976	21119
863.108	20960
863.24	21332
863.372	20971
863.504	20937
863.636	20899
863.768	20845
863.9	20918
864.032	20868
864.164	20925
864.296	20963
864.428	21005
864.559	20975
864.691	21058
864.823	20838
864.954	20990
865.086	20937
865.217	20796
865.349	20720
865.48	20807
865.612	20823
865.743	20948
865.875	20864
866.006	20933
866.137	20712
866.269	20857
866.4	20792
866.531	20731
866.662	20769
866.793	20769
866.924	20769
867.055	20788
867.186	20807
867.317	20785
867.448	20724
867.579	20769
867.71	20720
867.841	20625
867.972	20872
868.103	20823
868.233	20811
868.364	20838
868.495	20864
868.625	20956
868.756	21127
868.886	20849
869.017	21020
869.147	21123
869.278	21062
869.408	21123
869.539	20956
869.669	21009
869.799	20941
869.929	21062
870.06	21131
870.19	21367
870.32	21218
870.45	21412
870.58	21439
870.71	21504
870.84	21538
870.97	21450
871.1	21420
871.23	21599
871.36	21690
871.489	21462
871.619	21614
871.749	21603
871.879	21671
872.008	21633
872.138	21629
872.267	21572
872.397	21443
872.526	21405
872.656	21496
872.785	21466
872.915	21656
873.044	21686
873.173	21618
873.303	21641
873.432	21679
873.561	21732
873.69	21705
873.819	21538
873.948	21701
874.077	21652
874.206	21595
874.335	21671
874.464	21778
874.593	21823
874.722	21793
874.851	21968
874.979	21918
875.108	21873
875.237	21846
875.365	21759
875.494	21797
875.623	21956
875.751	21766
875.88	21922
876.008	21903
876.136	22021
876.265	22219
876.393	22421
876.521	22295
876.65	22238
876.778	22257
876.906	22200
877.034	22169
877.162	22093
877.29	22070
877.418	22280
877.546	22211
877.674	22318
877.802	22158
877.93	22124
878.058	22036
878.185	22036
878.313	22158
878.441	22200
878.568	22013
878.696	22109
878.824	22249
878.951	22306
879.079	22451
879.206	22481
879.333	22375
879.461	22299
879.588	22299
879.715	22352
879.842	22497
879.97	22306
880.097	21975
880.224	21979
880.351	22074
880.478	22051
880.605	21876
880.732	21964
880.859	22215
880.986	22097
881.112	21930
881.239	21808
881.366	21819
881.493	21793
881.619	21637
881.746	21606
881.872	21549
881.999	21603
882.125	21515
882.252	21599
882.378	21618
882.505	21599
882.631	21359
882.757	21355
882.883	21439
883.01	21340
883.136	21283
883.262	21268
883.388	21123
883.514	21245
883.64	21245
883.766	21230
883.892	21024
884.018	21024
884.143	21233
884.269	21329
884.395	21100
884.52	21028
884.646	20933
884.772	20933
884.897	20731
885.023	20956
885.148	21051
885.274	21085
885.399	21077
885.524	20834
885.65	20975
885.775	20899
885.9	20910
886.025	21157
886.15	21058
886.275	20868
886.4	20872
886.525	21017
886.65	20792
886.775	20769
886.9	21036
887.025	21127
887.149	20876
887.274	20750
887.399	20701
887.523	20731
887.648	20724
887.773	20537
887.897	20819
888.021	20689
888.146	20670
888.27	20819
888.395	20750
888.519	20682
888.643	20739
888.767	20617
888.891	20632
889.015	20507
889.139	20495
889.263	20480
889.387	20590
889.511	20720
889.635	20590
889.759	20522
889.883	20560
890.006	20492
890.13	20606
890.254	20476
890.377	20454
890.501	20248
890.624	20130
890.748	20278
890.871	20138
890.995	19986
891.118	20031
891.241	20027
891.364	20138
891.488	20134
891.611	20202
891.734	20001
891.857	20218
891.98	19993
892.103	20138
892.226	20020
892.349	20065
892.471	19879
892.594	20046
892.717	20145
892.839	19970
892.962	19913
893.085	20073
893.207	19879
893.33	19856
893.452	19868
893.575	19982
893.697	19936
893.819	20024
893.941	20221
894.064	20100
894.186	19944
894.308	19913
894.43	20077
894.552	20073
894.674	19974
894.796	19928
894.918	19909
895.04	19875
895.161	19936
895.283	20069
895.405	19974
895.526	19959
895.648	19879
895.769	19928
895.891	20020
896.012	19963
896.134	20046
896.255	20005
896.376	19913
896.498	20024
896.619	20046
896.74	19978
896.861	20077
896.982	20393
897.103	20400
897.224	20290
897.345	20195
897.466	20225
897.587	20267
897.708	20320
897.828	20275
897.949	20195
898.07	20077
898.19	20069
898.311	20343
898.431	20073
898.552	20252
898.672	20347
898.792	20317
898.913	20225
899.033	20122
899.153	19970
899.273	19860
899.393	19909
899.513	20187
899.633	19913
899.753	19978
899.873	19830
899.993	19940
900.113	19849
900.232	20046
900.352	19879
900.472	19803
900.591	19750
900.711	19723
900.83	19757
900.95	19868
901.069	19776
901.189	19685
901.308	19480
901.427	19266
901.546	19312
901.665	19419
901.784	19236
901.904	19168
902.023	19152
902.141	18886
902.26	18928
902.379	18939
902.498	18859
902.617	18810
902.735	18932
902.854	18806
902.973	18787
903.091	18582
903.21	18410
903.328	18479
903.446	18388
903.565	18357
903.683	18308
903.801	18251
903.919	18292
904.038	18254
904.156	18133
904.274	18228
904.392	18041
904.51	18083
904.627	18110
904.745	18114
904.863	18125
904.981	17817
905.098	17832
905.216	17767
905.334	17885
905.451	17809
905.569	17703
905.686	17824
905.803	17802
905.921	17646
906.038	17661
906.155	17440
906.272	17417
906.389	17505
906.506	17452
906.623	17242
906.74	17208
906.857	17185
906.974	17170
907.091	17307
907.208	17379
907.324	17334
907.441	17166
907.557	16987
907.674	17029
907.79	16957
907.907	16984
908.023	17086
908.139	17136
908.256	16995
908.372	16881
908.488	16972
908.604	16771
908.72	16801
908.836	16702
908.952	16687
909.068	16702
909.184	16793
909.3	16793
909.415	16793
909.531	16649
909.647	16516
909.762	16402
909.878	16386
909.993	16558
910.108	16337
910.224	16379
910.339	16306
910.454	16352
910.57	16238
910.685	16192
910.8	16481
910.915	16367
911.03	16207
911.145	16048
911.259	15994
911.374	16051
911.489	16002
911.604	15926
911.718	15873
911.833	15759
911.947	15667
912.062	15690
912.176	15770
912.291	15720
912.405	15827
912.519	15979
912.633	15873
912.748	15743
912.862	15698
912.976	15603
913.09	15462
913.204	15625
913.318	15534
913.431	15682
913.545	15614
913.659	15652
913.772	15663
913.886	15496
914	15439
914.113	15466
914.226	15595
914.34	15412
914.453	15275
914.566	15393
914.68	15317
914.793	15287
914.906	15043
915.019	14960
915.132	14891
915.245	14891
915.358	14979
915.47	14963
915.583	15020
915.696	14960
915.809	15100
915.921	15077
916.034	14929
916.146	14861
916.259	14933
916.371	14982
916.483	14872
916.595	14800
916.708	14876
916.82	14849
916.932	14872
917.044	14807
917.156	14754
917.268	14587
917.38	14720
917.491	14640
917.603	14663
917.715	14750
917.826	14765
917.938	14651
918.049	14450
918.161	14617
918.272	14765
918.384	14724
918.495	14541
918.606	14480
918.717	14423
918.828	14450
918.939	14412
919.05	14419
919.161	14393
919.272	14282
919.383	14301
919.494	14362
919.604	14636
919.715	14393
919.826	14317
919.936	14313
920.047	14541
920.157	14427
920.267	14602
920.378	14362
920.488	14317
920.598	14606
920.708	14636
920.818	14518
920.928	14438
921.038	14663
921.148	14735
921.258	14396
921.368	14248
921.477	14161
921.587	14069
921.697	14039
921.806	14168
921.916	14001
922.025	13750
922.134	13753
922.244	13647
922.353	13769
922.462	13674
922.571	13590
922.68	13537
922.789	13449
922.898	13419
923.007	13339
923.116	13472
923.224	13369
923.333	13430
923.442	13289
923.55	13228
923.659	13255
923.767	13259
923.876	13202
923.984	13236
924.092	13179
924.201	13171
924.309	13187
924.417	13091
924.525	13232
924.633	13088
924.741	13803
924.849	12882
924.956	13137
925.064	12886
925.172	12829
925.279	12863
925.387	12856
925.494	12795
925.602	12962
925.709	12901
925.816	12798
925.924	12760
926.031	12890
926.138	12749
926.245	12894
926.352	12760
926.459	12825
926.566	12863
926.673	12738
926.779	12646
926.886	12585
926.993	12486
927.099	12445
927.206	12410
927.312	12353
927.419	12471
927.525	12426
927.631	12399
927.737	12254
927.843	12247
927.95	12072
928.056	12247
928.162	12319
928.267	12235
928.373	12730
928.479	12346
928.585	12106
928.69	12205
928.796	12190
928.901	12064
929.007	11916
929.112	12053
929.218	12038
929.323	12019
929.428	11927
929.533	12072
929.638	11927
929.743	11969
929.848	11847
929.953	11939
930.058	11760
930.163	11634
930.267	11630
930.372	11843
930.477	11604
930.581	11843
930.685	11756
930.79	11577
930.894	11539
930.998	11482
931.103	11691
931.207	11303
931.311	11220
931.415	11105
931.519	10911
931.623	10965
