Data from test_V78500241_1954.txt Node
Date: Fri Mar 25 15:23:27 CST 2022
User: usil
Spectrometer: V785-0024
Trigger mode: 0
Integration Time (sec): 4.000000E-1
Scans to average: 1
Nonlinearity correction enabled: false
Boxcar width: 0
Storing dark spectrum: false
XAxis mode: Wavelengths
Number of Pixels in Spectrum: 1024
>>>>>Begin Spectral Data<<<<<
801.071	27667
801.214	27625
801.356	27245
801.499	27207
801.641	27199
801.783	27165
801.926	27241
802.068	27070
802.211	27218
802.353	26906
802.496	26887
802.638	26743
802.78	26773
802.923	26845
803.065	26689
803.208	26754
803.35	26876
803.492	26918
803.635	27001
803.777	26990
803.919	27047
804.061	27260
804.204	26963
804.346	27017
804.488	26963
804.63	26956
804.773	26891
804.915	26967
805.057	27001
805.199	27066
805.341	27085
805.483	27074
805.626	27123
805.768	27089
805.91	27192
806.052	27123
806.194	26944
806.336	27279
806.478	27131
806.62	27135
806.762	27283
806.904	27500
807.046	27469
807.188	27542
807.33	27583
807.472	27549
807.614	27511
807.756	27545
807.898	27435
808.04	27245
808.182	27237
808.324	27344
808.465	27431
808.607	27675
808.749	27724
808.891	27812
809.033	27800
809.174	27850
809.316	27641
809.458	27572
809.6	27816
809.741	27831
809.883	27755
810.025	27953
810.166	28002
810.308	27850
810.45	27975
810.591	27793
810.733	27694
810.875	27720
811.016	27622
811.158	27686
811.299	27774
811.441	27926
811.582	27732
811.724	27739
811.865	27766
812.007	27648
812.148	27766
812.29	27762
812.431	27899
812.573	28147
812.714	28029
812.855	28405
812.997	28398
813.138	28432
813.279	28375
813.421	28124
813.562	28090
813.703	28010
813.845	27949
813.986	27610
814.127	27568
814.268	27408
814.41	27523
814.551	27408
814.692	27523
814.833	27378
814.974	27336
815.115	27336
815.256	27241
815.397	27329
815.539	27203
815.68	27089
815.821	27108
815.962	27260
816.103	27096
816.244	27116
816.385	26944
816.526	27001
816.666	26739
816.807	26739
816.948	26655
817.089	26708
817.23	26758
817.371	26731
817.512	26625
817.653	26720
817.793	26815
817.934	26625
818.075	26773
818.216	26815
818.356	26727
818.497	26636
818.638	26400
818.778	26412
818.919	26351
819.06	26663
819.2	26583
819.341	26648
819.481	26537
819.622	26872
819.762	27093
819.903	26929
820.043	26857
820.184	26899
820.324	26712
820.465	26842
820.605	26929
820.746	26777
820.886	26727
821.026	26724
821.167	26811
821.307	26792
821.447	26686
821.588	26640
821.728	26419
821.868	26278
822.008	26202
822.149	26119
822.289	26218
822.429	25906
822.569	25833
822.709	25913
822.849	25750
822.99	25677
823.13	25529
823.27	25567
823.41	25529
823.55	25403
823.69	25460
823.83	25476
823.97	25381
824.11	25297
824.25	25160
824.389	25133
824.529	25369
824.669	25400
824.809	25365
824.949	25430
825.089	25411
825.228	25354
825.368	25209
825.508	25179
825.648	25129
825.787	25114
825.927	25228
826.067	25088
826.206	25171
826.346	25282
826.485	25213
826.625	25129
826.765	25369
826.904	25206
827.044	24970
827.183	24932
827.323	24810
827.462	25015
827.601	24973
827.741	24859
827.88	24973
828.02	24814
828.159	24810
828.298	24939
828.437	24894
828.577	24795
828.716	25019
828.855	24878
828.994	24544
829.134	24597
829.273	24696
829.412	24551
829.551	24513
829.69	24601
829.829	24658
829.968	24589
830.107	24639
830.246	24563
830.385	24521
830.524	24441
830.663	24388
830.802	24380
830.941	24197
831.08	24247
831.219	24327
831.357	24323
831.496	24486
831.635	24163
831.774	24076
831.913	24030
832.051	23950
832.19	24057
832.329	24060
832.467	23901
832.606	23843
832.744	23851
832.883	23916
833.022	23828
833.16	23901
833.299	24018
833.437	23866
833.576	23935
833.714	24003
833.852	24011
833.991	24155
834.129	24003
834.267	23935
834.406	24106
834.544	23988
834.682	23973
834.821	24018
834.959	24144
835.097	23824
835.235	24011
835.373	23889
835.511	23897
835.65	23824
835.788	23779
835.926	23714
836.064	23653
836.202	23676
836.34	23931
836.478	23904
836.615	23786
836.753	23805
836.891	23882
837.029	23916
837.167	23589
837.305	23649
837.443	23703
837.58	23680
837.718	23733
837.856	23649
837.993	23573
838.131	23600
838.269	23608
838.406	23528
838.544	23482
838.681	23311
838.819	23250
838.956	23162
839.094	22999
839.231	23254
839.369	23261
839.506	23421
839.643	23356
839.781	23071
839.918	23075
840.055	23041
840.193	23132
840.33	23025
840.467	23014
840.604	23178
840.742	23269
840.879	22816
841.016	23003
841.153	22987
841.29	23048
841.427	23083
841.564	23090
841.701	23083
841.838	22896
841.975	22847
842.112	22934
842.249	22801
842.385	22755
842.522	23052
842.659	22717
842.796	22790
842.933	22820
843.069	22771
843.206	22752
843.343	22877
843.479	22611
843.616	22672
843.752	22413
843.889	22596
844.025	22717
844.162	22592
844.298	22546
844.435	22523
844.571	22363
844.708	22542
844.844	22733
844.98	22717
845.117	22634
845.253	22485
845.389	22382
845.525	22394
845.661	22436
845.798	22386
845.934	22341
846.07	22356
846.206	22306
846.342	22432
846.478	22162
846.614	22017
846.75	21968
846.886	21998
847.022	22074
847.158	22078
847.294	22154
847.429	22029
847.565	22025
847.701	22329
847.837	21838
847.972	21705
848.108	21804
848.244	21827
848.379	21759
848.515	21717
848.65	21724
848.786	21701
848.921	21671
849.057	21808
849.192	21656
849.328	21629
849.463	21705
849.598	21564
849.734	21450
849.869	21393
850.004	21435
850.14	21359
850.275	21511
850.41	21230
850.545	21412
850.68	21412
850.815	21340
850.95	21420
851.085	21538
851.22	21382
851.355	21291
851.49	21355
851.625	21325
851.76	21317
851.895	21283
852.03	21348
852.165	21275
852.299	21439
852.434	21454
852.569	21424
852.703	21359
852.838	21370
852.973	21515
853.107	21500
853.242	21408
853.376	21325
853.511	21043
853.645	21188
853.78	21287
853.914	21150
854.048	21207
854.183	21028
854.317	21275
854.451	21332
854.585	21226
854.72	21150
854.854	21283
854.988	21039
855.122	21176
855.256	21036
855.39	21085
855.524	21294
855.658	21237
855.792	21192
855.926	21249
856.06	21226
856.194	21154
856.327	21226
856.461	21165
856.595	21127
856.729	21146
856.862	21340
856.996	21252
857.13	21256
857.263	21386
857.397	21252
857.53	21150
857.664	21268
857.797	21424
857.931	21397
858.064	21199
858.197	21294
858.331	21135
858.464	21157
858.597	21089
858.731	21066
858.864	21226
858.997	21214
859.13	21184
859.263	21203
859.396	21291
859.529	21051
859.662	21081
859.795	21150
859.928	21237
860.061	21287
860.194	21389
860.327	21230
860.46	21287
860.592	21378
860.725	21405
860.858	21393
860.99	21173
861.123	21180
861.256	21081
861.388	21184
861.521	21812
861.653	21123
861.786	20986
861.918	20986
862.05	21142
862.183	20960
862.315	21104
862.447	21119
862.58	21222
862.712	21039
862.844	20842
862.976	21005
863.108	21047
863.24	21370
863.372	20781
863.504	20994
863.636	20937
863.768	21005
863.9	20948
864.032	20743
864.164	20807
864.296	20944
864.428	20933
864.559	21009
864.691	21055
864.823	20952
864.954	20838
865.086	20861
865.217	20727
865.349	20800
865.48	20864
865.612	20788
865.743	20944
865.875	20792
866.006	20811
866.137	20853
866.269	20906
866.4	20826
866.531	20739
866.662	20716
866.793	20762
866.924	20785
867.055	20754
867.186	20716
867.317	20697
867.448	20663
867.579	20727
867.71	20705
867.841	20636
867.972	20735
868.103	20724
868.233	20765
868.364	20781
868.495	20872
868.625	20998
868.756	21169
868.886	20941
869.017	21020
869.147	21195
869.278	21028
869.408	21005
869.539	20925
869.669	20971
869.799	21017
869.929	21085
870.06	21020
870.19	21279
870.32	21222
870.45	21370
870.58	21351
870.71	21492
870.84	21481
870.97	21397
871.1	21450
871.23	21709
871.36	21523
871.489	21606
871.619	21583
871.749	21599
871.879	21549
872.008	21530
872.138	21545
872.267	21587
872.397	21500
872.526	21481
872.656	21492
872.785	21500
872.915	21663
873.044	21568
873.173	21682
873.303	21572
873.432	21637
873.561	21682
873.69	21519
873.819	21496
873.948	21686
874.077	21439
874.206	21466
874.335	21629
874.464	21625
874.593	21838
874.722	21812
874.851	21808
874.979	21937
875.108	21945
875.237	21838
875.365	21755
875.494	21774
875.623	21987
875.751	21766
875.88	21884
876.008	21934
876.136	21964
876.265	22234
876.393	22421
876.521	22291
876.65	22280
876.778	22223
876.906	22143
877.034	22097
877.162	22204
877.29	22032
877.418	22249
877.546	22219
877.674	22238
877.802	22124
877.93	22166
878.058	22139
878.185	22093
878.313	22112
878.441	22128
878.568	21956
878.696	22051
878.824	22242
878.951	22295
879.079	22379
879.206	22459
879.333	22318
879.461	22147
879.588	22246
879.715	22375
879.842	22409
879.97	22188
880.097	22048
880.224	21922
880.351	22029
880.478	21941
880.605	21915
880.732	22040
880.859	22131
880.986	22029
881.112	22021
881.239	21911
881.366	21739
881.493	21698
881.619	21530
881.746	21622
881.872	21675
881.999	21667
882.125	21340
882.252	21644
882.378	21545
882.505	21633
882.631	21462
882.757	21348
882.883	21173
883.01	21329
883.136	21138
883.262	21173
883.388	21161
883.514	21291
883.64	21458
883.766	21195
883.892	21039
884.018	21017
884.143	21241
884.269	21287
884.395	21093
884.52	20849
884.646	20895
884.772	20929
884.897	20853
885.023	20895
885.148	21039
885.274	21116
885.399	20986
885.524	20941
885.65	20902
885.775	20998
885.9	20975
886.025	21001
886.15	21062
886.275	20788
886.4	20781
886.525	20815
886.65	20735
886.775	20861
886.9	20998
887.025	21150
887.149	20781
887.274	20743
887.399	20720
887.523	20678
887.648	20594
887.773	20594
887.897	20769
888.021	20693
888.146	20686
888.27	20712
888.395	20811
888.519	20731
888.643	20655
888.767	20746
888.891	20522
889.015	20511
889.139	20461
889.263	20469
889.387	20640
889.511	20739
889.635	20549
889.759	20442
889.883	20351
890.006	20579
890.13	20526
890.254	20400
890.377	20347
890.501	20244
890.624	20210
890.748	20252
890.871	20210
890.995	20180
891.118	20039
891.241	19997
891.364	19963
891.488	20187
891.611	19940
891.734	20020
891.857	20237
891.98	20062
892.103	20073
892.226	20107
892.349	19982
892.471	19902
892.594	19989
892.717	19902
892.839	20016
892.962	19925
893.085	20103
893.207	19989
893.33	19830
893.452	19830
893.575	20035
893.697	19951
893.819	20142
893.941	20237
894.064	20058
894.186	19883
894.308	20012
894.43	19917
894.552	20153
894.674	20008
894.796	19921
894.918	20008
895.04	19856
895.161	19986
895.283	19890
895.405	19879
895.526	20024
895.648	20027
895.769	19963
895.891	19955
896.012	20065
896.134	19974
896.255	19955
896.376	20043
896.498	19833
896.619	20031
896.74	19947
896.861	19928
896.982	20275
897.103	20381
897.224	20176
897.345	20107
897.466	19951
897.587	20225
897.708	20244
897.828	20172
897.949	20172
898.07	19963
898.19	20130
898.311	20290
898.431	20206
898.552	20115
898.672	20206
898.792	20389
898.913	20206
899.033	20054
899.153	19898
899.273	19890
899.393	19894
899.513	19909
899.633	19963
899.753	19951
899.873	19795
899.993	19959
900.113	19883
900.232	19780
900.352	19925
900.472	19807
900.591	19833
900.711	19784
900.83	19616
900.95	19772
901.069	19860
901.189	19628
901.308	19426
901.427	19343
901.546	19320
901.665	19339
901.784	19403
901.904	19194
902.023	19038
902.141	18920
902.26	18894
902.379	18989
902.498	18848
902.617	18700
902.735	18844
902.854	18753
902.973	18608
903.091	18418
903.21	18509
903.328	18407
903.446	18517
903.565	18407
903.683	18174
903.801	18178
903.919	18323
904.038	18262
904.156	18057
904.274	18171
904.392	18030
904.51	17996
904.627	17942
904.745	18076
904.863	18049
904.981	17897
905.098	17752
905.216	17786
905.334	17722
905.451	17790
905.569	17821
905.686	17634
905.803	17722
905.921	17554
906.038	17581
906.155	17512
906.272	17402
906.389	17471
906.506	17299
906.623	17356
906.74	17239
906.857	17242
906.974	17113
907.091	17337
907.208	17360
907.324	17376
907.441	17178
907.557	16953
907.674	16965
907.79	16946
907.907	16942
908.023	16980
908.139	17029
908.256	17041
908.372	16896
908.488	16862
908.604	16790
908.72	16710
908.836	16675
908.952	16683
909.068	16683
909.184	16793
909.3	16729
909.415	16755
909.531	16812
909.647	16516
909.762	16504
909.878	16405
909.993	16455
910.108	16333
910.224	16356
910.339	16375
910.454	16280
910.57	16177
910.685	16219
910.8	16402
910.915	16348
911.03	16143
911.145	16135
911.259	15991
911.374	16002
911.489	15895
911.604	15861
911.718	15804
911.833	15671
911.947	15682
912.062	15709
912.176	15804
912.291	15686
912.405	15698
912.519	15983
912.633	15922
912.748	15755
912.862	15747
912.976	15557
913.09	15481
913.204	15545
913.318	15561
913.431	15584
913.545	15652
913.659	15637
913.772	15511
913.886	15488
914	15420
914.113	15523
914.226	15504
914.34	15473
914.453	15336
914.566	15500
914.68	15218
914.793	15325
914.906	15089
915.019	15024
915.132	14967
915.245	15074
915.358	14975
915.47	14952
915.583	14990
915.696	15097
915.809	15154
915.921	15028
916.034	14937
916.146	14880
916.259	14876
916.371	15024
916.483	14937
916.595	14906
916.708	14765
916.82	14826
916.932	14811
917.044	14682
917.156	14830
917.268	14579
917.38	14670
917.491	14556
917.603	14674
917.715	14716
917.826	14800
917.938	14545
918.049	14473
918.161	14610
918.272	14762
918.384	14724
918.495	14632
918.606	14465
918.717	14343
918.828	14431
918.939	14400
919.05	14320
919.161	14355
919.272	14191
919.383	14259
919.494	14389
919.604	14549
919.715	14385
919.826	14336
919.936	14336
920.047	14454
920.157	14427
920.267	14560
920.378	14317
920.488	14244
920.598	14541
920.708	14693
920.818	14495
920.928	14511
921.038	14495
921.148	14659
921.258	14172
921.368	14290
921.477	14058
921.587	14111
921.697	14027
921.806	14081
921.916	14054
922.025	13738
922.134	13696
922.244	13715
922.353	13708
922.462	13677
922.571	13601
922.68	13495
922.789	13426
922.898	13392
923.007	13373
923.116	13438
923.224	13320
923.333	13339
923.442	13327
923.55	13247
923.659	13247
923.767	13304
923.876	13187
923.984	13270
924.092	13141
924.201	13118
924.309	13175
924.417	13091
924.525	13091
924.633	13103
924.741	13909
924.849	12913
924.956	12989
925.064	12863
925.172	12681
925.279	12802
925.387	12817
925.494	12806
925.602	13027
925.709	12878
925.816	12757
925.924	12798
926.031	12825
926.138	12715
926.245	12776
926.352	12654
926.459	12814
926.566	12844
926.673	12673
926.779	12582
926.886	12589
926.993	12445
927.099	12407
927.206	12376
927.312	12232
927.419	12452
927.525	12346
927.631	12410
927.737	12262
927.843	12292
927.95	12049
928.056	12289
928.162	12110
928.267	12205
928.373	12726
928.479	12323
928.585	12030
928.69	12079
928.796	12311
928.901	11999
929.007	12041
929.112	12022
929.218	12053
929.323	12057
929.428	11980
929.533	12049
929.638	11927
929.743	11965
929.848	11897
929.953	11843
930.058	11805
930.163	11604
930.267	11653
930.372	11779
930.477	11665
930.581	11809
930.685	11691
930.79	11539
930.894	11532
930.998	11581
931.103	11554
931.207	11280
931.311	11212
931.415	11143
931.519	10942
931.623	10869
