Data from test_V78500241_79.txt Node
Date: Fri Mar 25 15:10:24 CST 2022
User: usil
Spectrometer: V785-0024
Trigger mode: 0
Integration Time (sec): 4.000000E-1
Scans to average: 1
Nonlinearity correction enabled: false
Boxcar width: 0
Storing dark spectrum: false
XAxis mode: Wavelengths
Number of Pixels in Spectrum: 1024
>>>>>Begin Spectral Data<<<<<
801.071	28615
801.214	28500
801.356	28459
801.499	28234
801.641	28143
801.783	28101
801.926	28215
802.068	28105
802.211	27884
802.353	27991
802.496	27823
802.638	27759
802.78	27648
802.923	27591
803.065	27572
803.208	27625
803.35	27728
803.492	27797
803.635	27850
803.777	27698
803.919	27827
804.061	28093
804.204	27930
804.346	27690
804.488	27614
804.63	27823
804.773	27774
804.915	27675
805.057	27778
805.199	27827
805.341	27865
805.483	27865
805.626	27804
805.768	27709
805.91	27835
806.052	27899
806.194	27823
806.336	27968
806.478	27892
806.62	27934
806.762	27873
806.904	28086
807.046	28371
807.188	28344
807.33	28261
807.472	28265
807.614	28246
807.756	28204
807.898	28207
808.04	27838
808.182	28040
808.324	28101
808.465	27945
808.607	28234
808.749	28246
808.891	28348
809.033	28421
809.174	28428
809.316	28356
809.458	28447
809.6	28306
809.741	28382
809.883	28531
810.025	28451
810.166	28550
810.308	28580
810.45	28622
810.591	28451
810.733	28200
810.875	28223
811.016	28268
811.158	28135
811.299	28299
811.441	28306
811.582	28356
811.724	28390
811.865	28322
812.007	28257
812.148	28295
812.29	28200
812.431	28485
812.573	28630
812.714	28801
812.855	28881
812.997	28774
813.138	28919
813.279	28980
813.421	28752
813.562	28767
813.703	28683
813.845	28466
813.986	28162
814.127	28017
814.268	28002
814.41	27888
814.551	27873
814.692	27926
814.833	27911
814.974	27876
815.115	27873
815.256	27713
815.397	27808
815.539	27656
815.68	27633
815.821	27450
815.962	27762
816.103	27644
816.244	27447
816.385	27401
816.526	27332
816.666	27199
816.807	27047
816.948	27047
817.089	27260
817.23	27154
817.371	27055
817.512	27108
817.653	27180
817.793	26982
817.934	27036
818.075	27066
818.216	27032
818.356	26994
818.497	26956
818.638	26826
818.778	26720
818.919	26701
819.06	26708
819.2	26785
819.341	26960
819.481	26880
819.622	27047
819.762	27218
819.903	27214
820.043	27020
820.184	26994
820.324	27001
820.465	27085
820.605	27146
820.746	26986
820.886	26842
821.026	27036
821.167	27032
821.307	27116
821.447	26940
821.588	26773
821.728	26731
821.868	26571
822.008	26473
822.149	26317
822.289	26336
822.429	26119
822.569	26115
822.709	26119
822.849	25807
822.99	25849
823.13	25795
823.27	25803
823.41	25643
823.55	25632
823.69	25731
823.83	25704
823.97	25548
824.11	25518
824.25	25304
824.389	25343
824.529	25457
824.669	25422
824.809	25548
824.949	25457
825.089	25483
825.228	25365
825.368	25255
825.508	25263
825.648	25278
825.787	25293
825.927	25225
826.067	25263
826.206	25156
826.346	25293
826.485	25263
826.625	25228
826.765	25381
826.904	25114
827.044	24954
827.183	24905
827.323	24924
827.462	24973
827.601	24928
827.741	24981
827.88	24958
828.02	24798
828.159	24894
828.298	24871
828.437	24852
828.577	24802
828.716	25004
828.855	24802
828.994	24578
829.134	24574
829.273	24677
829.412	24547
829.551	24547
829.69	24544
829.829	24669
829.968	24631
830.107	24582
830.246	24521
830.385	24418
830.524	24525
830.663	24277
830.802	24308
830.941	24182
831.08	23992
831.219	24190
831.357	24232
831.496	24365
831.635	24022
831.774	24026
831.913	24003
832.051	23832
832.19	23882
832.329	23851
832.467	23786
832.606	23722
832.744	23748
832.883	23805
833.022	23623
833.16	23874
833.299	23741
833.437	23840
833.576	23741
833.714	23726
833.852	23786
833.991	23741
834.129	23828
834.267	23836
834.406	23752
834.544	23748
834.682	23589
834.821	23714
834.959	23832
835.097	23551
835.235	23794
835.373	23638
835.511	23821
835.65	23668
835.788	23570
835.926	23463
836.064	23280
836.202	23315
836.34	23589
836.478	23623
836.615	23562
836.753	23528
836.891	23707
837.029	23615
837.167	23452
837.305	23414
837.443	23402
837.58	23356
837.718	23474
837.856	23322
837.993	23258
838.131	23429
838.269	23162
838.406	23311
838.544	23239
838.681	23052
838.819	22930
838.956	22858
839.094	22889
839.231	22812
839.369	22961
839.506	23174
839.643	22991
839.781	22706
839.918	22744
840.055	22744
840.193	22763
840.33	22767
840.467	22752
840.604	22672
840.742	22995
840.879	22542
841.016	22615
841.153	22584
841.29	22881
841.427	22626
841.564	22668
841.701	22725
841.838	22637
841.975	22672
842.112	22702
842.249	22447
842.385	22363
842.522	22672
842.659	22447
842.796	22356
842.933	22265
843.069	22394
843.206	22356
843.343	22474
843.479	22341
843.616	22432
843.752	22238
843.889	22147
844.025	22299
844.162	22147
844.298	22219
844.435	22051
844.571	22139
844.708	22242
844.844	22306
844.98	22192
845.117	22287
845.253	22029
845.389	21895
845.525	21975
845.661	21941
845.798	21838
845.934	21876
846.07	21804
846.206	21926
846.342	21998
846.478	21854
846.614	21523
846.75	21641
846.886	21500
847.022	21561
847.158	21698
847.294	21599
847.429	21534
847.565	21568
847.701	21656
847.837	21340
847.972	21294
848.108	21458
848.244	21428
848.379	21249
848.515	21070
848.65	21085
848.786	21127
848.921	21051
849.057	21192
849.192	21218
849.328	21116
849.463	21165
849.598	21207
849.734	20941
849.869	21028
850.004	20918
850.14	20979
850.275	20941
850.41	20804
850.545	20796
850.68	20811
850.815	20918
850.95	20735
851.085	20963
851.22	20982
851.355	20872
851.49	20842
851.625	20826
851.76	20861
851.895	20708
852.03	20670
852.165	20849
852.299	20815
852.434	20838
852.569	20727
852.703	20857
852.838	20792
852.973	20906
853.107	20880
853.242	20735
853.376	20644
853.511	20514
853.645	20590
853.78	20720
853.914	20705
854.048	20442
854.183	20632
854.317	20636
854.451	20823
854.585	20674
854.72	20602
854.854	20743
854.988	20598
855.122	20651
855.256	20431
855.39	20655
855.524	20765
855.658	20693
855.792	20640
855.926	20659
856.06	20568
856.194	20769
856.327	20613
856.461	20541
856.595	20663
856.729	20617
856.862	20739
856.996	20705
857.13	20606
857.263	20705
857.397	20686
857.53	20644
857.664	20613
857.797	20743
857.931	20785
858.064	20598
858.197	20708
858.331	20530
858.464	20564
858.597	20442
858.731	20575
858.864	20499
858.997	20598
859.13	20492
859.263	20636
859.396	20587
859.529	20530
859.662	20549
859.795	20583
859.928	20541
860.061	20834
860.194	20788
860.327	20621
860.46	20514
860.592	20564
860.725	20621
860.858	20636
860.99	20575
861.123	20518
861.256	20609
861.388	20522
861.521	21150
861.653	20492
861.786	20374
861.918	20370
862.05	20556
862.183	20583
862.315	20648
862.447	20765
862.58	20621
862.712	20259
862.844	20237
862.976	20309
863.108	20389
863.24	20712
863.372	20138
863.504	20328
863.636	20271
863.768	20324
863.9	20191
864.032	20103
864.164	20229
864.296	20286
864.428	20415
864.559	20343
864.691	20206
864.823	20229
864.954	20218
865.086	20210
865.217	20221
865.349	20043
865.48	20233
865.612	20069
865.743	20423
865.875	20332
866.006	20161
866.137	20218
866.269	20062
866.4	20050
866.531	20115
866.662	20054
866.793	20149
866.924	20024
867.055	20122
867.186	20153
867.317	20016
867.448	20046
867.579	20111
867.71	20058
867.841	19986
867.972	20130
868.103	20153
868.233	20039
868.364	20100
868.495	20164
868.625	20362
868.756	20374
868.886	20199
869.017	20206
869.147	20396
869.278	20495
869.408	20336
869.539	20305
869.669	20412
869.799	20415
869.929	20495
870.06	20408
870.19	20518
870.32	20659
870.45	20579
870.58	20720
870.71	20834
870.84	20678
870.97	20621
871.1	20655
871.23	20933
871.36	20788
871.489	20735
871.619	20921
871.749	20895
871.879	20948
872.008	20963
872.138	21032
872.267	20952
872.397	20834
872.526	20712
872.656	20682
872.785	20781
872.915	20948
873.044	20876
873.173	20887
873.303	20918
873.432	21051
873.561	20963
873.69	20952
873.819	20963
873.948	21062
874.077	20864
874.206	20826
874.335	20902
874.464	21074
874.593	21116
874.722	21180
874.851	21192
874.979	21195
875.108	21218
875.237	21131
875.365	21081
875.494	21112
875.623	21222
875.751	21089
875.88	21214
876.008	21412
876.136	21294
876.265	21671
876.393	21686
876.521	21568
876.65	21644
876.778	21587
876.906	21583
877.034	21564
877.162	21526
877.29	21488
877.418	21564
877.546	21519
877.674	21549
877.802	21523
877.93	21534
878.058	21545
878.185	21355
878.313	21583
878.441	21583
878.568	21389
878.696	21428
878.824	21694
878.951	21663
879.079	21648
879.206	21804
879.333	21717
879.461	21690
879.588	21778
879.715	21747
879.842	21880
879.97	21644
880.097	21363
880.224	21363
880.351	21447
880.478	21355
880.605	21348
880.732	21397
880.859	21561
880.986	21382
881.112	21344
881.239	21233
881.366	21089
881.493	21005
881.619	20986
881.746	21001
881.872	21020
881.999	20857
882.125	20861
882.252	20952
882.378	21036
882.505	21024
882.631	20906
882.757	20792
882.883	20773
883.01	20746
883.136	20667
883.262	20587
883.388	20545
883.514	20613
883.64	20689
883.766	20667
883.892	20522
884.018	20575
884.143	20667
884.269	20754
884.395	20473
884.52	20396
884.646	20454
884.772	20313
884.897	20381
885.023	20324
885.148	20355
885.274	20499
885.399	20476
885.524	20385
885.65	20404
885.775	20210
885.9	20336
886.025	20461
886.15	20366
886.275	20244
886.4	20172
886.525	20263
886.65	20278
886.775	20157
886.9	20389
887.025	20465
887.149	20355
887.274	20046
887.399	19955
887.523	20035
887.648	20050
887.773	19875
887.897	20157
888.021	20103
888.146	20111
888.27	20145
888.395	20202
888.519	20134
888.643	20111
888.767	20161
888.891	20020
889.015	19917
889.139	19894
889.263	19913
889.387	20142
889.511	20054
889.635	20031
889.759	19769
889.883	19868
890.006	19963
890.13	20027
890.254	19761
890.377	19704
890.501	19620
890.624	19510
890.748	19590
890.871	19422
890.995	19373
891.118	19343
891.241	19403
891.364	19510
891.488	19464
891.611	19438
891.734	19407
891.857	19460
891.98	19419
892.103	19578
892.226	19392
892.349	19518
892.471	19282
892.594	19388
892.717	19476
892.839	19362
892.962	19411
893.085	19400
893.207	19289
893.33	19190
893.452	19244
893.575	19411
893.697	19362
893.819	19529
893.941	19499
894.064	19518
894.186	19358
894.308	19266
894.43	19369
894.552	19567
894.674	19430
894.796	19312
894.918	19362
895.04	19343
895.161	19434
895.283	19434
895.405	19240
895.526	19422
895.648	19438
895.769	19369
895.891	19518
896.012	19495
896.134	19419
896.255	19422
896.376	19411
896.498	19388
896.619	19407
896.74	19339
896.861	19609
896.982	19750
897.103	19795
897.224	19651
897.345	19556
897.466	19563
897.587	19643
897.708	19780
897.828	19712
897.949	19559
898.07	19464
898.19	19605
898.311	19594
898.431	19514
898.552	19613
898.672	19696
898.792	19605
898.913	19537
899.033	19445
899.153	19415
899.273	19350
899.393	19339
899.513	19304
899.633	19373
899.753	19339
899.873	19304
899.993	19308
900.113	19171
900.232	19274
900.352	19335
900.472	19129
900.591	19065
900.711	19103
900.83	19080
900.95	19270
901.069	19228
901.189	19076
901.308	18783
901.427	18787
901.546	18711
901.665	18795
901.784	18791
901.904	18612
902.023	18559
902.141	18311
902.26	18254
902.379	18235
902.498	18140
902.617	18171
902.735	18171
902.854	18174
902.973	18041
903.091	17931
903.21	17939
903.328	17954
903.446	17843
903.565	17786
903.683	17649
903.801	17524
903.919	17653
904.038	17630
904.156	17448
904.274	17585
904.392	17398
904.51	17482
904.627	17425
904.745	17501
904.863	17505
904.981	17353
905.098	17143
905.216	17162
905.334	17223
905.451	17090
905.569	17041
905.686	17079
905.803	17105
905.921	16999
906.038	17045
906.155	16976
906.272	16908
906.389	16889
906.506	16702
906.623	16755
906.74	16672
906.857	16546
906.974	16577
907.091	16790
907.208	16763
907.324	16679
907.441	16622
907.557	16325
907.674	16443
907.79	16348
907.907	16337
908.023	16421
908.139	16447
908.256	16284
908.372	16287
908.488	16246
908.604	16112
908.72	16048
908.836	15987
908.952	15998
909.068	16040
909.184	16238
909.3	16051
909.415	16055
909.531	16048
909.647	15827
909.762	15808
909.878	15759
909.993	15732
910.108	15873
910.224	15637
910.339	15717
910.454	15584
910.57	15572
910.685	15538
910.8	15808
910.915	15774
911.03	15530
911.145	15256
911.259	15279
911.374	15412
911.489	15256
911.604	15268
911.718	15047
911.833	15024
911.947	14948
912.062	14868
912.176	15036
912.291	15055
912.405	15017
912.519	15256
912.633	15268
912.748	15157
912.862	14944
912.976	14929
913.09	14864
913.204	14842
913.318	14902
913.431	14883
913.545	15020
913.659	15112
913.772	14777
913.886	14796
914	14686
914.113	14845
914.226	14849
914.34	14758
914.453	14621
914.566	14785
914.68	14613
914.793	14674
914.906	14385
915.019	14347
915.132	14225
915.245	14412
915.358	14362
915.47	14431
915.583	14377
915.696	14450
915.809	14518
915.921	14560
916.034	14309
916.146	14240
916.259	14347
916.371	14347
916.483	14290
916.595	14237
916.708	14115
916.82	14324
916.932	14145
917.044	14092
917.156	14134
917.268	14077
917.38	14115
917.491	14005
917.603	14043
917.715	14142
917.826	14153
917.938	13921
918.049	13852
918.161	13928
918.272	14290
918.384	14073
918.495	14016
918.606	13902
918.717	13761
918.828	13921
918.939	13879
919.05	13708
919.161	13849
919.272	13590
919.383	13696
919.494	13906
919.604	14024
919.715	13837
919.826	13742
919.936	13803
920.047	13811
920.157	13788
920.267	14119
920.378	13738
920.488	13784
920.598	13887
920.708	14149
920.818	13955
920.928	13875
921.038	14111
921.148	14024
921.258	13750
921.368	13567
921.477	13636
921.587	13548
921.697	13457
921.806	13514
921.916	13434
922.025	13232
922.134	13103
922.244	13095
922.353	13217
922.462	13053
922.571	12989
922.68	12875
922.789	12707
922.898	12791
923.007	12795
923.116	12894
923.224	12833
923.333	12749
923.442	12688
923.55	12703
923.659	12665
923.767	12650
923.876	12662
923.984	12654
924.092	12650
924.201	12681
924.309	12582
924.417	12635
924.525	12494
924.633	12566
924.741	13285
924.849	12216
924.956	12437
925.064	12391
925.172	12213
925.279	12216
925.387	12410
925.494	12251
925.602	12441
925.709	12384
925.816	12136
925.924	12266
926.031	12292
926.138	12292
926.245	12353
926.352	12159
926.459	12266
926.566	12266
926.673	12144
926.779	12110
926.886	12060
926.993	11935
927.099	11863
927.206	11817
927.312	11824
927.419	11851
927.525	11859
927.631	11908
927.737	11733
927.843	11661
927.95	11608
928.056	11649
928.162	11752
928.267	11695
928.373	12403
928.479	11809
928.585	11581
928.69	11661
928.796	11729
928.901	11562
929.007	11493
929.112	11554
929.218	11516
929.323	11482
929.428	11440
929.533	11528
929.638	11402
929.743	11376
929.848	11467
929.953	11337
930.058	11292
930.163	11132
930.267	11105
930.372	11250
930.477	11185
930.581	11349
930.685	11143
930.79	10972
930.894	11075
930.998	10991
931.103	11113
931.207	10771
931.311	10672
931.415	10637
931.519	10474
931.623	10405
