Data from test_V78500241_1978.txt Node
Date: Fri Mar 25 15:23:37 CST 2022
User: usil
Spectrometer: V785-0024
Trigger mode: 0
Integration Time (sec): 4.000000E-1
Scans to average: 1
Nonlinearity correction enabled: false
Boxcar width: 0
Storing dark spectrum: false
XAxis mode: Wavelengths
Number of Pixels in Spectrum: 1024
>>>>>Begin Spectral Data<<<<<
801.071	27732
801.214	27724
801.356	27477
801.499	27477
801.641	27245
801.783	27378
801.926	27336
802.068	27256
802.211	27306
802.353	27150
802.496	26880
802.638	27123
802.78	27043
802.923	26834
803.065	26864
803.208	26895
803.35	27001
803.492	26975
803.635	27104
803.777	26883
803.919	27180
804.061	27511
804.204	27195
804.346	27195
804.488	27096
804.63	27173
804.773	27104
804.915	27184
805.057	27291
805.199	27241
805.341	27233
805.483	27245
805.626	27359
805.768	27203
805.91	27203
806.052	27222
806.194	27275
806.336	27435
806.478	27279
806.62	27260
806.762	27530
806.904	27587
807.046	27800
807.188	27736
807.33	27724
807.472	27831
807.614	27690
807.756	27599
807.898	27530
808.04	27466
808.182	27500
808.324	27583
808.465	27629
808.607	27789
808.749	27934
808.891	27930
809.033	28006
809.174	27914
809.316	27934
809.458	27975
809.6	28010
809.741	28131
809.883	28166
810.025	28173
810.166	28154
810.308	28185
810.45	28329
810.591	28143
810.733	27895
810.875	27816
811.016	27755
811.158	27728
811.299	27964
811.441	27994
811.582	28029
811.724	28040
811.865	27857
812.007	27956
812.148	27850
812.29	27907
812.431	28143
812.573	28150
812.714	28303
812.855	28394
812.997	28504
813.138	28687
813.279	28485
813.421	28382
813.562	28440
813.703	28223
813.845	28143
813.986	27861
814.127	27728
814.268	27564
814.41	27671
814.551	27652
814.692	27603
814.833	27580
814.974	27610
815.115	27557
815.256	27500
815.397	27580
815.539	27557
815.68	27370
815.821	27367
815.962	27359
816.103	27435
816.244	27325
816.385	27203
816.526	27279
816.666	26998
816.807	26891
816.948	26937
817.089	27062
817.23	27036
817.371	26910
817.512	26853
817.653	26921
817.793	26910
817.934	26883
818.075	26929
818.216	26785
818.356	26876
818.497	26724
818.638	26792
818.778	26682
818.919	26648
819.06	26705
819.2	26857
819.341	26868
819.481	26975
819.622	27001
819.762	27222
819.903	27116
820.043	26986
820.184	27013
820.324	27062
820.465	27024
820.605	26944
820.746	27066
820.886	26914
821.026	26994
821.167	26762
821.307	26967
821.447	26899
821.588	27001
821.728	26602
821.868	26514
822.008	26298
822.149	26377
822.289	26271
822.429	26115
822.569	26031
822.709	26008
822.849	25830
822.99	25856
823.13	25883
823.27	25917
823.41	25738
823.55	25620
823.69	25833
823.83	25651
823.97	25780
824.11	25502
824.25	25510
824.389	25392
824.529	25670
824.669	25518
824.809	25521
824.949	25571
825.089	25655
825.228	25540
825.368	25308
825.508	25422
825.648	25468
825.787	25384
825.927	25430
826.067	25362
826.206	25403
826.346	25407
826.485	25521
826.625	25460
826.765	25491
826.904	25422
827.044	25251
827.183	25148
827.323	25095
827.462	25282
827.601	25137
827.741	25046
827.88	25015
828.02	25042
828.159	25133
828.298	25107
828.437	25198
828.577	25164
828.716	25103
828.855	25057
828.994	24814
829.134	24867
829.273	24886
829.412	24817
829.551	24772
829.69	24924
829.829	24791
829.968	24989
830.107	24802
830.246	24730
830.385	24776
830.524	24829
830.663	24585
830.802	24608
830.941	24544
831.08	24315
831.219	24525
831.357	24410
831.496	24673
831.635	24426
831.774	24445
831.913	24277
832.051	24251
832.19	24220
832.329	24178
832.467	24091
832.606	24034
832.744	24038
832.883	24133
833.022	24011
833.16	24057
833.299	24076
833.437	24213
833.576	24220
833.714	24174
833.852	24083
833.991	24220
834.129	24258
834.267	24232
834.406	24163
834.544	24136
834.682	24110
834.821	24125
834.959	24365
835.097	24083
835.235	24121
835.373	24148
835.511	24136
835.65	24041
835.788	23984
835.926	23923
836.064	23703
836.202	23783
836.34	23931
836.478	24022
836.615	23916
836.753	24011
836.891	24140
837.029	24034
837.167	23992
837.305	23878
837.443	23847
837.58	23824
837.718	23809
837.856	23832
837.993	23840
838.131	23851
838.269	23771
838.406	23821
838.544	23653
838.681	23611
838.819	23493
838.956	23353
839.094	23376
839.231	23330
839.369	23414
839.506	23737
839.643	23573
839.781	23292
839.918	23326
840.055	23406
840.193	23288
840.33	23311
840.467	23284
840.604	23326
840.742	23581
840.879	23056
841.016	23200
841.153	23086
841.29	23311
841.427	23117
841.564	23299
841.701	23162
841.838	23083
841.975	23155
842.112	23204
842.249	23083
842.385	23006
842.522	23147
842.659	23037
842.796	23041
842.933	22980
843.069	22946
843.206	22938
843.343	23048
843.479	23014
843.616	23083
843.752	22759
843.889	22717
844.025	22968
844.162	22828
844.298	22812
844.435	22752
844.571	22698
844.708	22812
844.844	22965
844.98	23029
845.117	22900
845.253	22725
845.389	22641
845.525	22679
845.661	22618
845.798	22493
845.934	22618
846.07	22516
846.206	22470
846.342	22637
846.478	22470
846.614	22268
846.75	22078
846.886	22318
847.022	22371
847.158	22356
847.294	22234
847.429	22246
847.565	22177
847.701	22413
847.837	21968
847.972	21975
848.108	22188
848.244	22055
848.379	21857
848.515	21850
848.65	21751
848.786	21743
848.921	21816
849.057	21800
849.192	21945
849.328	21873
849.463	21892
849.598	21686
849.734	21743
849.869	21724
850.004	21622
850.14	21644
850.275	21580
850.41	21606
850.545	21469
850.68	21583
850.815	21576
850.95	21591
851.085	21808
851.22	21732
851.355	21542
851.49	21458
851.625	21443
851.76	21622
851.895	21462
852.03	21424
852.165	21625
852.299	21568
852.434	21717
852.569	21618
852.703	21580
852.838	21504
852.973	21656
853.107	21652
853.242	21488
853.376	21496
853.511	21264
853.645	21447
853.78	21519
853.914	21428
854.048	21272
854.183	21389
854.317	21363
854.451	21641
854.585	21504
854.72	21447
854.854	21496
854.988	21340
855.122	21382
855.256	21252
855.39	21511
855.524	21435
855.658	21325
855.792	21401
855.926	21393
856.06	21553
856.194	21408
856.327	21374
856.461	21367
856.595	21283
856.729	21310
856.862	21420
856.996	21412
857.13	21530
857.263	21545
857.397	21492
857.53	21367
857.664	21443
857.797	21408
857.931	21583
858.064	21454
858.197	21504
858.331	21310
858.464	21405
858.597	21351
858.731	21454
858.864	21405
858.997	21283
859.13	21359
859.263	21473
859.396	21557
859.529	21359
859.662	21473
859.795	21344
859.928	21424
860.061	21599
860.194	21568
860.327	21477
860.46	21443
860.592	21500
860.725	21530
860.858	21488
860.99	21477
861.123	21310
861.256	21336
861.388	21359
861.521	22025
861.653	21260
861.786	21214
861.918	21241
862.05	21287
862.183	21199
862.315	21291
862.447	21393
862.58	21294
862.712	21131
862.844	21138
862.976	21237
863.108	21157
863.24	21572
863.372	21058
863.504	21066
863.636	21028
863.768	21165
863.9	21085
864.032	21036
864.164	21093
864.296	21047
864.428	21218
864.559	21222
864.691	21169
864.823	21047
864.954	21005
865.086	21116
865.217	21062
865.349	20986
865.48	21043
865.612	20990
865.743	21218
865.875	21066
866.006	20982
866.137	21070
866.269	21005
866.4	21017
866.531	20986
866.662	20975
866.793	20834
866.924	21108
867.055	21032
867.186	20986
867.317	20929
867.448	20731
867.579	20971
867.71	20708
867.841	20857
867.972	20925
868.103	20960
868.233	20967
868.364	20925
868.495	21028
868.625	21230
868.756	21268
868.886	21112
869.017	21165
869.147	21264
869.278	21279
869.408	21260
869.539	21184
869.669	21260
869.799	21096
869.929	21340
870.06	21245
870.19	21564
870.32	21500
870.45	21386
870.58	21553
870.71	21720
870.84	21652
870.97	21545
871.1	21606
871.23	21629
871.36	21682
871.489	21660
871.619	21717
871.749	21717
871.879	21861
872.008	21899
872.138	21823
872.267	21812
872.397	21652
872.526	21530
872.656	21652
872.785	21538
872.915	21861
873.044	21880
873.173	21686
873.303	21747
873.432	21945
873.561	21888
873.69	21899
873.819	21804
873.948	21903
874.077	21850
874.206	21831
874.335	21679
874.464	21816
874.593	22109
874.722	21960
874.851	22177
874.979	22010
875.108	22154
875.237	21903
875.365	21819
875.494	22082
875.623	22048
875.751	22051
875.88	21956
876.008	22226
876.136	22143
876.265	22603
876.393	22615
876.521	22470
876.65	22535
876.778	22299
876.906	22413
877.034	22363
877.162	22440
877.29	22314
877.418	22375
877.546	22291
877.674	22428
877.802	22280
877.93	22363
878.058	22344
878.185	22280
878.313	22257
878.441	22356
878.568	22249
878.696	22242
878.824	22386
878.951	22284
879.079	22462
879.206	22577
879.333	22394
879.461	22481
879.588	22569
879.715	22596
879.842	22736
879.97	22386
880.097	22105
880.224	22090
880.351	22124
880.478	22223
880.605	22226
880.732	22234
880.859	22291
880.986	22150
881.112	22234
881.239	22044
881.366	21888
881.493	21945
881.619	21838
881.746	21789
881.872	21717
881.999	21686
882.125	21724
882.252	21850
882.378	21736
882.505	21907
882.631	21622
882.757	21519
882.883	21534
883.01	21420
883.136	21370
883.262	21439
883.388	21313
883.514	21336
883.64	21595
883.766	21313
883.892	21214
884.018	21237
884.143	21443
884.269	21420
884.395	21180
884.52	21138
884.646	21157
884.772	21154
884.897	21013
885.023	21127
885.148	21268
885.274	21256
885.399	21203
885.524	21047
885.65	21047
885.775	21108
885.9	20967
886.025	21260
886.15	21096
886.275	21036
886.4	21043
886.525	21131
886.65	21104
886.775	20948
886.9	21268
887.025	21336
887.149	21066
887.274	21020
887.399	20792
887.523	20826
887.648	20979
887.773	20826
887.897	20948
888.021	20899
888.146	20769
888.27	20994
888.395	20918
888.519	20826
888.643	20849
888.767	20899
888.891	20857
889.015	20708
889.139	20693
889.263	20644
889.387	20663
889.511	20902
889.635	20606
889.759	20556
889.883	20640
890.006	20648
890.13	20705
890.254	20549
890.377	20648
890.501	20408
890.624	20358
890.748	20579
890.871	20301
890.995	20267
891.118	20149
891.241	20343
891.364	20324
891.488	20347
891.611	20248
891.734	20309
891.857	20256
891.98	20320
892.103	20400
892.226	20176
892.349	20202
892.471	20039
892.594	20294
892.717	20191
892.839	20168
892.962	20153
893.085	20157
893.207	20164
893.33	20058
893.452	20043
893.575	20130
893.697	20100
893.819	20244
893.941	20358
894.064	20252
894.186	20153
894.308	19989
894.43	20183
894.552	20259
894.674	20122
894.796	20096
894.918	20168
895.04	20100
895.161	20180
895.283	20172
895.405	20153
895.526	20145
895.648	20050
895.769	20088
895.891	20278
896.012	20168
896.134	20218
896.255	20138
896.376	20180
896.498	20119
896.619	20221
896.74	20187
896.861	20267
896.982	20457
897.103	20609
897.224	20377
897.345	20324
897.466	20275
897.587	20313
897.708	20412
897.828	20465
897.949	20286
898.07	20092
898.19	20294
898.311	20454
898.431	20309
898.552	20336
898.672	20533
898.792	20427
898.913	20366
899.033	20347
899.153	20157
899.273	20122
899.393	20122
899.513	20157
899.633	20168
899.753	20092
899.873	20062
899.993	20180
900.113	20001
900.232	20149
900.352	19989
900.472	19826
900.591	19833
900.711	19902
900.83	19811
900.95	19944
901.069	19989
901.189	19723
901.308	19476
901.427	19388
901.546	19518
901.665	19400
901.784	19483
901.904	19388
902.023	19270
902.141	19187
902.26	18935
902.379	19095
902.498	19008
902.617	18905
902.735	18989
902.854	18954
902.973	18958
903.091	18696
903.21	18597
903.328	18601
903.446	18536
903.565	18456
903.683	18513
903.801	18380
903.919	18399
904.038	18422
904.156	18266
904.274	18289
904.392	18083
904.51	18285
904.627	18159
904.745	18186
904.863	18174
904.981	18041
905.098	17878
905.216	17878
905.334	17969
905.451	17863
905.569	17980
905.686	18015
905.803	17794
905.921	17661
906.038	17798
906.155	17566
906.272	17535
906.389	17459
906.506	17402
906.623	17368
906.74	17376
906.857	17299
906.974	17280
907.091	17448
907.208	17429
907.324	17516
907.441	17322
907.557	17242
907.674	17071
907.79	17223
907.907	17151
908.023	17113
908.139	17071
908.256	17037
908.372	17037
908.488	16946
908.604	16915
908.72	16858
908.836	16923
908.952	16831
909.068	16953
909.184	16987
909.3	16801
909.415	16873
909.531	16812
909.647	16577
909.762	16599
909.878	16580
909.993	16641
910.108	16546
910.224	16500
910.339	16500
910.454	16432
910.57	16333
910.685	16295
910.8	16523
910.915	16542
911.03	16344
911.145	16162
911.259	16196
911.374	16143
911.489	16166
911.604	15975
911.718	15911
911.833	15975
911.947	15698
912.062	15724
912.176	15934
912.291	15892
912.405	15770
912.519	15994
912.633	16040
912.748	15968
912.862	15831
912.976	15770
913.09	15564
913.204	15690
913.318	15663
913.431	15869
913.545	15724
913.659	15907
913.772	15797
913.886	15526
914	15428
914.113	15545
914.226	15580
914.34	15637
914.453	15450
914.566	15504
914.68	15298
914.793	15340
914.906	15230
915.019	15119
915.132	15062
915.245	15119
915.358	15119
915.47	15138
915.583	15180
915.696	15100
915.809	15173
915.921	15188
916.034	15093
916.146	15036
916.259	14944
916.371	15017
916.483	15112
916.595	14880
916.708	14910
916.82	14944
916.932	14735
917.044	14842
917.156	14853
917.268	14693
917.38	14750
917.491	14705
917.603	14823
917.715	14876
917.826	14876
917.938	14758
918.049	14632
918.161	14743
918.272	14842
918.384	14781
918.495	14613
918.606	14552
918.717	14484
918.828	14541
918.939	14552
919.05	14438
919.161	14522
919.272	14366
919.383	14431
919.494	14571
919.604	14727
919.715	14583
919.826	14332
919.936	14484
920.047	14537
920.157	14415
920.267	14663
920.378	14590
920.488	14419
920.598	14693
920.708	14834
920.818	14644
920.928	14621
921.038	14750
921.148	14651
921.258	14442
921.368	14301
921.477	14286
921.587	14240
921.697	14073
921.806	14244
921.916	14043
922.025	13906
922.134	13814
922.244	13890
922.353	14001
922.462	13788
922.571	13643
922.68	13609
922.789	13514
922.898	13384
923.007	13453
923.116	13674
923.224	13559
923.333	13449
923.442	13365
923.55	13396
923.659	13263
923.767	13438
923.876	13312
923.984	13320
924.092	13152
924.201	13331
924.309	13213
924.417	13255
924.525	13168
924.633	13145
924.741	13955
924.849	13034
924.956	13149
925.064	13004
925.172	12928
925.279	12867
925.387	12977
925.494	12962
925.602	12989
925.709	12973
925.816	12806
925.924	12875
926.031	12973
926.138	12909
926.245	12958
926.352	12863
926.459	12882
926.566	13008
926.673	12738
926.779	12631
926.886	12688
926.993	12551
927.099	12464
927.206	12460
927.312	12502
927.419	12544
927.525	12528
927.631	12422
927.737	12300
927.843	12357
927.95	12216
928.056	12361
928.162	12365
928.267	12281
928.373	12867
928.479	12350
928.585	12152
928.69	12266
928.796	12410
928.901	12213
929.007	12060
929.112	12228
929.218	12167
929.323	12197
929.428	12026
929.533	12171
929.638	12034
929.743	11992
929.848	12053
929.953	11999
930.058	11882
930.163	11741
930.267	11710
930.372	11923
930.477	11714
930.581	11893
930.685	11695
930.79	11684
930.894	11691
930.998	11634
931.103	11676
931.207	11406
931.311	11376
931.415	11189
931.519	11052
931.623	11014
