Data from test_V78500241_2622.txt Node
Date: Fri Mar 25 15:28:07 CST 2022
User: usil
Spectrometer: V785-0024
Trigger mode: 0
Integration Time (sec): 4.000000E-1
Scans to average: 1
Nonlinearity correction enabled: false
Boxcar width: 0
Storing dark spectrum: false
XAxis mode: Wavelengths
Number of Pixels in Spectrum: 1024
>>>>>Begin Spectral Data<<<<<
801.071	27245
801.214	27081
801.356	26861
801.499	26921
801.641	26640
801.783	26609
801.926	26834
802.068	26804
802.211	26621
802.353	26530
802.496	26431
802.638	26415
802.78	26381
802.923	26366
803.065	26271
803.208	26317
803.35	26393
803.492	26503
803.635	26476
803.777	26301
803.919	26404
804.061	26826
804.204	26602
804.346	26427
804.488	26347
804.63	26446
804.773	26442
804.915	26484
805.057	26632
805.199	26461
805.341	26579
805.483	26663
805.626	26602
805.768	26518
805.91	26663
806.052	26682
806.194	26476
806.336	26663
806.478	26674
806.62	26598
806.762	26720
806.904	26990
807.046	27142
807.188	27009
807.33	26967
807.472	27100
807.614	26918
807.756	26990
807.898	26735
808.04	26804
808.182	26796
808.324	26906
808.465	27119
808.607	27051
808.749	27184
808.891	27351
809.033	27416
809.174	27370
809.316	27154
809.458	27135
809.6	27154
809.741	27355
809.883	27393
810.025	27458
810.166	27568
810.308	27511
810.45	27420
810.591	27351
810.733	27180
810.875	27062
811.016	27108
811.158	27024
811.299	27329
811.441	27416
811.582	27348
811.724	27230
811.865	27169
812.007	27176
812.148	27195
812.29	27154
812.431	27431
812.573	27599
812.714	27606
812.855	27667
812.997	27911
813.138	27964
813.279	27869
813.421	27671
813.562	27667
813.703	27450
813.845	27370
813.986	27093
814.127	26960
814.268	26861
814.41	26963
814.551	26731
814.692	26838
814.833	26667
814.974	26849
815.115	26933
815.256	26796
815.397	26682
815.539	26785
815.68	26667
815.821	26575
815.962	26568
816.103	26674
816.244	26579
816.385	26412
816.526	26476
816.666	26267
816.807	26176
816.948	26233
817.089	26362
817.23	26298
817.371	26039
817.512	26062
817.653	26035
817.793	25982
817.934	26100
818.075	26050
818.216	26111
818.356	26081
818.497	25909
818.638	25826
818.778	25791
818.919	25803
819.06	25955
819.2	26065
819.341	26043
819.481	26191
819.622	26142
819.762	26381
819.903	26282
820.043	26187
820.184	26240
820.324	26199
820.465	26259
820.605	26362
820.746	26164
820.886	26046
821.026	26138
821.167	26065
821.307	26237
821.447	26122
821.588	25993
821.728	25909
821.868	25807
822.008	25548
822.149	25590
822.289	25518
822.429	25373
822.569	25259
822.709	25297
822.849	25187
822.99	25168
823.13	25046
823.27	24989
823.41	24890
823.55	24863
823.69	24951
823.83	24909
823.97	24939
824.11	24703
824.25	24677
824.389	24734
824.529	24867
824.669	24730
824.809	24692
824.949	24844
825.089	24810
825.228	24791
825.368	24616
825.508	24323
825.648	24574
825.787	24532
825.927	24665
826.067	24437
826.206	24654
826.346	24597
826.485	24722
826.625	24467
826.765	24760
826.904	24608
827.044	24391
827.183	24475
827.323	24258
827.462	24285
827.601	24414
827.741	24216
827.88	24308
828.02	24144
828.159	24106
828.298	24315
828.437	24369
828.577	24228
828.716	24384
828.855	24148
828.994	23942
829.134	24041
829.273	23958
829.412	23920
829.551	24022
829.69	24057
829.829	23973
829.968	24038
830.107	24110
830.246	24015
830.385	23912
830.524	23912
830.663	23859
830.802	23798
830.941	23707
831.08	23691
831.219	23809
831.357	23642
831.496	23912
831.635	23699
831.774	23524
831.913	23512
832.051	23364
832.19	23383
832.329	23440
832.467	23318
832.606	23349
832.744	23212
832.883	23345
833.022	23250
833.16	23204
833.299	23269
833.437	23303
833.576	23497
833.714	23387
833.852	23296
833.991	23372
834.129	23448
834.267	23467
834.406	23360
834.544	23341
834.682	23467
834.821	23292
834.959	23554
835.097	23448
835.235	23436
835.373	23372
835.511	23326
835.65	23242
835.788	23353
835.926	23212
836.064	23033
836.202	22949
836.34	23231
836.478	23284
836.615	23143
836.753	23296
836.891	23379
837.029	23208
837.167	23250
837.305	23185
837.443	23041
837.58	23003
837.718	23098
837.856	23018
837.993	22987
838.131	23037
838.269	22881
838.406	22976
838.544	22862
838.681	22698
838.819	22630
838.956	22630
839.094	22462
839.231	22512
839.369	22729
839.506	22869
839.643	22847
839.781	22550
839.918	22451
840.055	22519
840.193	22485
840.33	22497
840.467	22561
840.604	22523
840.742	22900
840.879	22417
841.016	22394
841.153	22329
841.29	22489
841.427	22436
841.564	22516
841.701	22489
841.838	22417
841.975	22451
842.112	22356
842.249	22481
842.385	22379
842.522	22519
842.659	22337
842.796	22405
842.933	22249
843.069	22139
843.206	22287
843.343	22230
843.479	22188
843.616	22246
843.752	22010
843.889	22196
844.025	22166
844.162	21941
844.298	22139
844.435	21960
844.571	21975
844.708	22093
844.844	22234
844.98	22154
845.117	22116
845.253	22010
845.389	21949
845.525	21819
845.661	21797
845.798	21736
845.934	21895
846.07	21705
846.206	21846
846.342	21930
846.478	21698
846.614	21408
846.75	21462
846.886	21492
847.022	21622
847.158	21549
847.294	21553
847.429	21572
847.565	21458
847.701	21804
847.837	21306
847.972	21275
848.108	21306
848.244	21386
848.379	21112
848.515	21039
848.65	21146
848.786	21039
848.921	21165
849.057	21165
849.192	21180
849.328	21252
849.463	21047
849.598	21036
849.734	21150
849.869	20937
850.004	20975
850.14	20872
850.275	20895
850.41	20750
850.545	20830
850.68	20906
850.815	20921
850.95	20842
851.085	21077
851.22	21039
851.355	20769
851.49	20811
851.625	20819
851.76	20876
851.895	20701
852.03	20853
852.165	20834
852.299	20933
852.434	20773
852.569	20872
852.703	20807
852.838	20902
852.973	20933
853.107	20826
853.242	20902
853.376	20720
853.511	20602
853.645	20640
853.78	20868
853.914	20712
854.048	20708
854.183	20682
854.317	20720
854.451	20975
854.585	20609
854.72	20667
854.854	20731
854.988	20674
855.122	20731
855.256	20564
855.39	20613
855.524	20731
855.658	20746
855.792	20712
855.926	20682
856.06	20762
856.194	20788
856.327	20632
856.461	20549
856.595	20545
856.729	20693
856.862	20667
856.996	20807
857.13	20724
857.263	20670
857.397	20906
857.53	20640
857.664	20758
857.797	20686
857.931	20769
858.064	20785
858.197	20804
858.331	20724
858.464	20640
858.597	20625
858.731	20670
858.864	20632
858.997	20670
859.13	20648
859.263	20629
859.396	20754
859.529	20568
859.662	20701
859.795	20655
859.928	20670
860.061	20902
860.194	20872
860.327	20663
860.46	20708
860.592	20788
860.725	20823
860.858	20735
860.99	20682
861.123	20621
861.256	20674
861.388	20621
861.521	21340
861.653	20609
861.786	20461
861.918	20484
862.05	20549
862.183	20629
862.315	20689
862.447	20659
862.58	20564
862.712	20412
862.844	20518
862.976	20545
863.108	20442
863.24	20880
863.372	20317
863.504	20465
863.636	20419
863.768	20351
863.9	20408
864.032	20301
864.164	20324
864.296	20396
864.428	20594
864.559	20396
864.691	20438
864.823	20385
864.954	20396
865.086	20476
865.217	20256
865.349	20195
865.48	20317
865.612	20313
865.743	20377
865.875	20294
866.006	20145
866.137	20347
866.269	20256
866.4	20370
866.531	20305
866.662	20145
866.793	20172
866.924	20278
867.055	20210
867.186	20328
867.317	20263
867.448	20043
867.579	20138
867.71	20164
867.841	20145
867.972	20290
868.103	20229
868.233	20256
868.364	20298
868.495	20259
868.625	20499
868.756	20583
868.886	20393
869.017	20568
869.147	20670
869.278	20552
869.408	20533
869.539	20549
869.669	20587
869.799	20602
869.929	20686
870.06	20613
870.19	20910
870.32	20796
870.45	20849
870.58	20758
870.71	21009
870.84	20899
870.97	20838
871.1	20967
871.23	21100
871.36	21047
871.489	21039
871.619	21093
871.749	21161
871.879	21127
872.008	21272
872.138	21123
872.267	20994
872.397	20948
872.526	20975
872.656	20937
872.785	21009
872.915	21127
873.044	21180
873.173	21020
873.303	21047
873.432	21100
873.561	21218
873.69	21005
873.819	21093
873.948	21188
874.077	21150
874.206	21009
874.335	21142
874.464	21317
874.593	21428
874.722	21351
874.851	21298
874.979	21279
875.108	21447
875.237	21351
875.365	21264
875.494	21287
875.623	21378
875.751	21321
875.88	21344
876.008	21458
876.136	21576
876.265	21785
876.393	21956
876.521	21865
876.65	21838
876.778	21717
876.906	21641
877.034	21705
877.162	21599
877.29	21618
877.418	21778
877.546	21739
877.674	21629
877.802	21759
877.93	21625
878.058	21743
878.185	21538
878.313	21610
878.441	21785
878.568	21534
878.696	21633
878.824	21804
878.951	21854
879.079	21854
879.206	22002
879.333	21873
879.461	21724
879.588	21762
879.715	21861
879.842	21960
879.97	21641
880.097	21591
880.224	21511
880.351	21557
880.478	21622
880.605	21526
880.732	21583
880.859	21739
880.986	21576
881.112	21629
881.239	21389
881.366	21199
881.493	21127
881.619	21096
881.746	21138
881.872	21150
881.999	21077
882.125	20994
882.252	21127
882.378	21051
882.505	21313
882.631	21013
882.757	20758
882.883	20864
883.01	20750
883.136	20697
883.262	20800
883.388	20667
883.514	20762
883.64	20842
883.766	20708
883.892	20651
884.018	20594
884.143	20705
884.269	20872
884.395	20583
884.52	20412
884.646	20511
884.772	20438
884.897	20419
885.023	20480
885.148	20651
885.274	20682
885.399	20617
885.524	20396
885.65	20400
885.775	20560
885.9	20431
886.025	20663
886.15	20465
886.275	20408
886.4	20355
886.525	20473
886.65	20431
886.775	20286
886.9	20648
887.025	20659
887.149	20423
887.274	20320
887.399	20271
887.523	20199
887.648	20183
887.773	20176
887.897	20267
888.021	20305
888.146	20237
888.27	20427
888.395	20385
888.519	20221
888.643	20324
888.767	20229
888.891	20180
889.015	20126
889.139	20199
889.263	20122
889.387	20298
889.511	20366
889.635	20065
889.759	19951
889.883	20069
890.006	20039
890.13	20107
890.254	20046
890.377	19967
890.501	19856
890.624	19856
890.748	19852
890.871	19704
890.995	19700
891.118	19655
891.241	19738
891.364	19613
891.488	19791
891.611	19624
891.734	19563
891.857	19811
891.98	19624
892.103	19613
892.226	19655
892.349	19506
892.471	19491
892.594	19556
892.717	19632
892.839	19540
892.962	19537
893.085	19624
893.207	19533
893.33	19518
893.452	19464
893.575	19689
893.697	19537
893.819	19700
893.941	19757
894.064	19712
894.186	19590
894.308	19521
894.43	19677
894.552	19582
894.674	19670
894.796	19491
894.918	19632
895.04	19495
895.161	19643
895.283	19670
895.405	19597
895.526	19575
895.648	19537
895.769	19544
895.891	19590
896.012	19845
896.134	19567
896.255	19563
896.376	19552
896.498	19575
896.619	19616
896.74	19540
896.861	19651
896.982	19883
897.103	20081
897.224	19780
897.345	19769
897.466	19674
897.587	19685
897.708	19928
897.828	19746
897.949	19696
898.07	19723
898.19	19830
898.311	19997
898.431	19662
898.552	19852
898.672	19925
898.792	19909
898.913	19921
899.033	19639
899.153	19655
899.273	19480
899.393	19624
899.513	19658
899.633	19609
899.753	19537
899.873	19495
899.993	19681
900.113	19472
900.232	19559
900.352	19563
900.472	19403
900.591	19422
900.711	19282
900.83	19282
900.95	19548
901.069	19221
901.189	19251
901.308	19061
901.427	18867
901.546	18985
901.665	19031
901.784	18970
901.904	18817
902.023	18726
902.141	18494
902.26	18464
902.379	18563
902.498	18506
902.617	18445
902.735	18448
902.854	18445
902.973	18403
903.091	17999
903.21	18140
903.328	18159
903.446	18087
903.565	17901
903.683	17984
903.801	17870
903.919	17916
904.038	17866
904.156	17802
904.274	17821
904.392	17821
904.51	17665
904.627	17760
904.745	17756
904.863	17729
904.981	17600
905.098	17436
905.216	17414
905.334	17307
905.451	17379
905.569	17277
905.686	17433
905.803	17478
905.921	17159
906.038	17235
906.155	17185
906.272	17083
906.389	17159
906.506	16991
906.623	16999
906.74	16847
906.857	16877
906.974	16968
907.091	16991
907.208	17064
907.324	16995
907.441	16862
907.557	16672
907.674	16649
907.79	16618
907.907	16645
908.023	16713
908.139	16774
908.256	16672
908.372	16542
908.488	16596
908.604	16432
908.72	16306
908.836	16390
908.952	16382
909.068	16371
909.184	16462
909.3	16318
909.415	16481
909.531	16322
909.647	16185
909.762	16071
909.878	16002
909.993	16059
910.108	16048
910.224	16112
910.339	16105
910.454	15915
910.57	15892
910.685	15762
910.8	16204
910.915	16067
911.03	15937
911.145	15781
911.259	15736
911.374	15686
911.489	15686
911.604	15599
911.718	15443
911.833	15500
911.947	15374
912.062	15340
912.176	15492
912.291	15500
912.405	15424
912.519	15823
912.633	15709
912.748	15534
912.862	15431
912.976	15298
913.09	15203
913.204	15237
913.318	15306
913.431	15344
913.545	15466
913.659	15397
913.772	15294
913.886	15184
914	15093
914.113	15176
914.226	15184
914.34	15199
914.453	14963
914.566	15123
914.68	15039
914.793	15028
914.906	14769
915.019	14693
915.132	14727
915.245	14693
915.358	14670
915.47	14731
915.583	14693
915.696	14678
915.809	14796
915.921	14849
916.034	14644
916.146	14579
916.259	14579
916.371	14735
916.483	14492
916.595	14480
916.708	14610
916.82	14564
916.932	14549
917.044	14526
917.156	14507
917.268	14370
917.38	14381
917.491	14324
917.603	14419
917.715	14381
917.826	14484
917.938	14343
918.049	14145
918.161	14381
918.272	14514
918.384	14396
918.495	14381
918.606	14123
918.717	14084
918.828	14103
918.939	14103
919.05	14107
919.161	14157
919.272	13970
919.383	14050
919.494	14180
919.604	14328
919.715	13978
919.826	14001
919.936	14157
920.047	14218
920.157	14100
920.267	14240
920.378	14100
920.488	14024
920.598	14244
920.708	14389
920.818	14164
920.928	14138
921.038	14259
921.148	14385
921.258	14062
921.368	14012
921.477	13944
921.587	13784
921.697	13731
921.806	13769
921.916	13689
922.025	13601
922.134	13525
922.244	13476
922.353	13540
922.462	13464
922.571	13365
922.68	13171
922.789	13190
922.898	13259
923.007	13088
923.116	13072
923.224	13145
923.333	13152
923.442	12916
923.55	12935
923.659	13057
923.767	13050
923.876	12867
923.984	13015
924.092	12905
924.201	12913
924.309	12913
924.417	12947
924.525	12760
924.633	12905
924.741	13830
924.849	12620
924.956	12810
925.064	12677
925.172	12597
925.279	12593
925.387	12559
925.494	12658
925.602	12776
925.709	12608
925.816	12555
925.924	12547
926.031	12513
926.138	12528
926.245	12528
926.352	12429
926.459	12616
926.566	12631
926.673	12376
926.779	12376
926.886	12315
926.993	12197
927.099	12213
927.206	12197
927.312	12148
927.419	12163
927.525	12190
927.631	12197
927.737	12019
927.843	12038
927.95	11897
928.056	11980
928.162	11866
928.267	12011
928.373	12521
928.479	12114
928.585	11870
928.69	11996
928.796	11996
928.901	11870
929.007	11771
929.112	11927
929.218	11824
929.323	11824
929.428	11729
929.533	11840
929.638	11672
929.743	11672
929.848	11771
929.953	11688
930.058	11604
930.163	11417
930.267	11429
930.372	11520
930.477	11395
930.581	11638
930.685	11395
930.79	11303
930.894	11311
930.998	11288
931.103	11452
931.207	11067
931.311	11045
931.415	10957
931.519	10748
931.623	10778
