Data from test_V78500241_1896.txt Node
Date: Fri Mar 25 15:23:03 CST 2022
User: usil
Spectrometer: V785-0024
Trigger mode: 0
Integration Time (sec): 4.000000E-1
Scans to average: 1
Nonlinearity correction enabled: false
Boxcar width: 0
Storing dark spectrum: false
XAxis mode: Wavelengths
Number of Pixels in Spectrum: 1024
>>>>>Begin Spectral Data<<<<<
801.071	27831
801.214	27743
801.356	27511
801.499	27401
801.641	27348
801.783	27359
801.926	27348
802.068	27313
802.211	27260
802.353	27157
802.496	27081
802.638	26918
802.78	27089
802.923	26921
803.065	26952
803.208	26857
803.35	27047
803.492	27150
803.635	27169
803.777	26944
803.919	27218
804.061	27386
804.204	27207
804.346	27169
804.488	27028
804.63	27180
804.773	27062
804.915	27104
805.057	27211
805.199	27195
805.341	27268
805.483	27397
805.626	27272
805.768	27169
805.91	27226
806.052	27336
806.194	27218
806.336	27401
806.478	27386
806.62	27260
806.762	27401
806.904	27591
807.046	27819
807.188	27686
807.33	27690
807.472	27835
807.614	27583
807.756	27743
807.898	27458
808.04	27542
808.182	27618
808.324	27542
808.465	27568
808.607	27717
808.749	27892
808.891	27911
809.033	27960
809.174	28044
809.316	27911
809.458	27884
809.6	27838
809.741	27934
809.883	28055
810.025	28211
810.166	28219
810.308	28135
810.45	28109
810.591	28093
810.733	27892
810.875	27759
811.016	27762
811.158	27770
811.299	28021
811.441	28093
811.582	28051
811.724	27937
811.865	27800
812.007	27945
812.148	27857
812.29	28002
812.431	28097
812.573	28181
812.714	28272
812.855	28409
812.997	28462
813.138	28641
813.279	28508
813.421	28440
813.562	28337
813.703	28135
813.845	28101
813.986	27819
814.127	27766
814.268	27580
814.41	27591
814.551	27622
814.692	27603
814.833	27580
814.974	27485
815.115	27724
815.256	27386
815.397	27435
815.539	27572
815.68	27378
815.821	27230
815.962	27435
816.103	27427
816.244	27252
816.385	27230
816.526	27214
816.666	26963
816.807	26967
816.948	27024
817.089	26925
817.23	26940
817.371	26868
817.512	26830
817.653	26895
817.793	26819
817.934	26807
818.075	26864
818.216	26838
818.356	26899
818.497	26689
818.638	26659
818.778	26644
818.919	26701
819.06	26720
819.2	26663
819.341	26891
819.481	26944
819.622	27085
819.762	27249
819.903	27154
820.043	27112
820.184	26944
820.324	26971
820.465	27001
820.605	26963
820.746	27017
820.886	26910
821.026	26963
821.167	26956
821.307	27104
821.447	26883
821.588	26701
821.728	26594
821.868	26530
822.008	26358
822.149	26320
822.289	26476
822.429	25974
822.569	26107
822.709	26153
822.849	25868
822.99	25833
823.13	25890
823.27	25788
823.41	25731
823.55	25693
823.69	25753
823.83	25681
823.97	25761
824.11	25586
824.25	25510
824.389	25525
824.529	25605
824.669	25582
824.809	25769
824.949	25502
825.089	25594
825.228	25552
825.368	25354
825.508	25407
825.648	25434
825.787	25415
825.927	25472
826.067	25434
826.206	25373
826.346	25502
826.485	25392
826.625	25358
826.765	25552
826.904	25373
827.044	25141
827.183	25069
827.323	25012
827.462	25183
827.601	25228
827.741	25122
827.88	25095
828.02	25046
828.159	25050
828.298	24985
828.437	25137
828.577	24913
828.716	25137
828.855	24886
828.994	24821
829.134	24738
829.273	24856
829.412	24684
829.551	24684
829.69	24814
829.829	24798
829.968	24882
830.107	24833
830.246	24700
830.385	24760
830.524	24741
830.663	24585
830.802	24627
830.941	24403
831.08	24460
831.219	24555
831.357	24517
831.496	24726
831.635	24467
831.774	24209
831.913	24285
832.051	24205
832.19	24232
832.329	24254
832.467	24171
832.606	24030
832.744	24034
832.883	24060
833.022	24163
833.16	24106
833.299	24049
833.437	24163
833.576	24209
833.714	24098
833.852	24262
833.991	24228
834.129	24251
834.267	24102
834.406	24110
834.544	24228
834.682	24068
834.821	24136
834.959	24372
835.097	24133
835.235	24273
835.373	24110
835.511	24182
835.65	24079
835.788	24087
835.926	23923
836.064	23859
836.202	23802
836.34	24026
836.478	24148
836.615	24144
836.753	24053
836.891	24190
837.029	24034
837.167	24030
837.305	23977
837.443	23954
837.58	23847
837.718	23923
837.856	23912
837.993	23779
838.131	23923
838.269	23790
838.406	23870
838.544	23764
838.681	23554
838.819	23543
838.956	23436
839.094	23402
839.231	23440
839.369	23535
839.506	23767
839.643	23649
839.781	23292
839.918	23235
840.055	23368
840.193	23322
840.33	23315
840.467	23326
840.604	23280
840.742	23558
840.879	23010
841.016	23185
841.153	23265
841.29	23425
841.427	23269
841.564	23292
841.701	23341
841.838	23227
841.975	23155
842.112	23204
842.249	23083
842.385	23079
842.522	23280
842.659	23121
842.796	23083
842.933	23067
843.069	23037
843.206	23041
843.343	23159
843.479	22991
843.616	23022
843.752	22889
843.889	22904
844.025	23025
844.162	22889
844.298	22919
844.435	22850
844.571	22869
844.708	22953
844.844	22923
844.98	22984
845.117	22877
845.253	22824
845.389	22710
845.525	22622
845.661	22725
845.798	22664
845.934	22626
846.07	22573
846.206	22588
846.342	22664
846.478	22516
846.614	22249
846.75	22268
846.886	22207
847.022	22257
847.158	22291
847.294	22223
847.429	22246
847.565	22261
847.701	22569
847.837	22109
847.972	22025
848.108	22223
848.244	22090
848.379	21983
848.515	21880
848.65	21956
848.786	21804
848.921	21816
849.057	22013
849.192	21964
849.328	21842
849.463	21918
849.598	21743
849.734	21755
849.869	21785
850.004	21629
850.14	21587
850.275	21580
850.41	21572
850.545	21519
850.68	21599
850.815	21561
850.95	21694
851.085	21759
851.22	21736
851.355	21660
851.49	21793
851.625	21614
851.76	21686
851.895	21507
852.03	21523
852.165	21618
852.299	21591
852.434	21667
852.569	21663
852.703	21545
852.838	21709
852.973	21667
853.107	21785
853.242	21454
853.376	21549
853.511	21405
853.645	21492
853.78	21523
853.914	21443
854.048	21302
854.183	21405
854.317	21424
854.451	21682
854.585	21454
854.72	21450
854.854	21511
854.988	21332
855.122	21443
855.256	21367
855.39	21439
855.524	21458
855.658	21591
855.792	21393
855.926	21408
856.06	21473
856.194	21603
856.327	21370
856.461	21355
856.595	21408
856.729	21447
856.862	21599
856.996	21424
857.13	21439
857.263	21412
857.397	21587
857.53	21454
857.664	21386
857.797	21583
857.931	21526
858.064	21561
858.197	21561
858.331	21485
858.464	21450
858.597	21405
858.731	21515
858.864	21507
858.997	21355
859.13	21389
859.263	21340
859.396	21496
859.529	21420
859.662	21431
859.795	21606
859.928	21447
860.061	21519
860.194	21656
860.327	21469
860.46	21538
860.592	21549
860.725	21599
860.858	21694
860.99	21443
861.123	21336
861.256	21420
861.388	21500
861.521	22147
861.653	21393
861.786	21237
861.918	21329
862.05	21249
862.183	21447
862.315	21492
862.447	21496
862.58	21466
862.712	21252
862.844	21123
862.976	21279
863.108	21199
863.24	21572
863.372	21135
863.504	21203
863.636	21245
863.768	21138
863.9	21070
864.032	21020
864.164	21142
864.296	21100
864.428	21374
864.559	21226
864.691	21287
864.823	21135
864.954	21131
865.086	21135
865.217	21131
865.349	20971
865.48	21165
865.612	21127
865.743	21146
865.875	21043
866.006	20963
866.137	21089
866.269	21123
866.4	21028
866.531	21081
866.662	20975
866.793	20990
866.924	21036
867.055	21001
867.186	20986
867.317	20910
867.448	20815
867.579	20887
867.71	20998
867.841	20887
867.972	21074
868.103	20990
868.233	21207
868.364	21112
868.495	21127
868.625	21207
868.756	21321
868.886	21199
869.017	21169
869.147	21355
869.278	21336
869.408	21268
869.539	21173
869.669	21245
869.799	21363
869.929	21450
870.06	21340
870.19	21507
870.32	21485
870.45	21545
870.58	21485
870.71	21747
870.84	21793
870.97	21622
871.1	21660
871.23	21800
871.36	21922
871.489	21778
871.619	21823
871.749	21789
871.879	21930
872.008	22029
872.138	21842
872.267	21895
872.397	21667
872.526	21671
872.656	21663
872.785	21778
872.915	21755
873.044	21983
873.173	21819
873.303	21842
873.432	21865
873.561	21911
873.69	21800
873.819	21816
873.948	21930
874.077	21876
874.206	21785
874.335	21937
874.464	21960
874.593	22101
874.722	21972
874.851	22124
874.979	22002
875.108	22120
875.237	22139
875.365	22025
875.494	21930
875.623	22124
875.751	22116
875.88	22025
876.008	22230
876.136	22166
876.265	22443
876.393	22637
876.521	22656
876.65	22538
876.778	22390
876.906	22371
877.034	22432
877.162	22333
877.29	22474
877.418	22447
877.546	22390
877.674	22398
877.802	22386
877.93	22535
878.058	22409
878.185	22268
878.313	22436
878.441	22462
878.568	22109
878.696	22432
878.824	22424
878.951	22500
879.079	22634
879.206	22660
879.333	22565
879.461	22451
879.588	22645
879.715	22538
879.842	22698
879.97	22554
880.097	22219
880.224	22128
880.351	22246
880.478	22219
880.605	22249
880.732	22223
880.859	22352
880.986	22284
881.112	22249
881.239	22158
881.366	22059
881.493	21831
881.619	21827
881.746	21743
881.872	21865
881.999	21816
882.125	21671
882.252	21739
882.378	21823
882.505	21945
882.631	21625
882.757	21629
882.883	21690
883.01	21515
883.136	21424
883.262	21420
883.388	21408
883.514	21462
883.64	21466
883.766	21447
883.892	21294
884.018	21306
884.143	21473
884.269	21538
884.395	21203
884.52	21085
884.646	21104
884.772	21089
884.897	21089
885.023	21127
885.148	21237
885.274	21287
885.399	21222
885.524	21188
885.65	21119
885.775	21150
885.9	21207
886.025	21237
886.15	21192
886.275	21043
886.4	20975
886.525	21036
886.65	20971
886.775	21176
886.9	21294
887.025	21363
887.149	21131
887.274	20948
887.399	20823
887.523	20902
887.648	20727
887.773	20864
887.897	20944
888.021	20899
888.146	20815
888.27	21013
888.395	20929
888.519	20994
888.643	20952
888.767	20883
888.891	20804
889.015	20545
889.139	20678
889.263	20712
889.387	20823
889.511	20899
889.635	20796
889.759	20708
889.883	20792
890.006	20727
890.13	20785
890.254	20659
890.377	20667
890.501	20434
890.624	20324
890.748	20400
890.871	20431
890.995	20275
891.118	20199
891.241	20328
891.364	20290
891.488	20408
891.611	20415
891.734	20248
891.857	20404
891.98	20305
892.103	20240
892.226	20294
892.349	20221
892.471	20115
892.594	20214
892.717	20199
892.839	20119
892.962	20153
893.085	20168
893.207	20168
893.33	20008
893.452	20134
893.575	20305
893.697	20054
893.819	20278
893.941	20374
894.064	20275
894.186	20092
894.308	20081
894.43	20202
894.552	20294
894.674	20263
894.796	20069
894.918	20164
895.04	20157
895.161	20374
895.283	20176
895.405	20210
895.526	20084
895.648	20206
895.769	20092
895.891	20176
896.012	20282
896.134	20096
896.255	20145
896.376	20046
896.498	20286
896.619	20244
896.74	20218
896.861	20259
896.982	20393
897.103	20617
897.224	20404
897.345	20393
897.466	20358
897.587	20317
897.708	20522
897.828	20412
897.949	20400
898.07	20259
898.19	20298
898.311	20370
898.431	20442
898.552	20412
898.672	20518
898.792	20385
898.913	20415
899.033	20210
899.153	20164
899.273	20024
899.393	20103
899.513	20153
899.633	20157
899.753	20206
899.873	19993
899.993	20065
900.113	20062
900.232	20122
900.352	19970
900.472	19921
900.591	19906
900.711	19959
900.83	19803
900.95	20077
901.069	19898
901.189	19852
901.308	19670
901.427	19506
901.546	19506
901.665	19506
901.784	19449
901.904	19274
902.023	19240
902.141	19126
902.26	18939
902.379	19027
902.498	18977
902.617	18954
902.735	18932
902.854	19031
902.973	18947
903.091	18795
903.21	18753
903.328	18715
903.446	18582
903.565	18479
903.683	18532
903.801	18445
903.919	18456
904.038	18464
904.156	18224
904.274	18384
904.392	18323
904.51	18247
904.627	18323
904.745	18194
904.863	18239
904.981	18076
905.098	17904
905.216	17927
905.334	17961
905.451	17954
905.569	17866
905.686	17969
905.803	17965
905.921	17668
906.038	17824
906.155	17684
906.272	17558
906.389	17653
906.506	17471
906.623	17440
906.74	17414
906.857	17387
906.974	17315
907.091	17501
907.208	17512
907.324	17440
907.441	17372
907.557	17216
907.674	17159
907.79	17083
907.907	17136
908.023	17250
908.139	17246
908.256	17151
908.372	17098
908.488	16991
908.604	17006
908.72	16885
908.836	16938
908.952	16949
909.068	16938
909.184	17018
909.3	16965
909.415	16991
909.531	16911
909.647	16626
909.762	16656
909.878	16622
909.993	16599
910.108	16656
910.224	16558
910.339	16573
910.454	16485
910.57	16382
910.685	16333
910.8	16554
910.915	16637
911.03	16493
911.145	16360
911.259	16169
911.374	16211
911.489	16101
911.604	16120
911.718	15972
911.833	15975
911.947	15812
912.062	15720
912.176	15926
912.291	15842
912.405	15842
912.519	16101
912.633	16055
912.748	16002
912.862	15846
912.976	15762
913.09	15717
913.204	15686
913.318	15759
913.431	15846
913.545	15869
913.659	15804
913.772	15610
913.886	15568
914	15500
914.113	15686
914.226	15675
914.34	15618
914.453	15363
914.566	15580
914.68	15431
914.793	15405
914.906	15222
915.019	15146
915.132	15070
915.245	15211
915.358	15135
915.47	15173
915.583	15142
915.696	15214
915.809	15367
915.921	15344
916.034	15039
916.146	15009
916.259	15127
916.371	15119
916.483	15043
916.595	15020
916.708	14952
916.82	14971
916.932	14948
917.044	14937
917.156	14918
917.268	14838
917.38	14830
917.491	14689
917.603	14796
917.715	14921
917.826	14872
917.938	14640
918.049	14629
918.161	14781
918.272	14845
918.384	14933
918.495	14758
918.606	14533
918.717	14537
918.828	14552
918.939	14556
919.05	14507
919.161	14480
919.272	14358
919.383	14431
919.494	14648
919.604	14845
919.715	14549
919.826	14408
919.936	14450
920.047	14564
920.157	14549
920.267	14708
920.378	14514
920.488	14503
920.598	14651
920.708	14785
920.818	14686
920.928	14663
921.038	14868
921.148	14765
921.258	14514
921.368	14400
921.477	14244
921.587	14267
921.697	14202
921.806	14244
921.916	14065
922.025	14012
922.134	13883
922.244	13860
922.353	13887
922.462	13681
922.571	13723
922.68	13559
922.789	13624
922.898	13525
923.007	13491
923.116	13540
923.224	13533
923.333	13544
923.442	13369
923.55	13438
923.659	13304
923.767	13430
923.876	13308
923.984	13472
924.092	13293
924.201	13266
924.309	13343
924.417	13285
924.525	13156
924.633	13247
924.741	14145
924.849	13004
924.956	13194
925.064	12951
925.172	12924
925.279	12970
925.387	12928
925.494	12909
925.602	13034
925.709	13053
925.816	12890
925.924	12871
926.031	12928
926.138	12897
926.245	12913
926.352	12837
926.459	12924
926.566	12943
926.673	12939
926.779	12707
926.886	12696
926.993	12597
927.099	12544
927.206	12494
927.312	12437
927.419	12498
927.525	12532
927.631	12490
927.737	12464
927.843	12319
927.95	12266
928.056	12338
928.162	12365
928.267	12441
928.373	12833
928.479	12361
928.585	12213
928.69	12361
928.796	12342
928.901	12266
929.007	12068
929.112	12197
929.218	12117
929.323	12178
929.428	12095
929.533	12213
929.638	11999
929.743	12003
929.848	12003
929.953	12041
930.058	11847
930.163	11809
930.267	11798
930.372	11783
930.477	11733
930.581	12049
930.685	11805
930.79	11680
930.894	11703
930.998	11608
931.103	11737
931.207	11368
931.311	11395
931.415	11239
931.519	11029
931.623	10957
