Data from test_V78500241_3236.txt Node
Date: Fri Mar 25 15:32:23 CST 2022
User: usil
Spectrometer: V785-0024
Trigger mode: 0
Integration Time (sec): 4.000000E-1
Scans to average: 1
Nonlinearity correction enabled: false
Boxcar width: 0
Storing dark spectrum: false
XAxis mode: Wavelengths
Number of Pixels in Spectrum: 1024
>>>>>Begin Spectral Data<<<<<
801.071	27230
801.214	27188
801.356	26887
801.499	26804
801.641	26682
801.783	26697
801.926	26750
802.068	26735
802.211	26587
802.353	26708
802.496	26355
802.638	26377
802.78	26461
802.923	26138
803.065	26244
803.208	26267
803.35	26408
803.492	26412
803.635	26587
803.777	26438
803.919	26575
804.061	26891
804.204	26648
804.346	26404
804.488	26362
804.63	26484
804.773	26492
804.915	26625
805.057	26636
805.199	26457
805.341	26590
805.483	26606
805.626	26609
805.768	26530
805.91	26568
806.052	26701
806.194	26575
806.336	26853
806.478	26644
806.62	26644
806.762	26838
806.904	26868
807.046	27085
807.188	26986
807.33	27017
807.472	27135
807.614	26918
807.756	27024
807.898	26872
808.04	26693
808.182	26845
808.324	26929
808.465	26929
808.607	27127
808.749	27176
808.891	27393
809.033	27370
809.174	27241
809.316	27188
809.458	27161
809.6	27211
809.741	27249
809.883	27336
810.025	27496
810.166	27496
810.308	27492
810.45	27420
810.591	27401
810.733	27249
810.875	27306
811.016	27047
811.158	27123
811.299	27450
811.441	27447
811.582	27378
811.724	27260
811.865	27100
812.007	27192
812.148	27096
812.29	27325
812.431	27405
812.573	27580
812.714	27481
812.855	27690
812.997	27675
813.138	27941
813.279	27850
813.421	27713
813.562	27629
813.703	27564
813.845	27538
813.986	27089
814.127	26975
814.268	26963
814.41	26883
814.551	26785
814.692	26823
814.833	26819
814.974	26754
815.115	26872
815.256	26781
815.397	26682
815.539	26750
815.68	26693
815.821	26389
815.962	26689
816.103	26724
816.244	26522
816.385	26511
816.526	26377
816.666	26199
816.807	26050
816.948	26202
817.089	26252
817.23	26195
817.371	26122
817.512	26122
817.653	26069
817.793	26149
817.934	26130
818.075	26149
818.216	25959
818.356	26096
818.497	25993
818.638	25856
818.778	25887
818.919	25875
819.06	25974
819.2	26145
819.341	25951
819.481	26081
819.622	26263
819.762	26377
819.903	26370
820.043	26400
820.184	26267
820.324	26176
820.465	26290
820.605	26282
820.746	26267
820.886	26122
821.026	26199
821.167	26107
821.307	26286
821.447	26126
821.588	26145
821.728	25925
821.868	25788
822.008	25567
822.149	25708
822.289	25476
822.429	25381
822.569	25335
822.709	25213
822.849	25099
822.99	25107
823.13	25023
823.27	24878
823.41	24966
823.55	24779
823.69	24890
823.83	24890
823.97	24897
824.11	24734
824.25	24627
824.389	24700
824.529	24856
824.669	24688
824.809	24905
824.949	24738
825.089	24859
825.228	24665
825.368	24540
825.508	24555
825.648	24540
825.787	24627
825.927	24642
826.067	24525
826.206	24528
826.346	24696
826.485	24578
826.625	24620
826.765	24764
826.904	24593
827.044	24395
827.183	24254
827.323	24338
827.462	24342
827.601	24395
827.741	24311
827.88	24479
828.02	24289
828.159	24311
828.298	24300
828.437	24437
828.577	24258
828.716	24380
828.855	24171
828.994	23950
829.134	24053
829.273	24114
829.412	24053
829.551	23973
829.69	23824
829.829	24079
829.968	24140
830.107	24129
830.246	24083
830.385	24003
830.524	23863
830.663	23863
830.802	23748
830.941	23722
831.08	23566
831.219	23661
831.357	23714
831.496	23828
831.635	23668
831.774	23497
831.913	23387
832.051	23334
832.19	23383
832.329	23364
832.467	23360
832.606	23216
832.744	23227
832.883	23307
833.022	23208
833.16	23280
833.299	23433
833.437	23349
833.576	23326
833.714	23391
833.852	23425
833.991	23379
834.129	23505
834.267	23474
834.406	23414
834.544	23417
834.682	23322
834.821	23372
834.959	23585
835.097	23429
835.235	23402
835.373	23356
835.511	23307
835.65	23296
835.788	23269
835.926	23143
836.064	22984
836.202	23064
836.34	23337
836.478	23315
836.615	23128
836.753	23147
836.891	23284
837.029	23299
837.167	23159
837.305	23109
837.443	23185
837.58	23003
837.718	23269
837.856	23025
837.993	23010
838.131	22987
838.269	22972
838.406	23003
838.544	22930
838.681	22763
838.819	22706
838.956	22523
839.094	22599
839.231	22637
839.369	22767
839.506	22961
839.643	22927
839.781	22481
839.918	22573
840.055	22542
840.193	22569
840.33	22443
840.467	22523
840.604	22516
840.742	22752
840.879	22341
841.016	22413
841.153	22379
841.29	22462
841.427	22580
841.564	22478
841.701	22478
841.838	22379
841.975	22394
842.112	22413
842.249	22489
842.385	22230
842.522	22489
842.659	22333
842.796	22291
842.933	22207
843.069	22185
843.206	22303
843.343	22268
843.479	22394
843.616	22325
843.752	21987
843.889	22067
844.025	22234
844.162	21960
844.298	22223
844.435	21975
844.571	21953
844.708	22044
844.844	22196
844.98	22131
845.117	22158
845.253	21998
845.389	21876
845.525	22040
845.661	21854
845.798	21899
845.934	21930
846.07	21694
846.206	21720
846.342	21930
846.478	21637
846.614	21648
846.75	21485
846.886	21542
847.022	21614
847.158	21606
847.294	21515
847.429	21557
847.565	21485
847.701	21743
847.837	21268
847.972	21214
848.108	21428
848.244	21340
848.379	21176
848.515	21081
848.65	21104
848.786	21211
848.921	21157
849.057	21188
849.192	21203
849.328	21214
849.463	21150
849.598	21070
849.734	21047
849.869	21119
850.004	20838
850.14	20796
850.275	20956
850.41	20830
850.545	20868
850.68	20880
850.815	20902
850.95	20895
851.085	21001
851.22	20963
851.355	20910
851.49	20796
851.625	20811
851.76	20788
851.895	20724
852.03	20743
852.165	20872
852.299	20830
852.434	21013
852.569	20914
852.703	20830
852.838	20910
852.973	21032
853.107	21036
853.242	20849
853.376	20701
853.511	20640
853.645	20712
853.78	20815
853.914	20765
854.048	20686
854.183	20830
854.317	20792
854.451	20891
854.585	20651
854.72	20640
854.854	20689
854.988	20617
855.122	20686
855.256	20590
855.39	20686
855.524	20777
855.658	20705
855.792	20758
855.926	20781
856.06	20670
856.194	20724
856.327	20701
856.461	20545
856.595	20621
856.729	20602
856.862	20777
856.996	20735
857.13	20648
857.263	20941
857.397	20823
857.53	20632
857.664	20682
857.797	20872
857.931	20762
858.064	20765
858.197	20781
858.331	20651
858.464	20644
858.597	20537
858.731	20674
858.864	20663
858.997	20651
859.13	20731
859.263	20853
859.396	20804
859.529	20644
859.662	20617
859.795	20663
859.928	20686
860.061	20800
860.194	20857
860.327	20781
860.46	20739
860.592	20712
860.725	20758
860.858	20823
860.99	20724
861.123	20598
861.256	20625
861.388	20701
861.521	21291
861.653	20590
861.786	20552
861.918	20507
862.05	20651
862.183	20511
862.315	20655
862.447	20731
862.58	20602
862.712	20434
862.844	20351
862.976	20503
863.108	20457
863.24	20792
863.372	20381
863.504	20404
863.636	20457
863.768	20511
863.9	20484
864.032	20301
864.164	20351
864.296	20396
864.428	20632
864.559	20560
864.691	20598
864.823	20358
864.954	20385
865.086	20324
865.217	20374
865.349	20191
865.48	20324
865.612	20362
865.743	20442
865.875	20412
866.006	20332
866.137	20419
866.269	20313
866.4	20419
866.531	20263
866.662	20259
866.793	20210
866.924	20358
867.055	20313
867.186	20199
867.317	20225
867.448	20286
867.579	20206
867.71	20259
867.841	20134
867.972	20313
868.103	20256
868.233	20248
868.364	20309
868.495	20370
868.625	20393
868.756	20549
868.886	20434
869.017	20438
869.147	20568
869.278	20598
869.408	20560
869.539	20533
869.669	20594
869.799	20583
869.929	20644
870.06	20697
870.19	20819
870.32	20781
870.45	20857
870.58	20868
870.71	21036
870.84	20967
870.97	20937
871.1	20830
871.23	21154
871.36	21043
871.489	20979
871.619	21161
871.749	21123
871.879	21211
872.008	21207
872.138	21032
872.267	21131
872.397	21024
872.526	20899
872.656	21077
872.785	20937
872.915	21230
873.044	21294
873.173	21256
873.303	21272
873.432	21150
873.561	21214
873.69	21169
873.819	21100
873.948	21325
874.077	21180
874.206	21089
874.335	21100
874.464	21256
874.593	21431
874.722	21344
874.851	21298
874.979	21378
875.108	21397
875.237	21313
875.365	21329
875.494	21428
875.623	21397
875.751	21351
875.88	21416
876.008	21466
876.136	21557
876.265	21869
876.393	21838
876.521	21797
876.65	21873
876.778	21838
876.906	21583
877.034	21762
877.162	21698
877.29	21701
877.418	21759
877.546	21804
877.674	21800
877.802	21675
877.93	21759
878.058	21618
878.185	21720
878.313	21694
878.441	21682
878.568	21538
878.696	21751
878.824	21808
878.951	21781
879.079	21743
879.206	22044
879.333	21987
879.461	21800
879.588	21922
879.715	21880
879.842	21975
879.97	21876
880.097	21656
880.224	21526
880.351	21660
880.478	21576
880.605	21606
880.732	21595
880.859	21797
880.986	21466
881.112	21583
881.239	21424
881.366	21302
881.493	21192
881.619	21252
881.746	21165
881.872	21127
881.999	21096
882.125	20921
882.252	21104
882.378	21051
882.505	21138
882.631	20994
882.757	20800
882.883	21028
883.01	20773
883.136	20807
883.262	20625
883.388	20701
883.514	20834
883.64	20906
883.766	20785
883.892	20693
884.018	20609
884.143	20826
884.269	20929
884.395	20579
884.52	20431
884.646	20564
884.772	20492
884.897	20412
885.023	20480
885.148	20579
885.274	20587
885.399	20629
885.524	20552
885.65	20518
885.775	20488
885.9	20465
886.025	20579
886.15	20495
886.275	20526
886.4	20358
886.525	20602
886.65	20385
886.775	20434
886.9	20602
887.025	20644
887.149	20400
887.274	20396
887.399	20183
887.523	20313
887.648	20130
887.773	20107
887.897	20271
888.021	20309
888.146	20183
888.27	20305
888.395	20328
888.519	20282
888.643	20347
888.767	20385
888.891	20218
889.015	20092
889.139	20134
889.263	20024
889.387	20161
889.511	20324
889.635	20233
889.759	20073
889.883	20027
890.006	20024
890.13	20020
890.254	19925
890.377	20039
890.501	19841
890.624	19856
890.748	19837
890.871	19795
890.995	19571
891.118	19571
891.241	19670
891.364	19719
891.488	19788
891.611	19712
891.734	19662
891.857	19651
891.98	19655
892.103	19712
892.226	19651
892.349	19575
892.471	19502
892.594	19567
892.717	19723
892.839	19578
892.962	19575
893.085	19609
893.207	19518
893.33	19350
893.452	19434
893.575	19521
893.697	19499
893.819	19685
893.941	19780
894.064	19624
894.186	19502
894.308	19487
894.43	19643
894.552	19765
894.674	19613
894.796	19521
894.918	19510
895.04	19578
895.161	19746
895.283	19647
895.405	19601
895.526	19613
895.648	19540
895.769	19575
895.891	19483
896.012	19662
896.134	19639
896.255	19582
896.376	19537
896.498	19590
896.619	19552
896.74	19502
896.861	19616
896.982	19841
897.103	19974
897.224	19913
897.345	19791
897.466	19693
897.587	19799
897.708	19913
897.828	19875
897.949	19765
898.07	19750
898.19	19822
898.311	19837
898.431	19662
898.552	19871
898.672	19925
898.792	19974
898.913	19875
899.033	19750
899.153	19609
899.273	19499
899.393	19571
899.513	19601
899.633	19514
899.753	19445
899.873	19616
899.993	19491
900.113	19521
900.232	19521
900.352	19419
900.472	19422
900.591	19247
900.711	19335
900.83	19293
900.95	19358
901.069	19495
901.189	19209
901.308	19034
901.427	18897
901.546	18935
901.665	18985
901.784	18954
901.904	18776
902.023	18757
902.141	18471
902.26	18448
902.379	18547
902.498	18357
902.617	18395
902.735	18429
902.854	18490
902.973	18380
903.091	18163
903.21	18106
903.328	18125
903.446	18087
903.565	18034
903.683	17980
903.801	17824
903.919	17893
904.038	17843
904.156	17726
904.274	17707
904.392	17566
904.51	17653
904.627	17634
904.745	17695
904.863	17710
904.981	17474
905.098	17395
905.216	17421
905.334	17490
905.451	17311
905.569	17444
905.686	17455
905.803	17372
905.921	17189
906.038	17258
906.155	17208
906.272	17018
906.389	17117
906.506	16946
906.623	16968
906.74	16968
906.857	16793
906.974	16900
907.091	16972
907.208	17083
907.324	17010
907.441	16809
907.557	16630
907.674	16778
907.79	16569
907.907	16527
908.023	16706
908.139	16626
908.256	16622
908.372	16630
908.488	16611
908.604	16348
908.72	16314
908.836	16375
908.952	16367
909.068	16402
909.184	16459
909.3	16390
909.415	16485
909.531	16333
909.647	16173
909.762	16139
909.878	15983
909.993	16063
910.108	16109
910.224	16017
910.339	16120
910.454	15960
910.57	15823
910.685	15816
910.8	16082
910.915	15903
911.03	16010
911.145	15759
911.259	15698
911.374	15732
911.489	15732
911.604	15644
911.718	15367
911.833	15504
911.947	15310
912.062	15374
912.176	15424
912.291	15466
912.405	15454
912.519	15534
912.633	15633
912.748	15458
912.862	15382
912.976	15256
913.09	15188
913.204	15233
913.318	15256
913.431	15336
913.545	15359
913.659	15443
913.772	15245
913.886	15028
914	15017
914.113	15176
914.226	15058
914.34	15089
914.453	15013
914.566	15119
914.68	15013
914.793	14891
914.906	14724
915.019	14629
915.132	14659
915.245	14613
915.358	14693
915.47	14644
915.583	14659
915.696	14746
915.809	14823
915.921	14758
916.034	14602
916.146	14606
916.259	14549
916.371	14720
916.483	14629
916.595	14495
916.708	14480
916.82	14415
916.932	14389
917.044	14434
917.156	14473
917.268	14362
917.38	14336
917.491	14366
917.603	14370
917.715	14537
917.826	14408
917.938	14298
918.049	14183
918.161	14317
918.272	14412
918.384	14400
918.495	14313
918.606	14153
918.717	14081
918.828	14077
918.939	14069
919.05	14024
919.161	14119
919.272	13841
919.383	13959
919.494	14142
919.604	14328
919.715	14115
919.826	13947
919.936	13959
920.047	14142
920.157	14062
920.267	14240
920.378	14195
920.488	14081
920.598	14317
920.708	14339
920.818	14221
920.928	14195
921.038	14404
921.148	14332
921.258	14054
921.368	13963
921.477	13811
921.587	13826
921.697	13696
921.806	13845
921.916	13643
922.025	13609
922.134	13518
922.244	13537
922.353	13540
922.462	13339
922.571	13263
922.68	13194
922.789	13225
922.898	13168
923.007	13084
923.116	13175
923.224	13095
923.333	13190
923.442	12897
923.55	12939
923.659	12962
923.767	13091
923.876	12913
923.984	13042
924.092	12924
924.201	12920
924.309	12932
924.417	12890
924.525	12810
924.633	12798
924.741	13833
924.849	12616
924.956	12719
925.064	12578
925.172	12517
925.279	12460
925.387	12547
925.494	12604
925.602	12738
925.709	12597
925.816	12471
925.924	12536
926.031	12639
926.138	12509
926.245	12578
926.352	12361
926.459	12536
926.566	12578
926.673	12407
926.779	12365
926.886	12285
926.993	12155
927.099	12167
927.206	12117
927.312	12064
927.419	12182
927.525	12148
927.631	12197
927.737	12022
927.843	12038
927.95	11965
928.056	11996
928.162	12038
928.267	11961
928.373	12650
928.479	12045
928.585	11882
928.69	11988
928.796	11999
928.901	11847
929.007	11737
929.112	11836
929.218	11851
929.323	11695
929.428	11646
929.533	11733
929.638	11627
929.743	11684
929.848	11783
929.953	11668
930.058	11566
930.163	11395
930.267	11417
930.372	11509
930.477	11379
930.581	11680
930.685	11425
930.79	11360
930.894	11337
930.998	11299
931.103	11402
931.207	11121
931.311	11014
931.415	10946
931.519	10771
931.623	10672
