Data from test_V78500241_363.txt Node
Date: Fri Mar 25 15:12:23 CST 2022
User: usil
Spectrometer: V785-0024
Trigger mode: 0
Integration Time (sec): 4.000000E-1
Scans to average: 1
Nonlinearity correction enabled: false
Boxcar width: 0
Storing dark spectrum: false
XAxis mode: Wavelengths
Number of Pixels in Spectrum: 1024
>>>>>Begin Spectral Data<<<<<
801.071	26883
801.214	26807
801.356	26659
801.499	26701
801.641	26522
801.783	26670
801.926	26659
802.068	26408
802.211	26275
802.353	26381
802.496	26244
802.638	26233
802.78	26084
802.923	26282
803.065	26126
803.208	26122
803.35	25997
803.492	26259
803.635	26358
803.777	26248
803.919	26351
804.061	26762
804.204	26309
804.346	26237
804.488	26195
804.63	26389
804.773	26202
804.915	26381
805.057	26355
805.199	26282
805.341	26438
805.483	26377
805.626	26202
805.768	26336
805.91	26415
806.052	26366
806.194	26343
806.336	26522
806.478	26324
806.62	26248
806.762	26495
806.904	26590
807.046	26853
807.188	26842
807.33	26735
807.472	26853
807.614	26724
807.756	26800
807.898	26697
808.04	26636
808.182	26495
808.324	26659
808.465	26712
808.607	26788
808.749	26944
808.891	27116
809.033	27306
809.174	27214
809.316	27039
809.458	26891
809.6	26910
809.741	27188
809.883	27077
810.025	27287
810.166	27287
810.308	27443
810.45	27332
810.591	27188
810.733	27005
810.875	26902
811.016	26902
811.158	26895
811.299	26971
811.441	27089
811.582	27058
811.724	26956
811.865	26895
812.007	26998
812.148	27028
812.29	26998
812.431	27116
812.573	27249
812.714	27507
812.855	27386
812.997	27606
813.138	27724
813.279	27481
813.421	27622
813.562	27408
813.703	27439
813.845	27043
813.986	26967
814.127	26686
814.268	26648
814.41	26492
814.551	26568
814.692	26708
814.833	26609
814.974	26431
815.115	26682
815.256	26549
815.397	26530
815.539	26465
815.68	26507
815.821	26374
815.962	26503
816.103	26571
816.244	26237
816.385	26347
816.526	26107
816.666	26046
816.807	25837
816.948	25906
817.089	26016
817.23	25913
817.371	25928
817.512	26016
817.653	25986
817.793	25818
817.934	25860
818.075	25906
818.216	25989
818.356	25833
818.497	25791
818.638	25651
818.778	25601
818.919	25571
819.06	25693
819.2	25685
819.341	25902
819.481	25830
819.622	26012
819.762	26191
819.903	26153
820.043	26084
820.184	25966
820.324	25902
820.465	26073
820.605	26005
820.746	25978
820.886	25845
821.026	26050
821.167	25845
821.307	26096
821.447	25955
821.588	25932
821.728	25734
821.868	25582
822.008	25350
822.149	25350
822.289	25266
822.429	25126
822.569	24989
822.709	25012
822.849	24817
822.99	24985
823.13	24829
823.27	24719
823.41	24703
823.55	24559
823.69	24730
823.83	24673
823.97	24677
824.11	24441
824.25	24452
824.389	24498
824.529	24608
824.669	24677
824.809	24707
824.949	24684
825.089	24734
825.228	24616
825.368	24308
825.508	24330
825.648	24315
825.787	24418
825.927	24433
826.067	24361
826.206	24350
826.346	24346
826.485	24418
826.625	24365
826.765	24479
826.904	24365
827.044	24243
827.183	24190
827.323	24049
827.462	24133
827.601	24022
827.741	24117
827.88	24152
828.02	24095
828.159	24030
828.298	24060
828.437	24251
828.577	23954
828.716	24197
828.855	24030
828.994	23843
829.134	23824
829.273	23893
829.412	23687
829.551	23611
829.69	23897
829.829	23870
829.968	23882
830.107	23847
830.246	23748
830.385	23687
830.524	23760
830.663	23566
830.802	23573
830.941	23467
831.08	23254
831.219	23448
831.357	23448
831.496	23570
831.635	23341
831.774	23353
831.913	23277
832.051	23246
832.19	23155
832.329	23341
832.467	23147
832.606	23117
832.744	22968
832.883	23105
833.022	23159
833.16	23090
833.299	23155
833.437	23159
833.576	23204
833.714	23341
833.852	23121
833.991	23288
834.129	23258
834.267	23212
834.406	23159
834.544	23216
834.682	23140
834.821	23041
834.959	23353
835.097	23041
835.235	23246
835.373	23200
835.511	23105
835.65	22843
835.788	23204
835.926	22946
836.064	22850
836.202	22847
836.34	23014
836.478	23109
836.615	23022
836.753	23083
836.891	23193
837.029	23105
837.167	22923
837.305	22957
837.443	23003
837.58	22881
837.718	22972
837.856	22934
837.993	22923
838.131	22889
838.269	22831
838.406	22683
838.544	22721
838.681	22660
838.819	22367
838.956	22367
839.094	22451
839.231	22573
839.369	22382
839.506	22717
839.643	22481
839.781	22348
839.918	22276
840.055	22325
840.193	22432
840.33	22325
840.467	22348
840.604	22371
840.742	22615
840.879	22067
841.016	22131
841.153	22253
841.29	22405
841.427	22394
841.564	22299
841.701	22367
841.838	22086
841.975	22188
842.112	22246
842.249	22017
842.385	22017
842.522	22295
842.659	22090
842.796	21964
842.933	22067
843.069	22040
843.206	22097
843.343	22112
843.479	22032
843.616	22074
843.752	21892
843.889	21789
844.025	21972
844.162	21884
844.298	21899
844.435	21751
844.571	21850
844.708	21941
844.844	21922
844.98	21945
845.117	21956
845.253	21728
845.389	21701
845.525	21663
845.661	21736
845.798	21709
845.934	21610
846.07	21504
846.206	21534
846.342	21747
846.478	21481
846.614	21298
846.75	21264
846.886	21245
847.022	21340
847.158	21340
847.294	21245
847.429	21363
847.565	21294
847.701	21530
847.837	21051
847.972	21039
848.108	21077
848.244	21096
848.379	21108
848.515	20925
848.65	20788
848.786	20857
848.921	20891
849.057	21017
849.192	21074
849.328	20975
849.463	20921
849.598	20750
849.734	20792
849.869	20705
850.004	20655
850.14	20708
850.275	20655
850.41	20651
850.545	20590
850.68	20644
850.815	20720
850.95	20686
851.085	20830
851.22	20746
851.355	20743
851.49	20689
851.625	20606
851.76	20716
851.895	20594
852.03	20457
852.165	20602
852.299	20674
852.434	20781
852.569	20674
852.703	20697
852.838	20796
852.973	20815
853.107	20743
853.242	20587
853.376	20644
853.511	20332
853.645	20473
853.78	20617
853.914	20450
854.048	20526
854.183	20427
854.317	20552
854.451	20769
854.585	20541
854.72	20514
854.854	20541
854.988	20450
855.122	20427
855.256	20328
855.39	20492
855.524	20537
855.658	20590
855.792	20423
855.926	20476
856.06	20461
856.194	20522
856.327	20492
856.461	20503
856.595	20457
856.729	20450
856.862	20545
856.996	20575
857.13	20537
857.263	20705
857.397	20583
857.53	20549
857.664	20560
857.797	20590
857.931	20705
858.064	20461
858.197	20492
858.331	20465
858.464	20457
858.597	20484
858.731	20442
858.864	20431
858.997	20385
859.13	20461
859.263	20476
859.396	20606
859.529	20503
859.662	20343
859.795	20408
859.928	20370
860.061	20522
860.194	20682
860.327	20423
860.46	20473
860.592	20514
860.725	20735
860.858	20632
860.99	20495
861.123	20446
861.256	20484
861.388	20408
861.521	21146
861.653	20309
861.786	20210
861.918	20320
862.05	20408
862.183	20480
862.315	20495
862.447	20530
862.58	20366
862.712	20309
862.844	20301
862.976	20332
863.108	20366
863.24	20594
863.372	20199
863.504	20237
863.636	20202
863.768	20320
863.9	20130
864.032	20164
864.164	20107
864.296	20256
864.428	20385
864.559	20267
864.691	20313
864.823	20210
864.954	20195
865.086	20210
865.217	20229
865.349	20024
865.48	20180
865.612	20214
865.743	20309
865.875	20073
866.006	20035
866.137	20122
866.269	20130
866.4	20119
866.531	20069
866.662	20054
866.793	19978
866.924	20069
867.055	20077
867.186	20103
867.317	19974
867.448	19944
867.579	20043
867.71	19936
867.841	19925
867.972	20145
868.103	20001
868.233	19993
868.364	20138
868.495	20046
868.625	20301
868.756	20400
868.886	20278
869.017	20351
869.147	20370
869.278	20412
869.408	20320
869.539	20324
869.669	20320
869.799	20332
869.929	20370
870.06	20423
870.19	20636
870.32	20651
870.45	20617
870.58	20670
870.71	20872
870.84	20918
870.97	20750
871.1	20689
871.23	20811
871.36	20914
871.489	20701
871.619	20891
871.749	20948
871.879	20899
872.008	21096
872.138	20823
872.267	20868
872.397	20682
872.526	20849
872.656	20781
872.785	20735
872.915	20960
873.044	21047
873.173	20781
873.303	20895
873.432	21127
873.561	20998
873.69	20941
873.819	20899
873.948	21028
874.077	20937
874.206	20960
874.335	20899
874.464	21043
874.593	21222
874.722	21173
874.851	21108
874.979	21226
875.108	21214
875.237	21146
875.365	21013
875.494	21074
875.623	21252
875.751	20998
875.88	21245
876.008	21283
876.136	21329
876.265	21694
876.393	21751
876.521	21679
876.65	21679
876.778	21526
876.906	21481
877.034	21443
877.162	21526
877.29	21614
877.418	21515
877.546	21393
877.674	21462
877.802	21401
877.93	21481
878.058	21481
878.185	21302
878.313	21606
878.441	21519
878.568	21378
878.696	21504
878.824	21591
878.951	21629
879.079	21709
879.206	21911
879.333	21736
879.461	21542
879.588	21591
879.715	21682
879.842	21819
879.97	21637
880.097	21397
880.224	21344
880.351	21351
880.478	21450
880.605	21370
880.732	21332
880.859	21580
880.986	21321
881.112	21325
881.239	21199
881.366	21142
881.493	21055
881.619	20944
881.746	20929
881.872	20902
881.999	20925
882.125	20929
882.252	20929
882.378	20933
882.505	21047
882.631	20762
882.757	20727
882.883	20689
883.01	20667
883.136	20629
883.262	20571
883.388	20541
883.514	20549
883.64	20629
883.766	20583
883.892	20526
884.018	20461
884.143	20564
884.269	20735
884.395	20324
884.52	20267
884.646	20294
884.772	20111
884.897	20195
885.023	20191
885.148	20419
885.274	20511
885.399	20358
885.524	20313
885.65	20229
885.775	20298
885.9	20267
886.025	20465
886.15	20396
886.275	20214
886.4	20256
886.525	20202
886.65	20176
886.775	20248
886.9	20309
887.025	20514
887.149	20161
887.274	20210
887.399	20145
887.523	20024
887.648	20012
887.773	19951
887.897	20206
888.021	20031
888.146	19921
888.27	20100
888.395	20149
888.519	20081
888.643	20058
888.767	20206
888.891	19997
889.015	19913
889.139	19944
889.263	19894
889.387	20077
889.511	20103
889.635	19982
889.759	19830
889.883	19830
890.006	19989
890.13	19993
890.254	19666
890.377	19784
890.501	19597
890.624	19563
890.748	19742
890.871	19563
890.995	19506
891.118	19274
891.241	19365
891.364	19419
891.488	19499
891.611	19453
891.734	19434
891.857	19575
891.98	19548
892.103	19601
892.226	19415
892.349	19422
892.471	19194
892.594	19537
892.717	19365
892.839	19411
892.962	19320
893.085	19430
893.207	19339
893.33	19297
893.452	19289
893.575	19552
893.697	19331
893.819	19529
893.941	19674
894.064	19613
894.186	19354
894.308	19343
894.43	19293
894.552	19506
894.674	19445
894.796	19388
894.918	19270
895.04	19316
895.161	19411
895.283	19365
895.405	19343
895.526	19339
895.648	19388
895.769	19339
895.891	19400
896.012	19457
896.134	19434
896.255	19419
896.376	19407
896.498	19449
896.619	19308
896.74	19335
896.861	19480
896.982	19803
897.103	19898
897.224	19731
897.345	19651
897.466	19533
897.587	19552
897.708	19814
897.828	19704
897.949	19586
898.07	19487
898.19	19464
898.311	19727
898.431	19529
898.552	19590
898.672	19590
898.792	19647
898.913	19662
899.033	19594
899.153	19365
899.273	19278
899.393	19335
899.513	19297
899.633	19381
899.753	19312
899.873	19422
899.993	19415
900.113	19343
900.232	19293
900.352	19422
900.472	19202
900.591	19209
900.711	19217
900.83	19179
900.95	19164
901.069	19304
901.189	19114
901.308	18871
901.427	18749
901.546	18745
901.665	18806
901.784	18749
901.904	18616
902.023	18517
902.141	18209
902.26	18418
902.379	18342
902.498	18289
902.617	18197
902.735	18300
902.854	18239
902.973	18167
903.091	17908
903.21	17939
903.328	17813
903.446	17885
903.565	17699
903.683	17832
903.801	17566
903.919	17805
904.038	17684
904.156	17486
904.274	17543
904.392	17509
904.51	17463
904.627	17558
904.745	17532
904.863	17608
904.981	17296
905.098	17330
905.216	17185
905.334	17246
905.451	17189
905.569	17189
905.686	17315
905.803	17239
905.921	16984
906.038	17117
906.155	17045
906.272	16942
906.389	16919
906.506	16725
906.623	16786
906.74	16816
906.857	16542
906.974	16630
907.091	16793
907.208	16930
907.324	16748
907.441	16649
907.557	16459
907.674	16470
907.79	16432
907.907	16531
908.023	16554
908.139	16451
908.256	16352
908.372	16325
908.488	16375
908.604	16246
908.72	16105
908.836	16272
908.952	16242
909.068	16177
909.184	16287
909.3	16154
909.415	16356
909.531	16215
909.647	15972
909.762	15956
909.878	15865
909.993	16013
910.108	15991
910.224	15793
910.339	15854
910.454	15743
910.57	15774
910.685	15751
910.8	16044
910.915	15888
911.03	15709
911.145	15625
911.259	15580
911.374	15561
911.489	15458
911.604	15351
911.718	15188
911.833	15203
911.947	15161
912.062	15112
912.176	15268
912.291	15245
912.405	15195
912.519	15435
912.633	15367
912.748	15435
912.862	15287
912.976	15150
913.09	15070
913.204	15116
913.318	15100
913.431	15165
913.545	15138
913.659	15195
913.772	15051
913.886	14948
914	14941
914.113	15005
914.226	15043
914.34	15013
914.453	14883
914.566	14982
914.68	14800
914.793	14785
914.906	14621
915.019	14465
915.132	14514
915.245	14549
915.358	14549
915.47	14537
915.583	14495
915.696	14644
915.809	14659
915.921	14632
916.034	14469
916.146	14461
916.259	14385
916.371	14511
916.483	14461
916.595	14358
916.708	14427
916.82	14324
916.932	14355
917.044	14332
917.156	14362
917.268	14267
917.38	14233
917.491	14123
917.603	14313
917.715	14259
917.826	14324
917.938	14123
918.049	14206
918.161	14187
918.272	14259
918.384	14313
918.495	14229
918.606	14065
918.717	13906
918.828	13963
918.939	13951
919.05	13940
919.161	13875
919.272	13871
919.383	13883
919.494	14103
919.604	14145
919.715	14027
919.826	13852
919.936	13951
920.047	13986
920.157	13925
920.267	14168
920.378	13963
920.488	14024
920.598	14145
920.708	14244
920.818	14054
920.928	14092
921.038	14229
921.148	14202
921.258	13890
921.368	13830
921.477	13693
921.587	13708
921.697	13510
921.806	13772
921.916	13613
922.025	13510
922.134	13324
922.244	13236
922.353	13460
922.462	13202
922.571	13206
922.68	12981
922.789	13053
922.898	12966
923.007	12875
923.116	13072
923.224	13118
923.333	12932
923.442	12867
923.55	12810
923.659	12859
923.767	12920
923.876	12871
923.984	12859
924.092	12776
924.201	12764
924.309	12722
924.417	12696
924.525	12665
924.633	12715
924.741	13392
924.849	12486
924.956	12623
925.064	12418
925.172	12448
925.279	12445
925.387	12502
925.494	12433
925.602	12570
925.709	12483
925.816	12395
925.924	12376
926.031	12490
926.138	12410
926.245	12483
926.352	12319
926.459	12376
926.566	12475
926.673	12346
926.779	12175
926.886	12186
926.993	12114
927.099	12125
927.206	12026
927.312	12026
927.419	12095
927.525	12022
927.631	12076
927.737	11908
927.843	11798
927.95	11756
928.056	11897
928.162	11798
928.267	11908
928.373	12475
928.479	11977
928.585	11726
928.69	11840
928.796	11775
928.901	11691
929.007	11592
929.112	11794
929.218	11672
929.323	11592
929.428	11608
929.533	11786
929.638	11528
929.743	11566
929.848	11509
929.953	11482
930.058	11505
930.163	11296
930.267	11341
930.372	11463
930.477	11349
930.581	11516
930.685	11356
930.79	11185
930.894	11223
930.998	11174
931.103	11239
931.207	10980
931.311	10809
931.415	10797
931.519	10653
931.623	10561
