Data from test_V78500241_1921.txt Node
Date: Fri Mar 25 15:23:14 CST 2022
User: usil
Spectrometer: V785-0024
Trigger mode: 0
Integration Time (sec): 4.000000E-1
Scans to average: 1
Nonlinearity correction enabled: false
Boxcar width: 0
Storing dark spectrum: false
XAxis mode: Wavelengths
Number of Pixels in Spectrum: 1024
>>>>>Begin Spectral Data<<<<<
801.071	27625
801.214	27606
801.356	27504
801.499	27382
801.641	27306
801.783	27230
801.926	27294
802.068	27252
802.211	27355
802.353	27089
802.496	26986
802.638	26929
802.78	27001
802.923	26781
803.065	26705
803.208	26868
803.35	26925
803.492	27051
803.635	27116
803.777	26990
803.919	27116
804.061	27488
804.204	27161
804.346	27218
804.488	27051
804.63	27070
804.773	27169
804.915	27104
805.057	27256
805.199	27051
805.341	27127
805.483	27214
805.626	27138
805.768	27154
805.91	27340
806.052	27272
806.194	27135
806.336	27542
806.478	27317
806.62	27150
806.762	27359
806.904	27420
807.046	27682
807.188	27682
807.33	27694
807.472	27629
807.614	27519
807.756	27625
807.898	27549
808.04	27553
808.182	27450
808.324	27652
808.465	27603
808.607	27679
808.749	27789
808.891	27972
809.033	27960
809.174	27831
809.316	27774
809.458	27709
809.6	27888
809.741	27949
809.883	28010
810.025	28116
810.166	28120
810.308	28109
810.45	28109
810.591	28006
810.733	27835
810.875	27880
811.016	27717
811.158	27663
811.299	28013
811.441	27968
811.582	27865
811.724	27842
811.865	27819
812.007	27781
812.148	27835
812.29	27842
812.431	27861
812.573	28230
812.714	28223
812.855	28371
812.997	28424
813.138	28713
813.279	28508
813.421	28398
813.562	28196
813.703	28223
813.845	28029
813.986	27857
814.127	27660
814.268	27462
814.41	27610
814.551	27469
814.692	27660
814.833	27534
814.974	27542
815.115	27523
815.256	27351
815.397	27427
815.539	27466
815.68	27325
815.821	27009
815.962	27450
816.103	27169
816.244	27249
816.385	27154
816.526	27180
816.666	26895
816.807	26773
816.948	26948
817.089	27024
817.23	26830
817.371	26765
817.512	26750
817.653	26769
817.793	26842
817.934	26982
818.075	26880
818.216	26842
818.356	26842
818.497	26678
818.638	26545
818.778	26621
818.919	26461
819.06	26712
819.2	26598
819.341	26868
819.481	26819
819.622	26971
819.762	27195
819.903	27127
820.043	27013
820.184	26975
820.324	26944
820.465	27131
820.605	26963
820.746	26895
820.886	26701
821.026	26990
821.167	26807
821.307	26853
821.447	26857
821.588	26933
821.728	26632
821.868	26480
822.008	26244
822.149	26332
822.289	26298
822.429	26043
822.569	25982
822.709	25955
822.849	25864
822.99	25856
823.13	25647
823.27	25761
823.41	25647
823.55	25419
823.69	25658
823.83	25559
823.97	25609
824.11	25308
824.25	25453
824.389	25495
824.529	25434
824.669	25407
824.809	25594
824.949	25632
825.089	25483
825.228	25426
825.368	25251
825.508	25202
825.648	25285
825.787	25369
825.927	25419
826.067	25282
826.206	25247
826.346	25472
826.485	25384
826.625	25407
826.765	25274
826.904	25362
827.044	25194
827.183	25084
827.323	25107
827.462	24958
827.601	24966
827.741	24935
827.88	25122
828.02	24802
828.159	25042
828.298	25031
828.437	25156
828.577	25076
828.716	25156
828.855	24977
828.994	24802
829.134	24661
829.273	24848
829.412	24700
829.551	24776
829.69	24825
829.829	24688
829.968	24757
830.107	24871
830.246	24661
830.385	24696
830.524	24673
830.663	24597
830.802	24498
830.941	24407
831.08	24334
831.219	24369
831.357	24456
831.496	24601
831.635	24456
831.774	24338
831.913	24273
832.051	24213
832.19	24243
832.329	24140
832.467	24015
832.606	24003
832.744	23942
832.883	24095
833.022	24087
833.16	23942
833.299	23950
833.437	23988
833.576	24148
833.714	24121
833.852	24121
833.991	24045
834.129	24228
834.267	24209
834.406	24140
834.544	24152
834.682	24163
834.821	24057
834.959	24262
835.097	23961
835.235	24254
835.373	23946
835.511	24072
835.65	24064
835.788	23946
835.926	23874
836.064	23680
836.202	23832
836.34	23969
836.478	23988
836.615	23950
836.753	23870
836.891	23931
837.029	23988
837.167	23889
837.305	23783
837.443	23779
837.58	23790
837.718	23775
837.856	23821
837.993	23752
838.131	23824
838.269	23687
838.406	23634
838.544	23680
838.681	23516
838.819	23410
838.956	23353
839.094	23303
839.231	23425
839.369	23398
839.506	23619
839.643	23486
839.781	23395
839.918	23189
840.055	23288
840.193	23242
840.33	23151
840.467	23235
840.604	23220
840.742	23364
840.879	23067
841.016	23159
841.153	22980
841.29	23284
841.427	23200
841.564	23200
841.701	23227
841.838	23181
841.975	23140
842.112	23048
842.249	22790
842.385	22835
842.522	23124
842.659	22877
842.796	22972
842.933	22953
843.069	22949
843.206	22706
843.343	22900
843.479	22927
843.616	22919
843.752	22691
843.889	22725
844.025	22877
844.162	22653
844.298	22820
844.435	22622
844.571	22710
844.708	22816
844.844	22862
844.98	22774
845.117	22725
845.253	22596
845.389	22615
845.525	22607
845.661	22615
845.798	22413
845.934	22432
846.07	22287
846.206	22535
846.342	22607
846.478	22352
846.614	22291
846.75	22188
846.886	22177
847.022	22204
847.158	22124
847.294	22207
847.429	22230
847.565	22230
847.701	22382
847.837	21941
847.972	21888
848.108	22090
848.244	22013
848.379	21819
848.515	21686
848.65	21701
848.786	21766
848.921	21774
849.057	21842
849.192	21972
849.328	21800
849.463	21686
849.598	21804
849.734	21660
849.869	21686
850.004	21603
850.14	21538
850.275	21644
850.41	21447
850.545	21595
850.68	21587
850.815	21519
850.95	21412
851.085	21800
851.22	21663
851.355	21564
851.49	21500
851.625	21496
851.76	21382
851.895	21488
852.03	21374
852.165	21568
852.299	21485
852.434	21610
852.569	21511
852.703	21580
852.838	21595
852.973	21663
853.107	21583
853.242	21519
853.376	21469
853.511	21298
853.645	21313
853.78	21526
853.914	21504
854.048	21367
854.183	21332
854.317	21325
854.451	21519
854.585	21466
854.72	21367
854.854	21393
854.988	21348
855.122	21374
855.256	21332
855.39	21306
855.524	21344
855.658	21428
855.792	21359
855.926	21485
856.06	21367
856.194	21336
856.327	21401
856.461	21393
856.595	21218
856.729	21256
856.862	21477
856.996	21488
857.13	21428
857.263	21466
857.397	21268
857.53	21378
857.664	21374
857.797	21405
857.931	21401
858.064	21363
858.197	21367
858.331	21340
858.464	21363
858.597	21260
858.731	21344
858.864	21370
858.997	21378
859.13	21416
859.263	21389
859.396	21496
859.529	21439
859.662	21268
859.795	21241
859.928	21492
860.061	21492
860.194	21614
860.327	21332
860.46	21336
860.592	21454
860.725	21553
860.858	21408
860.99	21340
861.123	21325
861.256	21367
861.388	21340
861.521	22192
861.653	21298
861.786	21131
861.918	21180
862.05	21222
862.183	21374
862.315	21294
862.447	21291
862.58	21192
862.712	21005
862.844	21032
862.976	21104
863.108	21154
863.24	21576
863.372	21119
863.504	21165
863.636	21028
863.768	21142
863.9	21032
864.032	20921
864.164	21005
864.296	21157
864.428	21268
864.559	21161
864.691	21131
864.823	21066
864.954	21070
865.086	21017
865.217	21009
865.349	20800
865.48	20963
865.612	20979
865.743	21142
865.875	20971
866.006	20872
866.137	21074
866.269	20994
866.4	20975
866.531	20990
866.662	20792
866.793	20769
866.924	20895
867.055	20864
867.186	20762
867.317	20853
867.448	20769
867.579	20667
867.71	20792
867.841	20834
867.972	20990
868.103	20868
868.233	20815
868.364	20937
868.495	21062
868.625	21032
868.756	21165
868.886	21066
869.017	21051
869.147	21264
869.278	21176
869.408	21188
869.539	21100
869.669	21100
869.799	21180
869.929	21203
870.06	21386
870.19	21355
870.32	21344
870.45	21374
870.58	21564
870.71	21785
870.84	21587
870.97	21557
871.1	21557
871.23	21633
871.36	21724
871.489	21663
871.619	21724
871.749	21778
871.879	21770
872.008	21728
872.138	21759
872.267	21728
872.397	21519
872.526	21549
872.656	21511
872.785	21523
872.915	21766
873.044	21869
873.173	21800
873.303	21766
873.432	21739
873.561	21869
873.69	21641
873.819	21564
873.948	21717
874.077	21698
874.206	21819
874.335	21759
874.464	21979
874.593	21953
874.722	21903
874.851	21956
874.979	21930
875.108	22048
875.237	21857
875.365	21888
875.494	21934
875.623	21968
875.751	21884
875.88	22010
876.008	22074
876.136	22116
876.265	22348
876.393	22451
876.521	22459
876.65	22360
876.778	22417
876.906	22314
877.034	22367
877.162	22371
877.29	22265
877.418	22447
877.546	22318
877.674	22344
877.802	22367
877.93	22398
878.058	22322
878.185	22276
878.313	22272
878.441	22314
878.568	22150
878.696	22318
878.824	22280
878.951	22341
879.079	22538
879.206	22618
879.333	22550
879.461	22409
879.588	22493
879.715	22504
879.842	22535
879.97	22462
880.097	22147
880.224	22131
880.351	22192
880.478	22139
880.605	22074
880.732	22200
880.859	22242
880.986	22169
881.112	22306
881.239	21926
881.366	21964
881.493	21808
881.619	21728
881.746	21747
881.872	21736
881.999	21732
882.125	21701
882.252	21724
882.378	21648
882.505	21774
882.631	21587
882.757	21450
882.883	21538
883.01	21572
883.136	21439
883.262	21287
883.388	21203
883.514	21511
883.64	21443
883.766	21351
883.892	21192
884.018	21283
884.143	21485
884.269	21374
884.395	21104
884.52	21047
884.646	21119
884.772	21020
884.897	20979
885.023	21150
885.148	21169
885.274	21214
885.399	21100
885.524	21028
885.65	21081
885.775	21142
885.9	21093
886.025	21131
886.15	21157
886.275	20979
886.4	20895
886.525	21039
886.65	20990
886.775	20864
886.9	21157
887.025	21142
887.149	21047
887.274	20785
887.399	20765
887.523	20895
887.648	20735
887.773	20800
887.897	20872
888.021	20982
888.146	20762
888.27	20811
888.395	20986
888.519	20876
888.643	20902
888.767	20849
888.891	20727
889.015	20651
889.139	20636
889.263	20663
889.387	20735
889.511	20754
889.635	20743
889.759	20655
889.883	20701
890.006	20583
890.13	20659
890.254	20488
890.377	20644
890.501	20518
890.624	20271
890.748	20431
890.871	20225
890.995	20240
891.118	20031
891.241	20180
891.364	20267
891.488	20324
891.611	20176
891.734	20134
891.857	20149
891.98	20248
892.103	20324
892.226	20176
892.349	20183
892.471	20050
892.594	20195
892.717	20096
892.839	20187
892.962	20119
893.085	20206
893.207	20164
893.33	20001
893.452	20073
893.575	20058
893.697	20024
893.819	20271
893.941	20347
894.064	20142
894.186	20073
894.308	20100
894.43	20168
894.552	20199
894.674	20210
894.796	19970
894.918	20020
895.04	20012
895.161	20202
895.283	20088
895.405	20081
895.526	20122
895.648	20111
895.769	20115
895.891	20164
896.012	20153
896.134	20081
896.255	20092
896.376	20008
896.498	20103
896.619	20100
896.74	20020
896.861	20244
896.982	20473
897.103	20560
897.224	20434
897.345	20263
897.466	20229
897.587	20298
897.708	20465
897.828	20275
897.949	20206
898.07	20218
898.19	20221
898.311	20317
898.431	20320
898.552	20225
898.672	20328
898.792	20393
898.913	20320
899.033	20199
899.153	20046
899.273	20024
899.393	20088
899.513	20149
899.633	20081
899.753	20020
899.873	19955
899.993	20138
900.113	19974
900.232	20145
900.352	19974
900.472	19883
900.591	19978
900.711	19898
900.83	19750
900.95	19837
901.069	19868
901.189	19685
901.308	19643
901.427	19381
901.546	19422
901.665	19384
901.784	19445
901.904	19369
902.023	19190
902.141	19019
902.26	19046
902.379	19050
902.498	18943
902.617	18837
902.735	18985
902.854	18817
902.973	18810
903.091	18623
903.21	18631
903.328	18677
903.446	18502
903.565	18422
903.683	18342
903.801	18346
903.919	18319
904.038	18414
904.156	18194
904.274	18117
904.392	18114
904.51	18098
904.627	18209
904.745	18144
904.863	18106
904.981	17863
905.098	17866
905.216	17950
905.334	17893
905.451	17824
905.569	17813
905.686	17901
905.803	17737
905.921	17634
906.038	17676
906.155	17657
906.272	17490
906.389	17528
906.506	17448
906.623	17467
906.74	17303
906.857	17235
906.974	17265
907.091	17501
907.208	17505
907.324	17379
907.441	17334
907.557	17216
907.674	17102
907.79	17048
907.907	17083
908.023	17079
908.139	17079
908.256	17041
908.372	17052
908.488	16995
908.604	16873
908.72	16694
908.836	16809
908.952	16889
909.068	16904
909.184	17010
909.3	16793
909.415	16900
909.531	16835
909.647	16645
909.762	16500
909.878	16451
909.993	16550
910.108	16371
910.224	16512
910.339	16508
910.454	16443
910.57	16424
910.685	16329
910.8	16455
910.915	16634
911.03	16409
911.145	16169
911.259	16158
911.374	16215
911.489	16059
911.604	15949
911.718	15785
911.833	15831
911.947	15743
912.062	15755
912.176	15865
912.291	15953
912.405	15835
912.519	15968
912.633	16101
912.748	15804
912.862	15835
912.976	15648
913.09	15656
913.204	15720
913.318	15682
913.431	15739
913.545	15781
913.659	15778
913.772	15599
913.886	15549
914	15344
914.113	15595
914.226	15507
914.34	15568
914.453	15408
914.566	15564
914.68	15348
914.793	15302
914.906	15176
915.019	15100
915.132	15005
915.245	15089
915.358	15127
915.47	15043
915.583	15089
915.696	15108
915.809	15192
915.921	15131
916.034	15066
916.146	14990
916.259	14948
916.371	15036
916.483	15009
916.595	14902
916.708	14918
916.82	14971
916.932	14929
917.044	14880
917.156	14883
917.268	14800
917.38	14762
917.491	14712
917.603	14735
917.715	14838
917.826	14868
917.938	14712
918.049	14560
918.161	14689
918.272	14842
918.384	14712
918.495	14632
918.606	14427
918.717	14377
918.828	14473
918.939	14537
919.05	14465
919.161	14499
919.272	14233
919.383	14370
919.494	14518
919.604	14667
919.715	14503
919.826	14385
919.936	14495
920.047	14640
920.157	14511
920.267	14610
920.378	14476
920.488	14533
920.598	14610
920.708	14758
920.818	14617
920.928	14503
921.038	14731
921.148	14716
921.258	14454
921.368	14320
921.477	14187
921.587	14259
921.697	14100
921.806	14278
921.916	14065
922.025	13845
922.134	13864
922.244	13799
922.353	13909
922.462	13658
922.571	13696
922.68	13567
922.789	13518
922.898	13449
923.007	13354
923.116	13483
923.224	13533
923.333	13373
923.442	13320
923.55	13244
923.659	13434
923.767	13384
923.876	13285
923.984	13369
924.092	13270
924.201	13274
924.309	13190
924.417	13232
924.525	13080
924.633	13110
924.741	14027
924.849	13027
924.956	13175
925.064	13000
925.172	12844
925.279	12962
925.387	12878
925.494	12958
925.602	12989
925.709	12909
925.816	12825
925.924	12943
926.031	12947
926.138	12833
926.245	12867
926.352	12722
926.459	12943
926.566	12924
926.673	12768
926.779	12620
926.886	12715
926.993	12448
927.099	12399
927.206	12391
927.312	12372
927.419	12544
927.525	12346
927.631	12506
927.737	12486
927.843	12353
927.95	12197
928.056	12304
928.162	12277
928.267	12380
928.373	12852
928.479	12361
928.585	12114
928.69	12353
928.796	12308
928.901	12076
929.007	12064
929.112	12190
929.218	12239
929.323	12041
929.428	11999
929.533	12182
929.638	11977
929.743	11973
929.848	11988
929.953	11866
930.058	11752
930.163	11699
930.267	11748
930.372	11866
930.477	11638
930.581	11992
930.685	11722
930.79	11688
930.894	11581
930.998	11638
931.103	11726
931.207	11376
931.311	11292
931.415	11132
931.519	10999
931.623	10957
