Data from test_V78500241_730.txt Node
Date: Fri Mar 25 15:14:56 CST 2022
User: usil
Spectrometer: V785-0024
Trigger mode: 0
Integration Time (sec): 4.000000E-1
Scans to average: 1
Nonlinearity correction enabled: false
Boxcar width: 0
Storing dark spectrum: false
XAxis mode: Wavelengths
Number of Pixels in Spectrum: 1024
>>>>>Begin Spectral Data<<<<<
801.071	27945
801.214	27793
801.356	27743
801.499	27610
801.641	27367
801.783	27500
801.926	27469
802.068	27408
802.211	27344
802.353	27195
802.496	27222
802.638	27055
802.78	27119
802.923	27116
803.065	27077
803.208	26933
803.35	27077
803.492	27108
803.635	27298
803.777	26967
803.919	27184
804.061	27507
804.204	27176
804.346	27264
804.488	27138
804.63	27233
804.773	27176
804.915	27268
805.057	27332
805.199	27298
805.341	27340
805.483	27355
805.626	27321
805.768	27382
805.91	27340
806.052	27462
806.194	27355
806.336	27610
806.478	27348
806.62	27378
806.762	27618
806.904	27720
807.046	27865
807.188	27789
807.33	27804
807.472	27888
807.614	27808
807.756	27720
807.898	27751
808.04	27743
808.182	27736
808.324	27568
808.465	27739
808.607	27888
808.749	27846
808.891	28135
809.033	28265
809.174	28124
809.316	28013
809.458	28158
809.6	28055
809.741	28249
809.883	28318
810.025	28348
810.166	28424
810.308	28173
810.45	28322
810.591	28318
810.733	28219
810.875	28006
811.016	28055
811.158	27991
811.299	28051
811.441	28166
811.582	28116
811.724	27994
811.865	27926
812.007	28086
812.148	27960
812.29	28116
812.431	28200
812.573	28379
812.714	28577
812.855	28481
812.997	28542
813.138	28820
813.279	28702
813.421	28740
813.562	28630
813.703	28440
813.845	28291
813.986	28010
814.127	27930
814.268	27660
814.41	27854
814.551	27705
814.692	27835
814.833	27713
814.974	27671
815.115	27861
815.256	27618
815.397	27625
815.539	27717
815.68	27580
815.821	27408
815.962	27679
816.103	27477
816.244	27473
816.385	27382
816.526	27332
816.666	27218
816.807	27123
816.948	27062
817.089	27142
817.23	27116
817.371	27077
817.512	27154
817.653	26998
817.793	27032
817.934	27036
818.075	27077
818.216	27077
818.356	27028
818.497	27020
818.638	26625
818.778	26781
818.919	26701
819.06	26686
819.2	27024
819.341	26944
819.481	27062
819.622	27188
819.762	27363
819.903	27268
820.043	27214
820.184	27214
820.324	27062
820.465	27199
820.605	27188
820.746	27047
820.886	27062
821.026	27138
821.167	27165
821.307	27439
821.447	27188
821.588	26963
821.728	26834
821.868	26762
822.008	26423
822.149	26499
822.289	26583
822.429	26218
822.569	26252
822.709	26252
822.849	26054
822.99	25963
823.13	25875
823.27	25993
823.41	25746
823.55	25860
823.69	25887
823.83	25811
823.97	25719
824.11	25681
824.25	25677
824.389	25609
824.529	25818
824.669	25734
824.809	25734
824.949	25795
825.089	25731
825.228	25689
825.368	25537
825.508	25487
825.648	25632
825.787	25544
825.927	25632
826.067	25582
826.206	25441
826.346	25540
826.485	25624
826.625	25582
826.765	25666
826.904	25540
827.044	25441
827.183	25384
827.323	25289
827.462	25358
827.601	25312
827.741	25228
827.88	25251
828.02	25141
828.159	25266
828.298	25289
828.437	25285
828.577	25255
828.716	25316
828.855	25152
828.994	24992
829.134	24924
829.273	24947
829.412	24897
829.551	24920
829.69	24916
829.829	24989
829.968	24951
830.107	25042
830.246	25008
830.385	24795
830.524	24764
830.663	24787
830.802	24646
830.941	24563
831.08	24498
831.219	24646
831.357	24627
831.496	24703
831.635	24703
831.774	24445
831.913	24460
832.051	24418
832.19	24376
832.329	24365
832.467	24121
832.606	24205
832.744	24216
832.883	24235
833.022	24174
833.16	24292
833.299	24197
833.437	24228
833.576	24315
833.714	24338
833.852	24361
833.991	24273
834.129	24490
834.267	24304
834.406	24361
834.544	24224
834.682	24361
834.821	24350
834.959	24490
835.097	24053
835.235	24194
835.373	24159
835.511	24216
835.65	24178
835.788	24266
835.926	23977
836.064	23904
836.202	23920
836.34	24079
836.478	24182
836.615	24053
836.753	24190
836.891	24254
837.029	24140
837.167	24232
837.305	24026
837.443	23935
837.58	23999
837.718	24083
837.856	23992
837.993	23855
838.131	23904
838.269	23904
838.406	23642
838.544	23752
838.681	23604
838.819	23535
838.956	23570
839.094	23326
839.231	23497
839.369	23531
839.506	23775
839.643	23691
839.781	23463
839.918	23368
840.055	23463
840.193	23337
840.33	23227
840.467	23410
840.604	23345
840.742	23615
840.879	23223
841.016	23273
841.153	23299
841.29	23372
841.427	23303
841.564	23379
841.701	23235
841.838	23356
841.975	23258
842.112	23265
842.249	23056
842.385	23037
842.522	23200
842.659	23121
842.796	23052
842.933	23159
843.069	23128
843.206	23083
843.343	23136
843.479	23090
843.616	23159
843.752	22847
843.889	22866
844.025	23064
844.162	22793
844.298	22911
844.435	22877
844.571	22831
844.708	22801
844.844	23151
844.98	23056
845.117	22987
845.253	22809
845.389	22698
845.525	22809
845.661	22782
845.798	22637
845.934	22596
846.07	22550
846.206	22561
846.342	22725
846.478	22710
846.614	22443
846.75	22268
846.886	22299
847.022	22352
847.158	22500
847.294	22398
847.429	22318
847.565	22299
847.701	22421
847.837	22086
847.972	22154
848.108	22139
848.244	22257
848.379	22021
848.515	21922
848.65	21808
848.786	21854
848.921	21915
849.057	22025
849.192	21930
849.328	21892
849.463	22017
849.598	21960
849.734	21728
849.869	21846
850.004	21743
850.14	21781
850.275	21759
850.41	21553
850.545	21656
850.68	21610
850.815	21663
850.95	21572
851.085	21911
851.22	21800
851.355	21717
851.49	21671
851.625	21660
851.76	21542
851.895	21591
852.03	21656
852.165	21660
852.299	21644
852.434	21694
852.569	21701
852.703	21583
852.838	21774
852.973	21793
853.107	21838
853.242	21652
853.376	21511
853.511	21542
853.645	21523
853.78	21629
853.914	21534
854.048	21526
854.183	21542
854.317	21542
854.451	21599
854.585	21488
854.72	21466
854.854	21603
854.988	21443
855.122	21496
855.256	21458
855.39	21545
855.524	21340
855.658	21599
855.792	21530
855.926	21443
856.06	21603
856.194	21507
856.327	21462
856.461	21435
856.595	21412
856.729	21393
856.862	21599
856.996	21561
857.13	21561
857.263	21557
857.397	21622
857.53	21439
857.664	21504
857.797	21641
857.931	21747
858.064	21405
858.197	21614
858.331	21610
858.464	21325
858.597	21428
858.731	21481
858.864	21534
858.997	21458
859.13	21534
859.263	21488
859.396	21507
859.529	21477
859.662	21431
859.795	21401
859.928	21568
860.061	21568
860.194	21671
860.327	21656
860.46	21466
860.592	21686
860.725	21736
860.858	21538
860.99	21507
861.123	21450
861.256	21412
861.388	21386
861.521	22192
861.653	21336
861.786	21184
861.918	21317
862.05	21374
862.183	21367
862.315	21504
862.447	21405
862.58	21374
862.712	21104
862.844	21180
862.976	21405
863.108	21389
863.24	21564
863.372	21184
863.504	21252
863.636	21150
863.768	21260
863.9	21211
864.032	21161
864.164	21169
864.296	21154
864.428	21359
864.559	21199
864.691	21226
864.823	21294
864.954	21150
865.086	21203
865.217	21192
865.349	21096
865.48	21051
865.612	21233
865.743	21142
865.875	21138
866.006	21039
866.137	21081
866.269	21085
866.4	21047
866.531	21077
866.662	20960
866.793	21005
866.924	20986
867.055	21074
867.186	21009
867.317	21001
867.448	20967
867.579	21013
867.71	20941
867.841	20849
867.972	20952
868.103	20952
868.233	21013
868.364	21047
868.495	21146
868.625	21199
868.756	21370
868.886	21211
869.017	21203
869.147	21310
869.278	21359
869.408	21344
869.539	21325
869.669	21329
869.799	21351
869.929	21401
870.06	21431
870.19	21599
870.32	21515
870.45	21622
870.58	21686
870.71	21835
870.84	21785
870.97	21778
871.1	21648
871.23	21915
871.36	21835
871.489	21797
871.619	21781
871.749	21812
871.879	21800
872.008	22017
872.138	21728
872.267	21770
872.397	21804
872.526	21652
872.656	21717
872.785	21762
872.915	21956
873.044	21960
873.173	21808
873.303	21884
873.432	21907
873.561	22105
873.69	21895
873.819	21873
873.948	21918
874.077	21884
874.206	21705
874.335	21880
874.464	21979
874.593	22017
874.722	21983
874.851	22329
874.979	22055
875.108	22070
875.237	21991
875.365	21983
875.494	21945
875.623	22139
875.751	22048
875.88	22029
876.008	22135
876.136	22253
876.265	22424
876.393	22603
876.521	22421
876.65	22691
876.778	22527
876.906	22356
877.034	22436
877.162	22481
877.29	22436
877.418	22489
877.546	22379
877.674	22500
877.802	22405
877.93	22493
878.058	22474
878.185	22329
878.313	22413
878.441	22413
878.568	22318
878.696	22379
878.824	22470
878.951	22508
879.079	22561
879.206	22599
879.333	22538
879.461	22497
879.588	22626
879.715	22634
879.842	22698
879.97	22611
880.097	22341
880.224	22329
880.351	22398
880.478	22306
880.605	22299
880.732	22344
880.859	22474
880.986	22120
881.112	22306
881.239	22280
881.366	21991
881.493	21926
881.619	21842
881.746	21857
881.872	21857
881.999	21762
882.125	21724
882.252	21800
882.378	21869
882.505	21945
882.631	21682
882.757	21603
882.883	21633
883.01	21500
883.136	21485
883.262	21298
883.388	21428
883.514	21545
883.64	21477
883.766	21580
883.892	21218
884.018	21348
884.143	21500
884.269	21576
884.395	21119
884.52	21207
884.646	21256
884.772	21211
884.897	21001
885.023	21226
885.148	21321
885.274	21336
885.399	21146
885.524	21081
885.65	21268
885.775	21325
885.9	21173
886.025	21336
886.15	21218
886.275	21093
886.4	21112
886.525	21131
886.65	21062
886.775	21096
886.9	21340
887.025	21313
887.149	21138
887.274	21036
887.399	21020
887.523	20979
887.648	20891
887.773	20830
887.897	20929
888.021	21028
888.146	20880
888.27	20982
888.395	21077
888.519	21036
888.643	20891
888.767	20887
888.891	20800
889.015	20807
889.139	20765
889.263	20781
889.387	20834
889.511	20986
889.635	20796
889.759	20594
889.883	20701
890.006	20712
890.13	20910
890.254	20682
890.377	20636
890.501	20511
890.624	20336
890.748	20575
890.871	20396
890.995	20294
891.118	20298
891.241	20355
891.364	20237
891.488	20332
891.611	20461
891.734	20355
891.857	20374
891.98	20294
892.103	20286
892.226	20278
892.349	20347
892.471	20081
892.594	20240
892.717	20210
892.839	20259
892.962	20214
893.085	20290
893.207	20377
893.33	20077
893.452	20103
893.575	20290
893.697	20183
893.819	20256
893.941	20412
894.064	20358
894.186	20145
894.308	20103
894.43	20286
894.552	20301
894.674	20328
894.796	20069
894.918	20191
895.04	20202
895.161	20244
895.283	20294
895.405	20157
895.526	20111
895.648	20161
895.769	20218
895.891	20332
896.012	20324
896.134	20252
896.255	20263
896.376	20077
896.498	20164
896.619	20191
896.74	20107
896.861	20081
896.982	20450
897.103	20583
897.224	20465
897.345	20320
897.466	20469
897.587	20488
897.708	20396
897.828	20514
897.949	20298
898.07	20248
898.19	20362
898.311	20423
898.431	20412
898.552	20518
898.672	20480
898.792	20488
898.913	20434
899.033	20393
899.153	20187
899.273	20111
899.393	20084
899.513	20233
899.633	20172
899.753	20206
899.873	20138
899.993	20103
900.113	20145
900.232	20024
900.352	20214
900.472	20008
900.591	19913
900.711	19978
900.83	19887
900.95	19955
901.069	20027
901.189	19811
901.308	19662
901.427	19499
901.546	19529
901.665	19605
901.784	19472
901.904	19396
902.023	19377
902.141	19103
902.26	19076
902.379	19164
902.498	19057
902.617	19004
902.735	19122
902.854	19012
902.973	18913
903.091	18791
903.21	18764
903.328	18745
903.446	18700
903.565	18559
903.683	18502
903.801	18410
903.919	18536
904.038	18555
904.156	18232
904.274	18292
904.392	18232
904.51	18266
904.627	18262
904.745	18266
904.863	18342
904.981	18095
905.098	17954
905.216	17847
905.334	18102
905.451	18049
905.569	17977
905.686	17999
905.803	17920
905.921	17790
906.038	17939
906.155	17699
906.272	17608
906.389	17615
906.506	17524
906.623	17634
906.74	17486
906.857	17474
906.974	17379
907.091	17467
907.208	17501
907.324	17455
907.441	17341
907.557	17265
907.674	17242
907.79	17212
907.907	17212
908.023	17166
908.139	17239
908.256	17204
908.372	17109
908.488	17086
908.604	17006
908.72	16900
908.836	16957
908.952	16889
909.068	16934
909.184	17022
909.3	16915
909.415	16881
909.531	16862
909.647	16740
909.762	16611
909.878	16611
909.993	16687
910.108	16561
910.224	16519
910.339	16580
910.454	16516
910.57	16428
910.685	16314
910.8	16702
910.915	16546
911.03	16455
911.145	16253
911.259	16230
911.374	16158
911.489	16150
911.604	16101
911.718	15915
911.833	16006
911.947	15903
912.062	15705
912.176	15968
912.291	15979
912.405	15888
912.519	16071
912.633	16055
912.748	15975
912.862	15915
912.976	15926
913.09	15679
913.204	15797
913.318	15812
913.431	15854
913.545	15857
913.659	15869
913.772	15625
913.886	15705
914	15507
914.113	15690
914.226	15838
914.34	15682
914.453	15504
914.566	15641
914.68	15397
914.793	15397
914.906	15176
915.019	15230
915.132	15135
915.245	15230
915.358	15161
915.47	15127
915.583	15089
915.696	15157
915.809	15256
915.921	15241
916.034	15157
916.146	15032
916.259	15081
916.371	15214
916.483	15127
916.595	15039
916.708	15032
916.82	15024
916.932	14906
917.044	15051
917.156	14876
917.268	14838
917.38	14944
917.491	14800
917.603	14815
917.715	14994
917.826	14864
917.938	14785
918.049	14705
918.161	14811
918.272	14918
918.384	14895
918.495	14724
918.606	14636
918.717	14552
918.828	14617
918.939	14587
919.05	14473
919.161	14621
919.272	14446
919.383	14370
919.494	14674
919.604	14765
919.715	14552
919.826	14511
919.936	14568
920.047	14587
920.157	14450
920.267	14743
920.378	14598
920.488	14545
920.598	14708
920.708	14849
920.818	14636
920.928	14632
921.038	14902
921.148	14830
921.258	14571
921.368	14454
921.477	14355
921.587	14343
921.697	14195
921.806	14324
921.916	14164
922.025	13959
922.134	13921
922.244	13822
922.353	13864
922.462	13753
922.571	13765
922.68	13624
922.789	13590
922.898	13552
923.007	13483
923.116	13620
923.224	13567
923.333	13480
923.442	13339
923.55	13377
923.659	13400
923.767	13495
923.876	13350
923.984	13388
924.092	13324
924.201	13346
924.309	13274
924.417	13377
924.525	13244
924.633	13308
924.741	13917
924.849	13027
924.956	13156
925.064	13107
925.172	12871
925.279	12989
925.387	12996
925.494	12924
925.602	13114
925.709	13019
925.816	12935
925.924	12909
926.031	12993
926.138	12867
926.245	12970
926.352	12806
926.459	12916
926.566	12977
926.673	12825
926.779	12684
926.886	12730
926.993	12597
927.099	12597
927.206	12467
927.312	12593
927.419	12509
927.525	12452
927.631	12703
927.737	12429
927.843	12327
927.95	12273
928.056	12380
928.162	12338
928.267	12403
928.373	12981
928.479	12445
928.585	12224
928.69	12407
928.796	12346
928.901	12327
929.007	12095
929.112	12213
929.218	12197
929.323	12034
929.428	12102
929.533	12125
929.638	12102
929.743	12049
929.848	12072
929.953	12076
930.058	11882
930.163	11733
930.267	11824
930.372	11950
930.477	11676
930.581	11988
930.685	11847
930.79	11653
930.894	11642
930.998	11604
931.103	11703
931.207	11410
931.311	11387
931.415	11201
931.519	11090
931.623	11090
