Data from test_V78500241_1833.txt Node
Date: Fri Mar 25 15:22:37 CST 2022
User: usil
Spectrometer: V785-0024
Trigger mode: 0
Integration Time (sec): 4.000000E-1
Scans to average: 1
Nonlinearity correction enabled: false
Boxcar width: 0
Storing dark spectrum: false
XAxis mode: Wavelengths
Number of Pixels in Spectrum: 1024
>>>>>Begin Spectral Data<<<<<
801.071	27903
801.214	27709
801.356	27587
801.499	27492
801.641	27298
801.783	27199
801.926	27412
802.068	27233
802.211	27340
802.353	27184
802.496	27135
802.638	26967
802.78	27017
802.923	26826
803.065	27001
803.208	26975
803.35	26948
803.492	27108
803.635	27165
803.777	27081
803.919	27237
804.061	27477
804.204	27287
804.346	27131
804.488	27127
804.63	27211
804.773	27173
804.915	27138
805.057	27241
805.199	27096
805.341	27161
805.483	27302
805.626	27203
805.768	27268
805.91	27416
806.052	27344
806.194	27287
806.336	27302
806.478	27275
806.62	27431
806.762	27348
806.904	27542
807.046	27884
807.188	27903
807.33	27823
807.472	27797
807.614	27762
807.756	27785
807.898	27751
808.04	27473
808.182	27625
808.324	27583
808.465	27648
808.607	27808
808.749	27987
808.891	27991
809.033	28105
809.174	27953
809.316	27831
809.458	27918
809.6	27835
809.741	27968
809.883	27979
810.025	28192
810.166	28276
810.308	28154
810.45	28128
810.591	28032
810.733	27937
810.875	28013
811.016	27873
811.158	27747
811.299	28048
811.441	28032
811.582	28082
811.724	27865
811.865	27884
812.007	27930
812.148	27949
812.29	27975
812.431	28070
812.573	28276
812.714	28386
812.855	28306
812.997	28550
813.138	28626
813.279	28527
813.421	28519
813.562	28470
813.703	28284
813.845	28120
813.986	27895
814.127	27793
814.268	27553
814.41	27728
814.551	27679
814.692	27618
814.833	27610
814.974	27690
815.115	27648
815.256	27568
815.397	27408
815.539	27542
815.68	27401
815.821	27306
815.962	27397
816.103	27359
816.244	27245
816.385	27237
816.526	27127
816.666	27005
816.807	26940
816.948	26982
817.089	27108
817.23	26979
817.371	26906
817.512	26925
817.653	26929
817.793	26746
817.934	26994
818.075	26880
818.216	26948
818.356	27020
818.497	26731
818.638	26541
818.778	26682
818.919	26678
819.06	26765
819.2	26701
819.341	26948
819.481	27043
819.622	27104
819.762	27203
819.903	27093
820.043	27135
820.184	27070
820.324	27100
820.465	27127
820.605	27039
820.746	27024
820.886	26914
821.026	27047
821.167	26864
821.307	27028
821.447	26921
821.588	26963
821.728	26697
821.868	26674
822.008	26381
822.149	26278
822.289	26469
822.429	26092
822.569	26088
822.709	25932
822.849	25913
822.99	25734
823.13	25837
823.27	25883
823.41	25578
823.55	25746
823.69	25719
823.83	25746
823.97	25662
824.11	25525
824.25	25422
824.389	25628
824.529	25525
824.669	25506
824.809	25609
824.949	25590
825.089	25647
825.228	25533
825.368	25369
825.508	25304
825.648	25335
825.787	25392
825.927	25533
826.067	25487
826.206	25434
826.346	25639
826.485	25483
826.625	25445
826.765	25575
826.904	25415
827.044	25282
827.183	25168
827.323	24989
827.462	25122
827.601	25110
827.741	25126
827.88	25114
828.02	25061
828.159	25137
828.298	25141
828.437	25171
828.577	25057
828.716	25270
828.855	25046
828.994	24734
829.134	24863
829.273	24954
829.412	24806
829.551	24779
829.69	24802
829.829	24913
829.968	24856
830.107	24935
830.246	24878
830.385	24688
830.524	24783
830.663	24570
830.802	24563
830.941	24486
831.08	24486
831.219	24528
831.357	24502
831.496	24688
831.635	24410
831.774	24418
831.913	24369
832.051	24300
832.19	24159
832.329	24235
832.467	24159
832.606	24159
832.744	24091
832.883	24171
833.022	24034
833.16	24106
833.299	24247
833.437	24140
833.576	24148
833.714	24292
833.852	24232
833.991	24254
834.129	24323
834.267	24429
834.406	24266
834.544	24254
834.682	24201
834.821	24133
834.959	24384
835.097	24243
835.235	24350
835.373	24197
835.511	24190
835.65	24060
835.788	24083
835.926	23878
836.064	23741
836.202	23908
836.34	24121
836.478	24125
836.615	24205
836.753	24064
836.891	24045
837.029	24057
837.167	24049
837.305	23961
837.443	23999
837.58	23916
837.718	23927
837.856	23908
837.993	23939
838.131	23828
838.269	23699
838.406	23779
838.544	23748
838.681	23547
838.819	23524
838.956	23334
839.094	23406
839.231	23425
839.369	23490
839.506	23904
839.643	23653
839.781	23330
839.918	23353
840.055	23440
840.193	23303
840.33	23383
840.467	23322
840.604	23299
840.742	23585
840.879	23197
841.016	23117
841.153	23113
841.29	23425
841.427	23318
841.564	23360
841.701	23284
841.838	23242
841.975	23143
842.112	23227
842.249	23102
842.385	22915
842.522	23208
842.659	23109
842.796	23124
842.933	23136
843.069	23060
843.206	23044
843.343	23147
843.479	23098
843.616	23033
843.752	22843
843.889	22839
844.025	22946
844.162	22793
844.298	22999
844.435	22828
844.571	22801
844.708	22885
844.844	23086
844.98	22927
845.117	22820
845.253	22831
845.389	22717
845.525	22710
845.661	22691
845.798	22485
845.934	22615
846.07	22596
846.206	22588
846.342	22637
846.478	22599
846.614	22451
846.75	22287
846.886	22329
847.022	22421
847.158	22257
847.294	22181
847.429	22196
847.565	22310
847.701	22531
847.837	22200
847.972	21956
848.108	22219
848.244	22029
848.379	21994
848.515	21747
848.65	21804
848.786	22029
848.921	21857
849.057	22010
849.192	21934
849.328	21956
849.463	21736
849.598	21892
849.734	21838
849.869	21705
850.004	21709
850.14	21641
850.275	21660
850.41	21511
850.545	21576
850.68	21724
850.815	21656
850.95	21770
851.085	21793
851.22	21778
851.355	21667
851.49	21530
851.625	21641
851.76	21553
851.895	21587
852.03	21496
852.165	21622
852.299	21724
852.434	21644
852.569	21648
852.703	21587
852.838	21633
852.973	21759
853.107	21701
853.242	21538
853.376	21466
853.511	21287
853.645	21542
853.78	21568
853.914	21523
854.048	21473
854.183	21420
854.317	21561
854.451	21564
854.585	21416
854.72	21542
854.854	21454
854.988	21321
855.122	21405
855.256	21348
855.39	21462
855.524	21538
855.658	21462
855.792	21412
855.926	21412
856.06	21553
856.194	21454
856.327	21450
856.461	21332
856.595	21382
856.729	21557
856.862	21603
856.996	21450
857.13	21492
857.263	21545
857.397	21557
857.53	21450
857.664	21511
857.797	21587
857.931	21488
858.064	21599
858.197	21606
858.331	21511
858.464	21431
858.597	21378
858.731	21458
858.864	21340
858.997	21405
859.13	21405
859.263	21481
859.396	21572
859.529	21370
859.662	21458
859.795	21401
859.928	21572
860.061	21542
860.194	21713
860.327	21583
860.46	21435
860.592	21591
860.725	21610
860.858	21595
860.99	21386
861.123	21412
861.256	21481
861.388	21325
861.521	22181
861.653	21310
861.786	21275
861.918	21214
862.05	21412
862.183	21370
862.315	21496
862.447	21439
862.58	21420
862.712	21096
862.844	21237
862.976	21283
863.108	21226
863.24	21496
863.372	21104
863.504	21214
863.636	21165
863.768	21127
863.9	21055
864.032	21100
864.164	21249
864.296	21214
864.428	21260
864.559	21218
864.691	21169
864.823	21260
864.954	21104
865.086	21180
865.217	20990
865.349	20918
865.48	21032
865.612	21192
865.743	21195
865.875	21062
866.006	20948
866.137	21100
866.269	21188
866.4	21119
866.531	21013
866.662	20971
866.793	21043
866.924	20994
867.055	21058
867.186	21058
867.317	20853
867.448	20838
867.579	21047
867.71	20842
867.841	20933
867.972	20975
868.103	20960
868.233	21051
868.364	20967
868.495	21135
868.625	21222
868.756	21310
868.886	21176
869.017	21230
869.147	21298
869.278	21294
869.408	21279
869.539	21321
869.669	21233
869.799	21313
869.929	21431
870.06	21367
870.19	21507
870.32	21405
870.45	21614
870.58	21656
870.71	21724
870.84	21800
870.97	21736
871.1	21644
871.23	21880
871.36	21846
871.489	21701
871.619	21770
871.749	21808
871.879	21812
872.008	21895
872.138	21884
872.267	21876
872.397	21732
872.526	21717
872.656	21618
872.785	21625
872.915	21941
873.044	22063
873.173	21854
873.303	21911
873.432	21907
873.561	21907
873.69	21975
873.819	21880
873.948	21998
874.077	21941
874.206	21797
874.335	21835
874.464	21915
874.593	22173
874.722	22116
874.851	22097
874.979	22173
875.108	22143
875.237	22063
875.365	21922
875.494	21972
875.623	22154
875.751	22036
875.88	22101
876.008	22150
876.136	22223
876.265	22440
876.393	22573
876.521	22573
876.65	22424
876.778	22500
876.906	22428
877.034	22371
877.162	22367
877.29	22371
877.418	22451
877.546	22493
877.674	22409
877.802	22382
877.93	22436
878.058	22390
878.185	22375
878.313	22352
878.441	22527
878.568	22238
878.696	22329
878.824	22394
878.951	22542
879.079	22649
879.206	22653
879.333	22630
879.461	22417
879.588	22584
879.715	22557
879.842	22531
879.97	22508
880.097	22405
880.224	22143
880.351	22204
880.478	22272
880.605	22360
880.732	22348
880.859	22462
880.986	22177
881.112	22318
881.239	22116
881.366	22032
881.493	21930
881.619	21819
881.746	21888
881.872	21854
881.999	21808
882.125	21785
882.252	21778
882.378	21751
882.505	21793
882.631	21694
882.757	21572
882.883	21587
883.01	21492
883.136	21450
883.262	21488
883.388	21336
883.514	21431
883.64	21530
883.766	21420
883.892	21283
884.018	21397
884.143	21401
884.269	21557
884.395	21264
884.52	21119
884.646	21100
884.772	21169
884.897	21070
885.023	21135
885.148	21214
885.274	21321
885.399	21272
885.524	21214
885.65	21173
885.775	21119
885.9	21112
886.025	21313
886.15	21146
886.275	21055
886.4	21173
886.525	21173
886.65	21074
886.775	21165
886.9	21348
887.025	21306
887.149	21108
887.274	20986
887.399	20918
887.523	20876
887.648	20899
887.773	20762
887.897	21062
888.021	20899
888.146	20918
888.27	20960
888.395	21085
888.519	20910
888.643	20979
888.767	20975
888.891	20762
889.015	20773
889.139	20743
889.263	20640
889.387	20883
889.511	20853
889.635	20986
889.759	20727
889.883	20682
890.006	20689
890.13	20796
890.254	20644
890.377	20590
890.501	20393
890.624	20446
890.748	20526
890.871	20431
890.995	20237
891.118	20267
891.241	20328
891.364	20317
891.488	20431
891.611	20305
891.734	20305
891.857	20400
891.98	20290
892.103	20221
892.226	20317
892.349	20309
892.471	20134
892.594	20199
892.717	20271
892.839	20214
892.962	20142
893.085	20294
893.207	20202
893.33	20024
893.452	20161
893.575	20168
893.697	20214
893.819	20294
893.941	20332
894.064	20438
894.186	20199
894.308	20168
894.43	20278
894.552	20347
894.674	20298
894.796	20065
894.918	20282
895.04	20286
895.161	20237
895.283	20168
895.405	20031
895.526	20210
895.648	20164
895.769	20240
895.891	20111
896.012	20244
896.134	20161
896.255	20229
896.376	20043
896.498	20267
896.619	20172
896.74	20240
896.861	20240
896.982	20499
897.103	20564
897.224	20511
897.345	20385
897.466	20377
897.587	20301
897.708	20537
897.828	20419
897.949	20290
898.07	20271
898.19	20225
898.311	20461
898.431	20267
898.552	20309
898.672	20328
898.792	20541
898.913	20450
899.033	20237
899.153	20187
899.273	20065
899.393	20206
899.513	20119
899.633	20172
899.753	20183
899.873	20016
899.993	20244
900.113	20100
900.232	20100
900.352	20039
900.472	19913
900.591	19852
900.711	19940
900.83	19928
900.95	20035
901.069	19940
901.189	19822
901.308	19605
901.427	19464
901.546	19441
901.665	19495
901.784	19487
901.904	19415
902.023	19213
902.141	19099
902.26	19190
902.379	19065
902.498	19031
902.617	19000
902.735	18939
902.854	18916
902.973	18935
903.091	18734
903.21	18669
903.328	18749
903.446	18665
903.565	18448
903.683	18563
903.801	18353
903.919	18433
904.038	18498
904.156	18296
904.274	18281
904.392	18182
904.51	18319
904.627	18251
904.745	18201
904.863	18262
904.981	18098
905.098	18019
905.216	18015
905.334	17965
905.451	18034
905.569	18038
905.686	18019
905.803	17885
905.921	17604
906.038	17855
906.155	17722
906.272	17722
906.389	17699
906.506	17349
906.623	17532
906.74	17520
906.857	17429
906.974	17490
907.091	17497
907.208	17524
907.324	17520
907.441	17364
907.557	17299
907.674	17292
907.79	17200
907.907	17227
908.023	17189
908.139	17235
908.256	17159
908.372	17147
908.488	17102
908.604	16877
908.72	16995
908.836	17041
908.952	16831
909.068	17018
909.184	16972
909.3	16972
909.415	16923
909.531	16892
909.647	16755
909.762	16721
909.878	16641
909.993	16577
910.108	16573
910.224	16527
910.339	16516
910.454	16451
910.57	16402
910.685	16363
910.8	16554
910.915	16607
911.03	16497
911.145	16310
911.259	16128
911.374	16196
911.489	16246
911.604	16036
911.718	15861
911.833	15975
911.947	15819
912.062	15739
912.176	15972
912.291	15865
912.405	15937
912.519	16051
912.633	16109
912.748	16029
912.862	15922
912.976	15762
913.09	15679
913.204	15656
913.318	15781
913.431	15861
913.545	15755
913.659	15793
913.772	15766
913.886	15599
914	15580
914.113	15679
914.226	15633
914.34	15652
914.453	15412
914.566	15648
914.68	15428
914.793	15431
914.906	15157
915.019	15199
915.132	15024
915.245	15138
915.358	15199
915.47	15169
915.583	15081
915.696	15192
915.809	15222
915.921	15302
916.034	15028
916.146	15100
916.259	15146
916.371	15176
916.483	15119
916.595	15039
916.708	14990
916.82	14967
916.932	15043
917.044	14914
917.156	14986
917.268	14807
917.38	14826
917.491	14807
917.603	14800
917.715	14868
917.826	15024
917.938	14708
918.049	14670
918.161	14762
918.272	14845
918.384	14853
918.495	14754
918.606	14610
918.717	14488
918.828	14648
918.939	14587
919.05	14438
919.161	14545
919.272	14374
919.383	14415
919.494	14590
919.604	14804
919.715	14549
919.826	14442
919.936	14412
920.047	14533
920.157	14594
920.267	14762
920.378	14514
920.488	14518
920.598	14670
920.708	14880
920.818	14724
920.928	14674
921.038	14800
921.148	14701
921.258	14564
921.368	14366
921.477	14278
921.587	14218
921.697	14050
921.806	14202
921.916	14115
922.025	13982
922.134	13841
922.244	13860
922.353	13955
922.462	13685
922.571	13700
922.68	13537
922.789	13552
922.898	13567
923.007	13548
923.116	13537
923.224	13563
923.333	13514
923.442	13354
923.55	13297
923.659	13373
923.767	13369
923.876	13354
923.984	13407
924.092	13209
924.201	13358
924.309	13289
924.417	13396
924.525	13187
924.633	13217
924.741	14176
924.849	12985
924.956	13164
925.064	12970
925.172	12882
925.279	13031
925.387	12993
925.494	12924
925.602	13069
925.709	12973
925.816	12852
925.924	12977
926.031	12958
926.138	12833
926.245	12924
926.352	12787
926.459	13019
926.566	12939
926.673	12802
926.779	12719
926.886	12749
926.993	12646
927.099	12536
927.206	12490
927.312	12502
927.419	12506
927.525	12547
927.631	12570
927.737	12410
927.843	12346
927.95	12228
928.056	12319
928.162	12422
928.267	12350
928.373	12970
928.479	12471
928.585	12205
928.69	12327
928.796	12384
928.901	12239
929.007	12068
929.112	12209
929.218	12232
929.323	12125
929.428	12079
929.533	12235
929.638	11999
929.743	12007
929.848	12136
929.953	11969
930.058	11878
930.163	11798
930.267	11786
930.372	11893
930.477	11684
930.581	11863
930.685	11779
930.79	11668
930.894	11798
930.998	11638
931.103	11767
931.207	11436
931.311	11315
931.415	11280
931.519	10999
931.623	11003
