Data from test_V78500241_1239.txt Node
Date: Fri Mar 25 15:18:29 CST 2022
User: usil
Spectrometer: V785-0024
Trigger mode: 0
Integration Time (sec): 4.000000E-1
Scans to average: 1
Nonlinearity correction enabled: false
Boxcar width: 0
Storing dark spectrum: false
XAxis mode: Wavelengths
Number of Pixels in Spectrum: 1024
>>>>>Begin Spectral Data<<<<<
801.071	28082
801.214	27930
801.356	27728
801.499	27709
801.641	27622
801.783	27557
801.926	27587
802.068	27568
802.211	27633
802.353	27481
802.496	27348
802.638	27382
802.78	27207
802.923	27268
803.065	27077
803.208	27195
803.35	27241
803.492	27329
803.635	27580
803.777	27412
803.919	27652
804.061	27835
804.204	27538
804.346	27534
804.488	27427
804.63	27545
804.773	27424
804.915	27671
805.057	27477
805.199	27561
805.341	27572
805.483	27671
805.626	27591
805.768	27511
805.91	27644
806.052	27675
806.194	27435
806.336	27869
806.478	27663
806.62	27736
806.762	27869
806.904	27800
807.046	28223
807.188	28040
807.33	27953
807.472	28029
807.614	27983
807.756	28070
807.898	27911
808.04	27899
808.182	27945
808.324	27975
808.465	28109
808.607	28143
808.749	28219
808.891	28204
809.033	28394
809.174	28314
809.316	28322
809.458	28287
809.6	28295
809.741	28417
809.883	28401
810.025	28603
810.166	28592
810.308	28557
810.45	28504
810.591	28390
810.733	28337
810.875	28375
811.016	28242
811.158	28192
811.299	28405
811.441	28371
811.582	28291
811.724	28223
811.865	28223
812.007	28215
812.148	28284
812.29	28226
812.431	28588
812.573	28675
812.714	28733
812.855	28843
812.997	29041
813.138	28991
813.279	28995
813.421	28801
813.562	28839
813.703	28596
813.845	28542
813.986	28287
814.127	28105
814.268	27968
814.41	28006
814.551	27960
814.692	28109
814.833	27899
814.974	28013
815.115	27941
815.256	27838
815.397	27945
815.539	27907
815.68	27778
815.821	27907
815.962	27770
816.103	27793
816.244	27660
816.385	27652
816.526	27511
816.666	27329
816.807	27226
816.948	27389
817.089	27488
817.23	27207
817.371	27405
817.512	27279
817.653	27306
817.793	27313
817.934	27329
818.075	27393
818.216	27355
818.356	27291
818.497	27222
818.638	26998
818.778	27138
818.919	27009
819.06	27058
819.2	27161
819.341	27359
819.481	27412
819.622	27534
819.762	27739
819.903	27564
820.043	27504
820.184	27408
820.324	27618
820.465	27481
820.605	27439
820.746	27450
820.886	27226
821.026	27553
821.167	27462
821.307	27424
821.447	27359
821.588	27275
821.728	27165
821.868	26960
822.008	26689
822.149	26674
822.289	26727
822.429	26457
822.569	26396
822.709	26446
822.849	26290
822.99	26294
823.13	26313
823.27	26271
823.41	26100
823.55	26111
823.69	26065
823.83	26058
823.97	26050
824.11	25883
824.25	26046
824.389	25928
824.529	25947
824.669	25871
824.809	26054
824.949	26084
825.089	26043
825.228	26024
825.368	25719
825.508	25921
825.648	25902
825.787	25818
825.927	25894
826.067	25814
826.206	25757
826.346	25871
826.485	25947
826.625	25944
826.765	25944
826.904	25700
827.044	25567
827.183	25674
827.323	25624
827.462	25655
827.601	25575
827.741	25544
827.88	25571
828.02	25415
828.159	25563
828.298	25571
828.437	25540
828.577	25449
828.716	25670
828.855	25514
828.994	25282
829.134	25255
829.273	25419
829.412	25179
829.551	25171
829.69	25441
829.829	25285
829.968	25320
830.107	25419
830.246	25236
830.385	25255
830.524	25084
830.663	25168
830.802	24958
830.941	24905
831.08	24947
831.219	24962
831.357	24932
831.496	25057
831.635	24913
831.774	24814
831.913	24837
832.051	24688
832.19	24760
832.329	24711
832.467	24589
832.606	24502
832.744	24490
832.883	24456
833.022	24483
833.16	24608
833.299	24570
833.437	24555
833.576	24650
833.714	24669
833.852	24544
833.991	24772
834.129	24795
834.267	24654
834.406	24597
834.544	24646
834.682	24517
834.821	24616
834.959	24776
835.097	24540
835.235	24661
835.373	24589
835.511	24536
835.65	24281
835.788	24528
835.926	24422
836.064	24285
836.202	24292
836.34	24525
836.478	24467
836.615	24486
836.753	24414
836.891	24445
837.029	24509
837.167	24346
837.305	24353
837.443	24361
837.58	24292
837.718	24346
837.856	24220
837.993	24315
838.131	24266
838.269	24182
838.406	24083
838.544	24182
838.681	23958
838.819	23931
838.956	23756
839.094	23737
839.231	23874
839.369	23901
839.506	24034
839.643	23961
839.781	23760
839.918	23649
840.055	23676
840.193	23756
840.33	23596
840.467	23790
840.604	23676
840.742	24041
840.879	23600
841.016	23646
841.153	23737
841.29	23695
841.427	23737
841.564	23718
841.701	23661
841.838	23627
841.975	23516
842.112	23642
842.249	23387
842.385	23391
842.522	23600
842.659	23512
842.796	23455
842.933	23448
843.069	23265
843.206	23482
843.343	23509
843.479	23482
843.616	23425
843.752	23208
843.889	23162
844.025	23337
844.162	23216
844.298	23284
844.435	23246
844.571	23151
844.708	23170
844.844	23478
844.98	23414
845.117	23379
845.253	23094
845.389	23010
845.525	23056
845.661	22999
845.798	22889
845.934	22930
846.07	22991
846.206	22866
846.342	22965
846.478	22885
846.614	22687
846.75	22546
846.886	22649
847.022	22782
847.158	22733
847.294	22656
847.429	22668
847.565	22615
847.701	22980
847.837	22489
847.972	22371
848.108	22519
848.244	22478
848.379	22379
848.515	22234
848.65	22230
848.786	22238
848.921	22325
849.057	22344
849.192	22272
849.328	22200
849.463	22246
849.598	22181
849.734	22074
849.869	22082
850.004	21960
850.14	22040
850.275	22090
850.41	21884
850.545	21838
850.68	22013
850.815	21994
850.95	21979
851.085	22215
851.22	22177
851.355	22002
851.49	22021
851.625	21880
851.76	22040
851.895	21922
852.03	22029
852.165	22059
852.299	21972
852.434	22124
852.569	22070
852.703	21934
852.838	22131
852.973	22143
853.107	22139
853.242	21949
853.376	21915
853.511	21785
853.645	21770
853.78	21926
853.914	21770
854.048	21720
854.183	21804
854.317	21850
854.451	21994
854.585	21873
854.72	21888
854.854	21846
854.988	21819
855.122	21797
855.256	21743
855.39	21804
855.524	21880
855.658	21800
855.792	21949
855.926	21835
856.06	21865
856.194	21960
856.327	21785
856.461	21732
856.595	21644
856.729	21781
856.862	21781
856.996	21911
857.13	21755
857.263	21930
857.397	21918
857.53	21781
857.664	21835
857.797	21854
857.931	21869
858.064	21842
858.197	21865
858.331	21766
858.464	21736
858.597	21789
858.731	21759
858.864	21736
858.997	21732
859.13	21762
859.263	21835
859.396	21903
859.529	21781
859.662	21774
859.795	21793
859.928	21804
860.061	21953
860.194	22051
860.327	21816
860.46	21968
860.592	21857
860.725	22013
860.858	21941
860.99	21956
861.123	21705
861.256	21812
861.388	21789
861.521	22512
861.653	21656
861.786	21663
861.918	21500
862.05	21572
862.183	21637
862.315	21671
862.447	21816
862.58	21675
862.712	21492
862.844	21492
862.976	21652
863.108	21572
863.24	21774
863.372	21485
863.504	21530
863.636	21431
863.768	21595
863.9	21538
864.032	21329
864.164	21393
864.296	21580
864.428	21644
864.559	21629
864.691	21523
864.823	21610
864.954	21557
865.086	21435
865.217	21397
865.349	21355
865.48	21500
865.612	21298
865.743	21553
865.875	21355
866.006	21268
866.137	21466
866.269	21416
866.4	21469
866.531	21317
866.662	21344
866.793	21424
866.924	21424
867.055	21291
867.186	21329
867.317	21283
867.448	21332
867.579	21264
867.71	21203
867.841	21226
867.972	21252
868.103	21420
868.233	21420
868.364	21272
868.495	21401
868.625	21492
868.756	21732
868.886	21496
869.017	21568
869.147	21751
869.278	21690
869.408	21462
869.539	21477
869.669	21610
869.799	21660
869.929	21641
870.06	21663
870.19	21922
870.32	21846
870.45	21968
870.58	22021
870.71	21994
870.84	22032
870.97	21903
871.1	21964
871.23	21968
871.36	22173
871.489	22067
871.619	22272
871.749	22299
871.879	22211
872.008	22314
872.138	22109
872.267	22097
872.397	22116
872.526	21953
872.656	22006
872.785	22040
872.915	22158
873.044	22261
873.173	22143
873.303	22207
873.432	22234
873.561	22276
873.69	22093
873.819	22097
873.948	22287
874.077	22116
874.206	22105
874.335	22177
874.464	22276
874.593	22390
874.722	22394
874.851	22474
874.979	22588
875.108	22417
875.237	22333
875.365	22363
875.494	22261
875.623	22618
875.751	22436
875.88	22394
876.008	22523
876.136	22550
876.265	22805
876.393	22934
876.521	22949
876.65	22805
876.778	22691
876.906	22824
877.034	22816
877.162	22862
877.29	22630
877.418	22713
877.546	22744
877.674	22748
877.802	22759
877.93	22672
878.058	22679
878.185	22546
878.313	22656
878.441	22702
878.568	22519
878.696	22653
878.824	22744
878.951	22839
879.079	22911
879.206	22999
879.333	22919
879.461	22930
879.588	22892
879.715	22946
879.842	23006
879.97	22771
880.097	22645
880.224	22565
880.351	22649
880.478	22645
880.605	22447
880.732	22622
880.859	22687
880.986	22569
881.112	22588
881.239	22371
881.366	22272
881.493	22253
881.619	22055
881.746	22120
881.872	22097
881.999	22169
882.125	22063
882.252	22048
882.378	22040
882.505	22185
882.631	22044
882.757	21854
882.883	21846
883.01	21759
883.136	21816
883.262	21648
883.388	21736
883.514	21842
883.64	21819
883.766	21759
883.892	21682
884.018	21606
884.143	21804
884.269	21842
884.395	21553
884.52	21466
884.646	21561
884.772	21557
884.897	21245
885.023	21374
885.148	21606
885.274	21660
885.399	21599
885.524	21435
885.65	21504
885.775	21450
885.9	21431
886.025	21557
886.15	21595
886.275	21447
886.4	21363
886.525	21466
886.65	21313
886.775	21245
886.9	21534
887.025	21686
887.149	21488
887.274	21313
887.399	21199
887.523	21203
887.648	21161
887.773	21135
887.897	21241
888.021	21218
888.146	21047
888.27	21313
888.395	21218
888.519	21180
888.643	21230
888.767	21192
888.891	21252
889.015	20952
889.139	21116
889.263	21013
889.387	21165
889.511	21142
889.635	21214
889.759	20921
889.883	21058
890.006	21036
890.13	21161
890.254	21009
890.377	20944
890.501	20640
890.624	20815
890.748	20754
890.871	20708
890.995	20526
891.118	20640
891.241	20518
891.364	20552
891.488	20571
891.611	20507
891.734	20655
891.857	20682
891.98	20629
892.103	20629
892.226	20648
892.349	20484
892.471	20454
892.594	20549
892.717	20552
892.839	20499
892.962	20522
893.085	20499
893.207	20511
893.33	20339
893.452	20358
893.575	20587
893.697	20366
893.819	20693
893.941	20739
894.064	20594
894.186	20381
894.308	20408
894.43	20556
894.552	20632
894.674	20659
894.796	20347
894.918	20480
895.04	20408
895.161	20541
895.283	20484
895.405	20431
895.526	20484
895.648	20400
895.769	20503
895.891	20488
896.012	20568
896.134	20526
896.255	20415
896.376	20324
896.498	20552
896.619	20415
896.74	20427
896.861	20530
896.982	20906
897.103	20925
897.224	20754
897.345	20667
897.466	20514
897.587	20762
897.708	20872
897.828	20708
897.949	20629
898.07	20606
898.19	20682
898.311	20765
898.431	20625
898.552	20644
898.672	20819
898.792	20754
898.913	20659
899.033	20461
899.153	20309
899.273	20374
899.393	20514
899.513	20446
899.633	20336
899.753	20454
899.873	20412
899.993	20400
900.113	20355
900.232	20343
900.352	20385
900.472	20282
900.591	20199
900.711	20263
900.83	20122
900.95	20271
901.069	20278
901.189	20187
901.308	19909
901.427	19674
901.546	19860
901.665	19746
901.784	19742
901.904	19632
902.023	19533
902.141	19377
902.26	19331
902.379	19392
902.498	19289
902.617	19187
902.735	19301
902.854	19240
902.973	19202
903.091	18901
903.21	19000
903.328	18882
903.446	18897
903.565	18772
903.683	18787
903.801	18593
903.919	18700
904.038	18677
904.156	18555
904.274	18669
904.392	18528
904.51	18464
904.627	18418
904.745	18464
904.863	18597
904.981	18308
905.098	18224
905.216	18239
905.334	18209
905.451	18174
905.569	18159
905.686	18155
905.803	18194
905.921	18015
906.038	18095
906.155	17920
906.272	17904
906.389	17870
906.506	17764
906.623	17767
906.74	17707
906.857	17554
906.974	17699
907.091	17741
907.208	17843
907.324	17733
907.441	17570
907.557	17547
907.674	17433
907.79	17311
907.907	17368
908.023	17448
908.139	17379
908.256	17288
908.372	17280
908.488	17296
908.604	17113
908.72	17117
908.836	17162
908.952	17105
909.068	17155
909.184	17204
909.3	17124
909.415	17170
909.531	17090
909.647	16847
909.762	16828
909.878	16843
909.993	16843
910.108	16835
910.224	16847
910.339	16748
910.454	16656
910.57	16691
910.685	16634
910.8	16831
910.915	16877
911.03	16531
911.145	16485
911.259	16447
911.374	16417
911.489	16291
911.604	16284
911.718	16147
911.833	16192
911.947	16051
912.062	16032
912.176	16109
912.291	16120
912.405	16139
912.519	16306
912.633	16325
912.748	16188
912.862	16078
912.976	16025
913.09	15865
913.204	15880
913.318	16067
913.431	15987
913.545	16036
913.659	16074
913.772	16021
913.886	15831
914	15755
914.113	15812
914.226	15983
914.34	15808
914.453	15690
914.566	15743
914.68	15660
914.793	15694
914.906	15382
915.019	15401
915.132	15401
915.245	15428
915.358	15355
915.47	15351
915.583	15283
915.696	15443
915.809	15458
915.921	15488
916.034	15393
916.146	15355
916.259	15176
916.371	15329
916.483	15351
916.595	15173
916.708	15245
916.82	15192
916.932	15100
917.044	15184
917.156	15157
917.268	15161
917.38	15135
917.491	15127
917.603	14979
917.715	15150
917.826	15085
917.938	14960
918.049	14933
918.161	15009
918.272	14982
918.384	15062
918.495	14883
918.606	14880
918.717	14724
918.828	14857
918.939	14716
919.05	14670
919.161	14644
919.272	14594
919.383	14659
919.494	14826
919.604	14914
919.715	14731
919.826	14708
919.936	14804
920.047	14872
920.157	14758
920.267	14925
920.378	14773
920.488	14712
920.598	14853
920.708	15093
920.818	14872
920.928	14963
921.038	15039
921.148	14941
921.258	14678
921.368	14564
921.477	14552
921.587	14446
921.697	14252
921.806	14530
921.916	14366
922.025	14092
922.134	14210
922.244	14069
922.353	14077
922.462	13860
922.571	13864
922.68	13757
922.789	13776
922.898	13776
923.007	13670
923.116	13788
923.224	13639
923.333	13769
923.442	13662
923.55	13575
923.659	13529
923.767	13674
923.876	13514
923.984	13594
924.092	13384
924.201	13453
924.309	13544
924.417	13445
924.525	13358
924.633	13521
924.741	14214
924.849	13175
924.956	13289
925.064	13137
925.172	13015
925.279	13198
925.387	13122
925.494	13168
925.602	13293
925.709	13175
925.816	13004
925.924	13099
926.031	13145
926.138	13019
926.245	13129
926.352	13046
926.459	13129
926.566	13183
926.673	13004
926.779	12859
926.886	12905
926.993	12776
927.099	12677
927.206	12700
927.312	12616
927.419	12681
927.525	12662
927.631	12741
927.737	12536
927.843	12540
927.95	12399
928.056	12525
928.162	12525
928.267	12574
928.373	13206
928.479	12585
928.585	12334
928.69	12544
928.796	12521
928.901	12460
929.007	12270
929.112	12308
929.218	12289
929.323	12247
929.428	12205
929.533	12429
929.638	12228
929.743	12175
929.848	12296
929.953	12155
930.058	12091
930.163	11916
930.267	11965
930.372	12083
930.477	11790
930.581	12182
930.685	11935
930.79	11824
930.894	11836
930.998	11802
931.103	11923
931.207	11562
931.311	11452
931.415	11303
931.519	11235
931.623	11140
