Data from test_V78500241_1127.txt Node
Date: Fri Mar 25 15:17:42 CST 2022
User: usil
Spectrometer: V785-0024
Trigger mode: 0
Integration Time (sec): 4.000000E-1
Scans to average: 1
Nonlinearity correction enabled: false
Boxcar width: 0
Storing dark spectrum: false
XAxis mode: Wavelengths
Number of Pixels in Spectrum: 1024
>>>>>Begin Spectral Data<<<<<
801.071	28177
801.214	28181
801.356	27941
801.499	27930
801.641	27819
801.783	27762
801.926	27941
802.068	27823
802.211	27717
802.353	27618
802.496	27637
802.638	27393
802.78	27359
802.923	27526
803.065	27447
803.208	27408
803.35	27477
803.492	27580
803.635	27614
803.777	27473
803.919	27614
804.061	27987
804.204	27709
804.346	27595
804.488	27572
804.63	27652
804.773	27564
804.915	27759
805.057	27892
805.199	27690
805.341	27770
805.483	27770
805.626	27827
805.768	27633
805.91	27610
806.052	27705
806.194	27671
806.336	27918
806.478	27823
806.62	27800
806.762	28090
806.904	28181
807.046	28246
807.188	28268
807.33	28265
807.472	28284
807.614	28093
807.756	28204
807.898	28181
808.04	28116
808.182	28051
808.324	28131
808.465	28154
808.607	28154
808.749	28470
808.891	28474
809.033	28599
809.174	28557
809.316	28401
809.458	28432
809.6	28443
809.741	28607
809.883	28577
810.025	28763
810.166	28835
810.308	28767
810.45	28634
810.591	28577
810.733	28401
810.875	28451
811.016	28470
811.158	28265
811.299	28599
811.441	28630
811.582	28599
811.724	28554
811.865	28421
812.007	28481
812.148	28485
812.29	28535
812.431	28626
812.573	28824
812.714	28911
812.855	28980
812.997	29200
813.138	29109
813.279	29071
813.421	29170
813.562	29037
813.703	28850
813.845	28824
813.986	28523
814.127	28375
814.268	28276
814.41	28265
814.551	28067
814.692	28215
814.833	28200
814.974	28101
815.115	28128
815.256	28055
815.397	28120
815.539	28002
815.68	27949
815.821	27972
815.962	28040
816.103	27934
816.244	27979
816.385	27755
816.526	27709
816.666	27599
816.807	27447
816.948	27637
817.089	27500
817.23	27519
817.371	27473
817.512	27530
817.653	27427
817.793	27519
817.934	27542
818.075	27511
818.216	27492
818.356	27568
818.497	27355
818.638	27119
818.778	27218
818.919	27291
819.06	27249
819.2	27207
819.341	27405
819.481	27686
819.622	27629
819.762	27827
819.903	27759
820.043	27819
820.184	27576
820.324	27629
820.465	27561
820.605	27595
820.746	27743
820.886	27549
821.026	27606
821.167	27583
821.307	27625
821.447	27553
821.588	27458
821.728	27344
821.868	27024
822.008	26982
822.149	27081
822.289	27009
822.429	26743
822.569	26686
822.709	26636
822.849	26571
822.99	26526
823.13	26473
823.27	26431
823.41	26328
823.55	26199
823.69	26381
823.83	26286
823.97	26259
824.11	26016
824.25	26084
824.389	26142
824.529	26278
824.669	26130
824.809	26259
824.949	26195
825.089	26180
825.228	26252
825.368	25963
825.508	25932
825.648	26058
825.787	26050
825.927	26111
826.067	26008
826.206	25947
826.346	26077
826.485	26100
826.625	26008
826.765	26126
826.904	26180
827.044	25723
827.183	25719
827.323	25742
827.462	25795
827.601	25658
827.741	25750
827.88	25875
828.02	25708
828.159	25868
828.298	25852
828.437	25693
828.577	25693
828.716	25856
828.855	25632
828.994	25476
829.134	25472
829.273	25510
829.412	25460
829.551	25457
829.69	25415
829.829	25537
829.968	25655
830.107	25556
830.246	25388
830.385	25525
830.524	25381
830.663	25285
830.802	25072
830.941	25069
831.08	25015
831.219	25206
831.357	25187
831.496	25362
831.635	25004
831.774	25110
831.913	25084
832.051	24760
832.19	24848
832.329	24825
832.467	24894
832.606	24776
832.744	24688
832.883	24875
833.022	24722
833.16	24646
833.299	24840
833.437	24791
833.576	24852
833.714	24905
833.852	24977
833.991	25019
834.129	25012
834.267	24943
834.406	24897
834.544	24760
834.682	24962
834.821	24920
834.959	25023
835.097	24825
835.235	24909
835.373	24806
835.511	24798
835.65	24726
835.788	24585
835.926	24559
836.064	24460
836.202	24445
836.34	24745
836.478	24692
836.615	24673
836.753	24703
836.891	24768
837.029	24741
837.167	24528
837.305	24536
837.443	24536
837.58	24460
837.718	24551
837.856	24486
837.993	24494
838.131	24486
838.269	24448
838.406	24437
838.544	24388
838.681	24072
838.819	24106
838.956	24018
839.094	24022
839.231	23923
839.369	24220
839.506	24395
839.643	24342
839.781	24030
839.918	23961
840.055	23912
840.193	23885
840.33	23901
840.467	23916
840.604	23954
840.742	24144
840.879	23904
841.016	23977
841.153	23847
841.29	23996
841.427	23866
841.564	24022
841.701	23847
841.838	23923
841.975	23653
842.112	23901
842.249	23638
842.385	23600
842.522	23893
842.659	23775
842.796	23558
842.933	23615
843.069	23585
843.206	23570
843.343	23653
843.479	23680
843.616	23668
843.752	23402
843.889	23395
844.025	23634
844.162	23433
844.298	23535
844.435	23452
844.571	23250
844.708	23539
844.844	23691
844.98	23722
845.117	23509
845.253	23372
845.389	23296
845.525	23315
845.661	23330
845.798	23216
845.934	23212
846.07	23113
846.206	23261
846.342	23315
846.478	23140
846.614	22946
846.75	22862
846.886	22713
847.022	22995
847.158	22961
847.294	22923
847.429	22968
847.565	22972
847.701	23113
847.837	22630
847.972	22634
848.108	22740
848.244	22618
848.379	22489
848.515	22451
848.65	22485
848.786	22542
848.921	22451
849.057	22664
849.192	22565
849.328	22428
849.463	22500
849.598	22611
849.734	22516
849.869	22276
850.004	22379
850.14	22234
850.275	22185
850.41	22128
850.545	22196
850.68	22169
850.815	22360
850.95	22173
851.085	22348
851.22	22386
851.355	22234
851.49	22238
851.625	22268
851.76	22219
851.895	22150
852.03	22150
852.165	22181
852.299	22390
852.434	22265
852.569	22230
852.703	22299
852.838	22344
852.973	22386
853.107	22246
853.242	22181
853.376	22097
853.511	22063
853.645	22055
853.78	22219
853.914	22090
854.048	22150
854.183	22074
854.317	21994
854.451	22272
854.585	22017
854.72	22116
854.854	22112
854.988	22067
855.122	22029
855.256	21846
855.39	22010
855.524	22063
855.658	22116
855.792	22078
855.926	22097
856.06	22131
856.194	22147
856.327	22029
856.461	22029
856.595	22029
856.729	22158
856.862	22048
856.996	22063
857.13	22116
857.263	22116
857.397	22230
857.53	22112
857.664	22101
857.797	22299
857.931	22048
858.064	22173
858.197	22128
858.331	22112
858.464	22067
858.597	21915
858.731	22010
858.864	22109
858.997	22017
859.13	22070
859.263	22070
859.396	22181
859.529	22070
859.662	21934
859.795	21991
859.928	22002
860.061	22299
860.194	22207
860.327	22090
860.46	22109
860.592	22253
860.725	22185
860.858	22219
860.99	22074
861.123	21983
861.256	21991
861.388	22090
861.521	22854
861.653	21895
861.786	21850
861.918	21926
862.05	21869
862.183	21926
862.315	22044
862.447	22010
862.58	21979
862.712	21743
862.844	21857
862.976	21934
863.108	21838
863.24	22131
863.372	21622
863.504	21679
863.636	21743
863.768	21804
863.9	21751
864.032	21781
864.164	21804
864.296	21667
864.428	21876
864.559	21774
864.691	21838
864.823	21736
864.954	21819
865.086	21622
865.217	21667
865.349	21625
865.48	21682
865.612	21667
865.743	21797
865.875	21583
866.006	21675
866.137	21736
866.269	21629
866.4	21652
866.531	21545
866.662	21610
866.793	21519
866.924	21682
867.055	21603
867.186	21618
867.317	21542
867.448	21557
867.579	21515
867.71	21526
867.841	21572
867.972	21682
868.103	21553
868.233	21568
868.364	21644
868.495	21648
868.625	21751
868.756	22013
868.886	21736
869.017	21835
869.147	21953
869.278	21956
869.408	21922
869.539	21797
869.669	21880
869.799	21899
869.929	21838
870.06	21945
870.19	22215
870.32	22006
870.45	22078
870.58	22200
870.71	22386
870.84	22185
870.97	22211
871.1	22185
871.23	22417
871.36	22352
871.489	22303
871.619	22348
871.749	22356
871.879	22516
872.008	22447
872.138	22447
872.267	22538
872.397	22284
872.526	22238
872.656	22268
872.785	22204
872.915	22413
873.044	22500
873.173	22367
873.303	22462
873.432	22569
873.561	22599
873.69	22428
873.819	22451
873.948	22527
874.077	22500
874.206	22386
874.335	22417
874.464	22527
874.593	22592
874.722	22599
874.851	22733
874.979	22645
875.108	22573
875.237	22637
875.365	22607
875.494	22668
875.623	22725
875.751	22611
875.88	22675
876.008	22831
876.136	22873
876.265	23147
876.393	23086
876.521	23193
876.65	23193
876.778	23048
876.906	22949
877.034	22881
877.162	23006
877.29	23014
877.418	22991
877.546	22946
877.674	22968
877.802	22976
877.93	23067
878.058	22816
878.185	22892
878.313	22919
878.441	22976
878.568	22805
878.696	22942
878.824	23048
878.951	23128
879.079	23292
879.206	23395
879.333	23109
879.461	23079
879.588	23102
879.715	23132
879.842	23227
879.97	23056
880.097	22733
880.224	22847
880.351	22694
880.478	22877
880.605	22850
880.732	22850
880.859	22927
880.986	22812
881.112	22839
881.239	22626
881.366	22508
881.493	22459
881.619	22303
881.746	22436
881.872	22360
881.999	22356
882.125	22253
882.252	22352
882.378	22352
882.505	22447
882.631	22337
882.757	22116
882.883	22086
883.01	22086
883.136	21953
883.262	21892
883.388	21854
883.514	21949
883.64	22181
883.766	21991
883.892	21937
884.018	21819
884.143	21979
884.269	22090
884.395	21880
884.52	21728
884.646	21724
884.772	21629
884.897	21622
885.023	21728
885.148	21827
885.274	21831
885.399	21705
885.524	21705
885.65	21671
885.775	21671
885.9	21717
886.025	21873
886.15	21743
886.275	21625
886.4	21526
886.525	21701
886.65	21580
886.775	21603
886.9	21732
887.025	21846
887.149	21580
887.274	21504
887.399	21443
887.523	21428
887.648	21424
887.773	21397
887.897	21530
888.021	21504
888.146	21401
888.27	21477
888.395	21557
888.519	21576
888.643	21580
888.767	21431
888.891	21329
889.015	21317
889.139	21157
889.263	21275
889.387	21397
889.511	21519
889.635	21420
889.759	21184
889.883	21176
890.006	21321
890.13	21272
890.254	21062
890.377	21207
890.501	21180
890.624	20979
890.748	21108
890.871	20933
890.995	20845
891.118	20720
891.241	20777
891.364	20804
891.488	20925
891.611	20739
891.734	20765
891.857	20944
891.98	20830
892.103	20899
892.226	20758
892.349	20648
892.471	20644
892.594	20689
892.717	20785
892.839	20746
892.962	20777
893.085	20758
893.207	20598
893.33	20621
893.452	20602
893.575	20667
893.697	20655
893.819	20891
893.941	20899
894.064	20842
894.186	20636
894.308	20533
894.43	20720
894.552	20857
894.674	20743
894.796	20522
894.918	20705
895.04	20617
895.161	20682
895.283	20697
895.405	20583
895.526	20636
895.648	20571
895.769	20792
895.891	20739
896.012	20758
896.134	20568
896.255	20785
896.376	20530
896.498	20716
896.619	20655
896.74	20659
896.861	20785
896.982	20948
897.103	21077
897.224	20982
897.345	20948
897.466	20838
897.587	20853
897.708	20967
897.828	20910
897.949	20754
898.07	20590
898.19	20902
898.311	20979
898.431	20781
898.552	20777
898.672	20952
898.792	20872
898.913	20941
899.033	20891
899.153	20693
899.273	20598
899.393	20560
899.513	20594
899.633	20575
899.753	20613
899.873	20651
899.993	20598
900.113	20670
900.232	20587
900.352	20594
900.472	20461
900.591	20275
900.711	20396
900.83	20358
900.95	20518
901.069	20412
901.189	20290
901.308	20062
901.427	19978
901.546	20054
901.665	19982
901.784	19921
901.904	19902
902.023	19742
902.141	19594
902.26	19480
902.379	19518
902.498	19449
902.617	19381
902.735	19449
902.854	19358
902.973	19362
903.091	19141
903.21	19057
903.328	19145
903.446	19004
903.565	18856
903.683	18867
903.801	18837
903.919	18852
904.038	18833
904.156	18768
904.274	18825
904.392	18612
904.51	18684
904.627	18654
904.745	18688
904.863	18677
904.981	18452
905.098	18296
905.216	18437
905.334	18365
905.451	18330
905.569	18361
905.686	18445
905.803	18342
905.921	18117
906.038	18315
906.155	18205
906.272	18057
906.389	18121
906.506	18015
906.623	17775
906.74	17870
906.857	17874
906.974	17802
907.091	17927
907.208	18015
907.324	17939
907.441	17828
907.557	17649
907.674	17615
907.79	17547
907.907	17619
908.023	17668
908.139	17532
908.256	17668
908.372	17482
908.488	17486
908.604	17311
908.72	17395
908.836	17368
908.952	17322
909.068	17284
909.184	17334
909.3	17288
909.415	17345
909.531	17277
909.647	17056
909.762	17094
909.878	17056
909.993	16984
910.108	17109
910.224	16896
910.339	16991
910.454	16919
910.57	16736
910.685	16675
910.8	16980
910.915	17018
911.03	16862
911.145	16713
911.259	16649
911.374	16611
911.489	16584
911.604	16474
911.718	16348
911.833	16409
911.947	16337
912.062	16162
912.176	16306
912.291	16276
912.405	16379
912.519	16421
912.633	16565
912.748	16363
912.862	16337
912.976	16162
913.09	16128
913.204	16154
913.318	16181
913.431	16204
913.545	16246
913.659	16207
913.772	16204
913.886	16013
914	15899
914.113	16002
914.226	15979
914.34	16006
914.453	15846
914.566	15930
914.68	15884
914.793	15831
914.906	15599
915.019	15595
915.132	15496
915.245	15545
915.358	15534
915.47	15644
915.583	15564
915.696	15614
915.809	15690
915.921	15713
916.034	15462
916.146	15492
916.259	15408
916.371	15420
916.483	15584
916.595	15393
916.708	15466
916.82	15401
916.932	15412
917.044	15348
917.156	15268
917.268	15195
917.38	15226
917.491	15157
917.603	15127
917.715	15226
917.826	15325
917.938	15165
918.049	15028
918.161	15142
918.272	15302
918.384	15222
918.495	15058
918.606	14941
918.717	14933
918.828	14948
918.939	14937
919.05	14773
919.161	14906
919.272	14743
919.383	14834
919.494	15009
919.604	15077
919.715	14979
919.826	14872
919.936	14830
920.047	14982
920.157	14986
920.267	15032
920.378	14807
920.488	14834
920.598	15028
920.708	15260
920.818	15081
920.928	15047
921.038	15180
921.148	15146
921.258	14838
921.368	14750
921.477	14667
921.587	14731
921.697	14579
921.806	14613
921.916	14499
922.025	14339
922.134	14252
922.244	14206
922.353	14317
922.462	14195
922.571	14039
922.68	13898
922.789	13898
922.898	13826
923.007	13898
923.116	13830
923.224	13898
923.333	13814
923.442	13788
923.55	13776
923.659	13738
923.767	13860
923.876	13586
923.984	13738
924.092	13616
924.201	13696
924.309	13609
924.417	13616
924.525	13567
924.633	13548
924.741	14537
924.849	13346
924.956	13499
925.064	13407
925.172	13099
925.279	13251
925.387	13320
925.494	13278
925.602	13422
925.709	13331
925.816	13221
925.924	13152
926.031	13358
926.138	13270
926.245	13274
926.352	13129
926.459	13293
926.566	13312
926.673	13110
926.779	13042
926.886	13046
926.993	12951
927.099	12859
927.206	12810
927.312	12791
927.419	12890
927.525	12856
927.631	12943
927.737	12787
927.843	12669
927.95	12646
928.056	12566
928.162	12623
928.267	12700
928.373	13213
928.479	12734
928.585	12407
928.69	12498
928.796	12620
928.901	12513
929.007	12353
929.112	12585
929.218	12448
929.323	12464
929.428	12315
929.533	12509
929.638	12327
929.743	12273
929.848	12292
929.953	12315
930.058	12213
930.163	12083
930.267	12171
930.372	12186
930.477	12045
930.581	12182
930.685	12129
930.79	11923
930.894	11980
930.998	11923
931.103	12030
931.207	11638
931.311	11596
931.415	11543
931.519	11406
931.623	11349
