Data from test_V78500241_2276.txt Node
Date: Fri Mar 25 15:25:42 CST 2022
User: usil
Spectrometer: V785-0024
Trigger mode: 0
Integration Time (sec): 4.000000E-1
Scans to average: 1
Nonlinearity correction enabled: false
Boxcar width: 0
Storing dark spectrum: false
XAxis mode: Wavelengths
Number of Pixels in Spectrum: 1024
>>>>>Begin Spectral Data<<<<<
801.071	27610
801.214	27545
801.356	27447
801.499	27355
801.641	27291
801.783	27226
801.926	27157
802.068	27100
802.211	27058
802.353	27032
802.496	26921
802.638	26887
802.78	26933
802.923	26716
803.065	26598
803.208	26785
803.35	26788
803.492	27009
803.635	27096
803.777	27005
803.919	26990
804.061	27173
804.204	27058
804.346	26948
804.488	26994
804.63	27062
804.773	26952
804.915	27032
805.057	27146
805.199	26979
805.341	27207
805.483	27264
805.626	27100
805.768	27119
805.91	27032
806.052	27188
806.194	27047
806.336	27268
806.478	27154
806.62	27272
806.762	27332
806.904	27367
807.046	27629
807.188	27458
807.33	27599
807.472	27698
807.614	27393
807.756	27576
807.898	27511
808.04	27386
808.182	27401
808.324	27462
808.465	27374
808.607	27603
808.749	27682
808.891	27846
809.033	27892
809.174	27812
809.316	27652
809.458	27713
809.6	27709
809.741	27907
809.883	27892
810.025	28211
810.166	27991
810.308	27972
810.45	28044
810.591	27907
810.733	27861
810.875	27648
811.016	27610
811.158	27564
811.299	27743
811.441	27816
811.582	27964
811.724	27728
811.865	27713
812.007	27694
812.148	27694
812.29	27770
812.431	27949
812.573	27994
812.714	28128
812.855	28192
812.997	28428
813.138	28436
813.279	28299
813.421	28090
813.562	28192
813.703	28059
813.845	27926
813.986	27728
814.127	27511
814.268	27526
814.41	27511
814.551	27340
814.692	27572
814.833	27378
814.974	27374
815.115	27233
815.256	27154
815.397	27435
815.539	27283
815.68	27355
815.821	27123
815.962	27207
816.103	27176
816.244	27089
816.385	26990
816.526	27013
816.666	26762
816.807	26667
816.948	26872
817.089	26910
817.23	26834
817.371	26804
817.512	26621
817.653	26579
817.793	26644
817.934	26522
818.075	26811
818.216	26697
818.356	26583
818.497	26655
818.638	26396
818.778	26438
818.919	26442
819.06	26602
819.2	26533
819.341	26621
819.481	26678
819.622	26876
819.762	26994
819.903	26910
820.043	26773
820.184	26716
820.324	26823
820.465	26849
820.605	26777
820.746	26804
820.886	26746
821.026	26781
821.167	26629
821.307	26899
821.447	26663
821.588	26613
821.728	26549
821.868	26301
822.008	26206
822.149	26115
822.289	25963
822.429	25902
822.569	25879
822.709	25799
822.849	25769
822.99	25620
823.13	25674
823.27	25670
823.41	25441
823.55	25476
823.69	25571
823.83	25502
823.97	25331
824.11	25297
824.25	25331
824.389	25343
824.529	25422
824.669	25259
824.809	25438
824.949	25415
825.089	25369
825.228	25255
825.368	25175
825.508	25118
825.648	25126
825.787	25141
825.927	25122
826.067	25099
826.206	25110
826.346	25187
826.485	25274
826.625	25202
826.765	25297
826.904	25004
827.044	24939
827.183	25023
827.323	24798
827.462	24924
827.601	24848
827.741	24776
827.88	24814
828.02	24688
828.159	24753
828.298	24909
828.437	24867
828.577	24829
828.716	25046
828.855	24753
828.994	24646
829.134	24502
829.273	24692
829.412	24467
829.551	24650
829.69	24654
829.829	24661
829.968	24525
830.107	24715
830.246	24525
830.385	24509
830.524	24388
830.663	24338
830.802	24414
830.941	24083
831.08	24216
831.219	24327
831.357	24281
831.496	24464
831.635	24102
831.774	24083
831.913	23969
832.051	23889
832.19	23843
832.329	23893
832.467	23851
832.606	23821
832.744	23847
832.883	23786
833.022	23771
833.16	23855
833.299	23923
833.437	23764
833.576	23939
833.714	24007
833.852	23923
833.991	23923
834.129	24125
834.267	23977
834.406	23935
834.544	23889
834.682	23904
834.821	23878
834.959	23977
835.097	23927
835.235	23992
835.373	23878
835.511	23927
835.65	23577
835.788	23752
835.926	23646
836.064	23684
836.202	23596
836.34	23748
836.478	23855
836.615	23672
836.753	23817
836.891	23771
837.029	23764
837.167	23657
837.305	23562
837.443	23570
837.58	23615
837.718	23672
837.856	23642
837.993	23459
838.131	23478
838.269	23448
838.406	23558
838.544	23398
838.681	23284
838.819	23200
838.956	23181
839.094	23105
839.231	23162
839.369	23231
839.506	23516
839.643	23307
839.781	23094
839.918	22976
840.055	23041
840.193	22957
840.33	22934
840.467	22972
840.604	23003
840.742	23223
840.879	22793
841.016	22816
841.153	22835
841.29	23022
841.427	22927
841.564	22862
841.701	23025
841.838	22805
841.975	22908
842.112	22816
842.249	22710
842.385	22664
842.522	22957
842.659	22782
842.796	22774
842.933	22831
843.069	22634
843.206	22729
843.343	22755
843.479	22767
843.616	22672
843.752	22523
843.889	22508
844.025	22584
844.162	22489
844.298	22546
844.435	22622
844.571	22508
844.708	22497
844.844	22554
844.98	22615
845.117	22447
845.253	22523
845.389	22325
845.525	22390
845.661	22341
845.798	22207
845.934	22272
846.07	22272
846.206	22249
846.342	22325
846.478	22124
846.614	21987
846.75	21941
846.886	21956
847.022	21979
847.158	21922
847.294	21937
847.429	21892
847.565	21892
847.701	22101
847.837	21675
847.972	21705
848.108	21808
848.244	21785
848.379	21504
848.515	21618
848.65	21580
848.786	21526
848.921	21606
849.057	21698
849.192	21599
849.328	21599
849.463	21553
849.598	21428
849.734	21542
849.869	21439
850.004	21294
850.14	21249
850.275	21252
850.41	21294
850.545	21294
850.68	21317
850.815	21374
850.95	21184
851.085	21526
851.22	21428
851.355	21378
851.49	21462
851.625	21431
851.76	21340
851.895	21268
852.03	21237
852.165	21252
852.299	21431
852.434	21534
852.569	21310
852.703	21287
852.838	21397
852.973	21386
853.107	21439
853.242	21256
853.376	21184
853.511	21127
853.645	21116
853.78	21313
853.914	21085
854.048	21058
854.183	21150
854.317	21184
854.451	21321
854.585	21116
854.72	21062
854.854	21252
854.988	21009
855.122	21077
855.256	20960
855.39	21100
855.524	21222
855.658	21249
855.792	21146
855.926	21154
856.06	21051
856.194	21241
856.327	21062
856.461	21119
856.595	21058
856.729	20979
856.862	21165
856.996	21146
857.13	21237
857.263	21142
857.397	21112
857.53	21146
857.664	21165
857.797	21260
857.931	21294
858.064	21233
858.197	21211
858.331	21131
858.464	21066
858.597	21036
858.731	21104
858.864	21074
858.997	21089
859.13	21013
859.263	21066
859.396	21256
859.529	21096
859.662	21058
859.795	21104
859.928	21119
860.061	21283
860.194	21401
860.327	21157
860.46	21154
860.592	21306
860.725	21268
860.858	21294
860.99	20982
861.123	21009
861.256	21127
861.388	21127
861.521	21930
861.653	20998
861.786	20872
861.918	20948
862.05	21036
862.183	21001
862.315	21123
862.447	21135
862.58	21123
862.712	20838
862.844	20876
862.976	20842
863.108	20842
863.24	21207
863.372	20804
863.504	20872
863.636	20815
863.768	20937
863.9	20800
864.032	20807
864.164	20773
864.296	20861
864.428	20986
864.559	20967
864.691	20864
864.823	20929
864.954	20880
865.086	20769
865.217	20724
865.349	20655
865.48	20762
865.612	20735
865.743	20735
865.875	20788
866.006	20739
866.137	20705
866.269	20708
866.4	20708
866.531	20609
866.662	20720
866.793	20640
866.924	20625
867.055	20735
867.186	20674
867.317	20667
867.448	20579
867.579	20678
867.71	20552
867.841	20648
867.972	20533
868.103	20682
868.233	20655
868.364	20636
868.495	20716
868.625	20963
868.756	21013
868.886	20872
869.017	20868
869.147	20952
869.278	21081
869.408	20929
869.539	20967
869.669	21058
869.799	20895
869.929	20948
870.06	21043
870.19	21287
870.32	21306
870.45	21321
870.58	21340
870.71	21351
870.84	21279
870.97	21287
871.1	21332
871.23	21359
871.36	21488
871.489	21473
871.619	21439
871.749	21599
871.879	21485
872.008	21641
872.138	21504
872.267	21500
872.397	21412
872.526	21279
872.656	21359
872.785	21367
872.915	21507
873.044	21625
873.173	21625
873.303	21485
873.432	21545
873.561	21686
873.69	21606
873.819	21507
873.948	21667
874.077	21580
874.206	21511
874.335	21538
874.464	21747
874.593	21686
874.722	21656
874.851	21819
874.979	21759
875.108	21903
875.237	21899
875.365	21656
875.494	21770
875.623	21991
875.751	21781
875.88	21778
876.008	21762
876.136	22002
876.265	22177
876.393	22223
876.521	22261
876.65	22211
876.778	22185
876.906	22040
877.034	22135
877.162	22135
877.29	22173
877.418	22204
877.546	22074
877.674	22158
877.802	22204
877.93	22051
878.058	21979
878.185	21991
878.313	21987
878.441	22040
878.568	21968
878.696	21983
878.824	22055
878.951	22207
879.079	22272
879.206	22371
879.333	22268
879.461	22070
879.588	22219
879.715	22287
879.842	22303
879.97	22109
880.097	21903
880.224	21975
880.351	22002
880.478	22029
880.605	21915
880.732	21953
880.859	22238
880.986	21972
881.112	22010
881.239	21751
881.366	21736
881.493	21633
881.619	21534
881.746	21492
881.872	21591
881.999	21561
882.125	21412
882.252	21660
882.378	21496
882.505	21549
882.631	21466
882.757	21230
882.883	21367
883.01	21138
883.136	21214
883.262	21043
883.388	21203
883.514	21241
883.64	21298
883.766	21081
883.892	21085
884.018	21077
884.143	21249
884.269	21192
884.395	20967
884.52	20979
884.646	20937
884.772	20864
884.897	20899
885.023	20826
885.148	21028
885.274	20933
885.399	21009
885.524	20830
885.65	20826
885.775	20906
885.9	20826
886.025	20941
886.15	20929
886.275	20769
886.4	20743
886.525	20914
886.65	20701
886.775	20902
886.9	21051
887.025	21154
887.149	20937
887.274	20796
887.399	20720
887.523	20678
887.648	20583
887.773	20609
887.897	20769
888.021	20667
888.146	20552
888.27	20788
888.395	20739
888.519	20724
888.643	20716
888.767	20670
888.891	20568
889.015	20427
889.139	20492
889.263	20503
889.387	20537
889.511	20686
889.635	20590
889.759	20374
889.883	20518
890.006	20461
890.13	20617
890.254	20408
890.377	20396
890.501	20149
890.624	20278
890.748	20237
890.871	20081
890.995	19974
891.118	19970
891.241	20039
891.364	20145
891.488	20229
891.611	20008
891.734	20115
891.857	20100
891.98	20058
892.103	20092
892.226	20043
892.349	19932
892.471	19731
892.594	19925
892.717	19947
892.839	19879
892.962	19879
893.085	20016
893.207	19898
893.33	19833
893.452	19883
893.575	19970
893.697	19890
893.819	20142
893.941	20073
894.064	20058
894.186	19807
894.308	19849
894.43	19947
894.552	20073
894.674	20043
894.796	19894
894.918	19841
895.04	19917
895.161	19944
895.283	19970
895.405	19940
895.526	20031
895.648	19913
895.769	19978
895.891	20024
896.012	20008
896.134	19864
896.255	19951
896.376	19814
896.498	19852
896.619	19909
896.74	19909
896.861	19928
896.982	20278
897.103	20427
897.224	20206
897.345	20172
897.466	20092
897.587	20168
897.708	20313
897.828	20138
897.949	20183
898.07	20058
898.19	20046
898.311	20126
898.431	20168
898.552	20176
898.672	20191
898.792	20100
898.913	19997
899.033	20096
899.153	20046
899.273	19944
899.393	19902
899.513	19963
899.633	19917
899.753	19852
899.873	19967
899.993	19833
900.113	19814
900.232	19913
900.352	19864
900.472	19689
900.591	19624
900.711	19715
900.83	19601
900.95	19712
901.069	19841
901.189	19487
901.308	19369
901.427	19274
901.546	19247
901.665	19350
901.784	19335
901.904	19244
902.023	19008
902.141	18821
902.26	18787
902.379	18913
902.498	18749
902.617	18772
902.735	18734
902.854	18768
902.973	18814
903.091	18525
903.21	18483
903.328	18547
903.446	18380
903.565	18205
903.683	18285
903.801	18091
903.919	18277
904.038	18254
904.156	18098
904.274	18045
904.392	18049
904.51	17897
904.627	18041
904.745	18083
904.863	18140
904.981	17935
905.098	17745
905.216	17786
905.334	17832
905.451	17729
905.569	17611
905.686	17703
905.803	17737
905.921	17474
906.038	17585
906.155	17398
906.272	17501
906.389	17376
906.506	17414
906.623	17273
906.74	17223
906.857	17083
906.974	17075
907.091	17334
907.208	17398
907.324	17280
907.441	17250
907.557	16934
907.674	17052
907.79	16911
907.907	16908
908.023	17018
908.139	16938
908.256	16949
908.372	16809
908.488	16873
908.604	16683
908.72	16611
908.836	16752
908.952	16679
909.068	16713
909.184	16828
909.3	16733
909.415	16721
909.531	16748
909.647	16432
909.762	16489
909.878	16348
909.993	16405
910.108	16379
910.224	16310
910.339	16394
910.454	16314
910.57	16303
910.685	16234
910.8	16375
910.915	16451
911.03	16120
911.145	16013
911.259	15945
911.374	16090
911.489	15968
911.604	15823
911.718	15660
911.833	15823
911.947	15584
912.062	15591
912.176	15785
912.291	15736
912.405	15701
912.519	15945
912.633	15918
912.748	15713
912.862	15679
912.976	15500
913.09	15515
913.204	15477
913.318	15580
913.431	15625
913.545	15633
913.659	15610
913.772	15401
913.886	15466
914	15412
914.113	15485
914.226	15431
914.34	15458
914.453	15272
914.566	15340
914.68	15306
914.793	15336
914.906	15009
915.019	15036
915.132	14982
915.245	14952
915.358	14982
915.47	15009
915.583	15081
915.696	14948
915.809	15097
915.921	15093
916.034	14876
916.146	14838
916.259	14823
916.371	14941
916.483	14933
916.595	14842
916.708	14864
916.82	14823
916.932	14842
917.044	14773
917.156	14670
917.268	14693
917.38	14667
917.491	14621
917.603	14651
917.715	14644
917.826	14644
917.938	14530
918.049	14396
918.161	14632
918.272	14697
918.384	14720
918.495	14484
918.606	14385
918.717	14381
918.828	14507
918.939	14370
919.05	14332
919.161	14374
919.272	14244
919.383	14275
919.494	14484
919.604	14632
919.715	14339
919.826	14313
919.936	14362
920.047	14457
920.157	14457
920.267	14636
920.378	14438
920.488	14324
920.598	14545
920.708	14625
920.818	14537
920.928	14473
921.038	14610
921.148	14636
921.258	14347
921.368	14183
921.477	14119
921.587	14046
921.697	13955
921.806	14134
921.916	13959
922.025	13814
922.134	13712
922.244	13674
922.353	13780
922.462	13540
922.571	13578
922.68	13419
922.789	13373
922.898	13335
923.007	13312
923.116	13400
923.224	13301
923.333	13297
923.442	13206
923.55	13175
923.659	13168
923.767	13274
923.876	13206
923.984	13236
924.092	13061
924.201	13308
924.309	13099
924.417	13114
924.525	13069
924.633	13175
924.741	13860
924.849	12958
924.956	12890
925.064	12814
925.172	12772
925.279	12703
925.387	12833
925.494	12738
925.602	12924
925.709	12829
925.816	12711
925.924	12764
926.031	12905
926.138	12738
926.245	12783
926.352	12669
926.459	12745
926.566	12833
926.673	12696
926.779	12517
926.886	12551
926.993	12403
927.099	12376
927.206	12437
927.312	12319
927.419	12372
927.525	12437
927.631	12391
927.737	12251
927.843	12247
927.95	12102
928.056	12277
928.162	12281
928.267	12304
928.373	12802
928.479	12296
928.585	12003
928.69	12167
928.796	12155
928.901	11996
929.007	11927
929.112	12022
929.218	12026
929.323	11980
929.428	11927
929.533	12038
929.638	11813
929.743	11954
929.848	11908
929.953	11870
930.058	11764
930.163	11642
930.267	11665
930.372	11790
930.477	11642
930.581	11737
930.685	11608
930.79	11493
930.894	11558
930.998	11474
931.103	11649
931.207	11239
931.311	11250
931.415	11109
931.519	10873
931.623	10881
