Data from test_V78500241_187.txt Node
Date: Fri Mar 25 15:11:09 CST 2022
User: usil
Spectrometer: V785-0024
Trigger mode: 0
Integration Time (sec): 4.000000E-1
Scans to average: 1
Nonlinearity correction enabled: false
Boxcar width: 0
Storing dark spectrum: false
XAxis mode: Wavelengths
Number of Pixels in Spectrum: 1024
>>>>>Begin Spectral Data<<<<<
801.071	27781
801.214	27766
801.356	27496
801.499	27332
801.641	27344
801.783	27260
801.926	27237
802.068	27142
802.211	27131
802.353	27184
802.496	27096
802.638	26895
802.78	26929
802.923	26857
803.065	26708
803.208	26663
803.35	26895
803.492	26895
803.635	26849
803.777	26845
803.919	27077
804.061	27302
804.204	27058
804.346	26838
804.488	26765
804.63	26819
804.773	26743
804.915	26826
805.057	27047
805.199	26910
805.341	26929
805.483	26986
805.626	26979
805.768	26906
805.91	26967
806.052	27085
806.194	26902
806.336	27146
806.478	26982
806.62	27039
806.762	26982
806.904	27184
807.046	27549
807.188	27348
807.33	27199
807.472	27332
807.614	27279
807.756	27283
807.898	27222
808.04	27001
808.182	27070
808.324	27249
808.465	27214
808.607	27340
808.749	27477
808.891	27606
809.033	27576
809.174	27618
809.316	27526
809.458	27580
809.6	27545
809.741	27507
809.883	27667
810.025	27793
810.166	27717
810.308	27698
810.45	27606
810.591	27572
810.733	27568
810.875	27302
811.016	27389
811.158	27420
811.299	27587
811.441	27656
811.582	27561
811.724	27374
811.865	27542
812.007	27439
812.148	27466
812.29	27443
812.431	27572
812.573	27717
812.714	27895
812.855	27907
812.997	27930
813.138	28158
813.279	28021
813.421	27937
813.562	27888
813.703	27819
813.845	27587
813.986	27348
814.127	27169
814.268	27017
814.41	27089
814.551	27116
814.692	27089
814.833	26944
814.974	27028
815.115	27020
815.256	26906
815.397	26800
815.539	26960
815.68	26735
815.821	26792
815.962	26830
816.103	26659
816.244	26541
816.385	26609
816.526	26670
816.666	26408
816.807	26336
816.948	26336
817.089	26347
817.23	26161
817.371	26210
817.512	26229
817.653	26187
817.793	26305
817.934	26164
818.075	26202
818.216	26263
818.356	26134
818.497	26046
818.638	25841
818.778	25898
818.919	25837
819.06	25993
819.2	26119
819.341	26168
819.481	26157
819.622	26210
819.762	26480
819.903	26480
820.043	26275
820.184	26320
820.324	26210
820.465	26370
820.605	26267
820.746	26252
820.886	26073
821.026	26229
821.167	26161
821.307	26233
821.447	26195
821.588	26062
821.728	25982
821.868	25731
822.008	25620
822.149	25662
822.289	25556
822.429	25392
822.569	25202
822.709	25175
822.849	25141
822.99	25175
823.13	25031
823.27	25034
823.41	24916
823.55	24867
823.69	24844
823.83	24890
823.97	24871
824.11	24589
824.25	24593
824.389	24738
824.529	24768
824.669	24616
824.809	24798
824.949	24719
825.089	24776
825.228	24646
825.368	24357
825.508	24464
825.648	24273
825.787	24479
825.927	24570
826.067	24513
826.206	24403
826.346	24445
826.485	24532
826.625	24407
826.765	24547
826.904	24532
827.044	24133
827.183	24171
827.323	24178
827.462	24182
827.601	24106
827.741	24068
827.88	24266
828.02	24011
828.159	24114
828.298	24220
828.437	24140
828.577	24190
828.716	24315
828.855	24041
828.994	23885
829.134	23961
829.273	23794
829.412	23878
829.551	23684
829.69	23786
829.829	23836
829.968	23954
830.107	23923
830.246	23775
830.385	23707
830.524	23684
830.663	23695
830.802	23554
830.941	23558
831.08	23383
831.219	23421
831.357	23452
831.496	23566
831.635	23440
831.774	23258
831.913	23406
832.051	23220
832.19	23155
832.329	23231
832.467	23029
832.606	23052
832.744	22949
832.883	22972
833.022	23056
833.16	23044
833.299	23197
833.437	23086
833.576	23056
833.714	23109
833.852	23102
833.991	23200
834.129	23269
834.267	23185
834.406	23143
834.544	23086
834.682	23178
834.821	23105
834.959	23204
835.097	23132
835.235	23086
835.373	23200
835.511	22957
835.65	22858
835.788	22991
835.926	22782
836.064	22835
836.202	22706
836.34	22968
836.478	23083
836.615	22881
836.753	22854
836.891	22949
837.029	23014
837.167	22877
837.305	22744
837.443	22679
837.58	22774
837.718	22957
837.856	22736
837.993	22793
838.131	22744
838.269	22763
838.406	22679
838.544	22565
838.681	22478
838.819	22382
838.956	22169
839.094	22188
839.231	22322
839.369	22516
839.506	22527
839.643	22470
839.781	22204
839.918	22112
840.055	22226
840.193	22166
840.33	22169
840.467	22116
840.604	22215
840.742	22405
840.879	21972
841.016	22139
841.153	22082
841.29	22147
841.427	22074
841.564	22128
841.701	22086
841.838	22082
841.975	22017
842.112	22044
842.249	21838
842.385	21941
842.522	21987
842.659	21918
842.796	21880
842.933	21876
843.069	21823
843.206	21869
843.343	21956
843.479	21835
843.616	21892
843.752	21698
843.889	21618
844.025	21732
844.162	21545
844.298	21709
844.435	21644
844.571	21587
844.708	21633
844.844	21797
844.98	21663
845.117	21762
845.253	21526
845.389	21507
845.525	21469
845.661	21549
845.798	21310
845.934	21466
846.07	21348
846.206	21401
846.342	21393
846.478	21260
846.614	21218
846.75	20967
846.886	21116
847.022	21093
847.158	21085
847.294	20899
847.429	21169
847.565	20982
847.701	21264
847.837	20781
847.972	20758
848.108	20868
848.244	20811
848.379	20720
848.515	20594
848.65	20594
848.786	20636
848.921	20556
849.057	20674
849.192	20758
849.328	20670
849.463	20556
849.598	20659
849.734	20511
849.869	20473
850.004	20465
850.14	20465
850.275	20351
850.41	20290
850.545	20237
850.68	20351
850.815	20434
850.95	20434
851.085	20564
851.22	20469
851.355	20499
851.49	20362
851.625	20320
851.76	20294
851.895	20328
852.03	20180
852.165	20317
852.299	20362
852.434	20522
852.569	20275
852.703	20400
852.838	20499
852.973	20480
853.107	20556
853.242	20294
853.376	20164
853.511	20172
853.645	20164
853.78	20248
853.914	20256
854.048	20168
854.183	20073
854.317	20115
854.451	20252
854.585	20122
854.72	20107
854.854	20157
854.988	20096
855.122	20195
855.256	19928
855.39	20138
855.524	20161
855.658	20244
855.792	20142
855.926	20187
856.06	20191
856.194	20218
856.327	20176
856.461	20073
856.595	20043
856.729	20206
856.862	20164
856.996	20244
857.13	20183
857.263	20214
857.397	20195
857.53	20176
857.664	20130
857.797	20317
857.931	20351
858.064	20180
858.197	20298
858.331	20187
858.464	20126
858.597	20054
858.731	20081
858.864	20142
858.997	20084
859.13	20111
859.263	20001
859.396	20256
859.529	20149
859.662	20107
859.795	20035
859.928	20153
860.061	20252
860.194	20282
860.327	20069
860.46	20161
860.592	20339
860.725	20256
860.858	20149
860.99	20103
861.123	19978
861.256	19986
861.388	20046
861.521	20872
861.653	20024
861.786	19982
861.918	19997
862.05	20062
862.183	19974
862.315	20199
862.447	20210
862.58	20126
862.712	19906
862.844	19944
862.976	20031
863.108	19974
863.24	20172
863.372	19803
863.504	19841
863.636	19788
863.768	19864
863.9	19906
864.032	19883
864.164	19750
864.296	19894
864.428	19879
864.559	19818
864.691	19883
864.823	19993
864.954	19871
865.086	19856
865.217	19890
865.349	19696
865.48	19776
865.612	19708
865.743	19887
865.875	19826
866.006	19658
866.137	19757
866.269	19750
866.4	19628
866.531	19746
866.662	19616
866.793	19582
866.924	19700
867.055	19753
867.186	19658
867.317	19761
867.448	19814
867.579	19670
867.71	19670
867.841	19613
867.972	19696
868.103	19590
868.233	19601
868.364	19620
868.495	19780
868.625	19875
868.756	20100
868.886	19917
869.017	19837
869.147	20027
869.278	20050
869.408	19940
869.539	19986
869.669	19967
869.799	20046
869.929	20119
870.06	20073
870.19	20229
870.32	20161
870.45	20301
870.58	20259
870.71	20286
870.84	20298
870.97	20134
871.1	20221
871.23	20511
871.36	20530
871.489	20389
871.619	20412
871.749	20522
871.879	20545
872.008	20545
872.138	20606
872.267	20427
872.397	20442
872.526	20294
872.656	20393
872.785	20252
872.915	20537
873.044	20701
873.173	20476
873.303	20526
873.432	20552
873.561	20670
873.69	20632
873.819	20522
873.948	20564
874.077	20587
874.206	20522
874.335	20571
874.464	20625
874.593	20849
874.722	20727
874.851	20781
874.979	20823
875.108	20880
875.237	20769
875.365	20788
875.494	20857
875.623	20880
875.751	20731
875.88	20811
876.008	20975
876.136	21062
876.265	21176
876.393	21291
876.521	21123
876.65	21283
876.778	21230
876.906	21188
877.034	21135
877.162	21207
877.29	21013
877.418	21218
877.546	21233
877.674	21138
877.802	21203
877.93	21180
878.058	21108
878.185	21009
878.313	21135
878.441	21249
878.568	20990
878.696	21032
878.824	21237
878.951	21332
879.079	21340
879.206	21405
879.333	21325
879.461	21062
879.588	21184
879.715	21332
879.842	21526
879.97	21268
880.097	20982
880.224	20883
880.351	21150
880.478	20971
880.605	20853
880.732	21001
880.859	21211
880.986	21005
881.112	20944
881.239	20868
881.366	20762
881.493	20571
881.619	20598
881.746	20594
881.872	20434
881.999	20590
882.125	20571
882.252	20644
882.378	20568
882.505	20568
882.631	20446
882.757	20351
882.883	20385
883.01	20305
883.136	20252
883.262	20180
883.388	20126
883.514	20336
883.64	20377
883.766	20286
883.892	20092
884.018	20256
884.143	20271
884.269	20286
884.395	20115
884.52	19890
884.646	20043
884.772	19795
884.897	19940
885.023	19967
885.148	20043
885.274	20153
885.399	20016
885.524	20001
885.65	19944
885.775	20069
885.9	19921
886.025	20039
886.15	20005
886.275	19947
886.4	19731
886.525	20024
886.65	19715
886.775	19830
886.9	20111
887.025	20176
887.149	19852
887.274	19845
887.399	19689
887.523	19750
887.648	19677
887.773	19639
887.897	19651
888.021	19704
888.146	19559
888.27	19757
888.395	19791
888.519	19753
888.643	19605
888.767	19788
888.891	19514
889.015	19548
889.139	19624
889.263	19510
889.387	19582
889.511	19704
889.635	19765
889.759	19476
889.883	19518
890.006	19392
890.13	19533
890.254	19472
890.377	19460
890.501	19240
890.624	19198
890.748	19331
890.871	19259
890.995	19046
891.118	19129
891.241	19175
891.364	19061
891.488	19137
891.611	19088
891.734	19061
891.857	19217
891.98	19053
892.103	19168
892.226	19107
892.349	18989
892.471	18909
892.594	19050
892.717	19038
892.839	19084
892.962	19050
893.085	19091
893.207	19004
893.33	18871
893.452	18825
893.575	19129
893.697	18977
893.819	19156
893.941	19232
894.064	19031
894.186	18958
894.308	19080
894.43	19046
894.552	19175
894.674	19099
894.796	19050
894.918	18920
895.04	18996
895.161	19133
895.283	19107
895.405	18962
895.526	19065
895.648	19069
895.769	19088
895.891	19164
896.012	19084
896.134	19183
896.255	19110
896.376	19004
896.498	19046
896.619	19133
896.74	19088
896.861	19171
896.982	19384
897.103	19613
897.224	19422
897.345	19373
897.466	19312
897.587	19350
897.708	19483
897.828	19365
897.949	19240
898.07	19152
898.19	19228
898.311	19434
898.431	19255
898.552	19209
898.672	19301
898.792	19343
898.913	19259
899.033	19122
899.153	19152
899.273	19004
899.393	19023
899.513	19061
899.633	19038
899.753	19012
899.873	18989
899.993	18996
900.113	18989
900.232	19080
900.352	18935
900.472	18798
900.591	18863
900.711	18852
900.83	18741
900.95	18951
901.069	18928
901.189	18726
901.308	18460
901.427	18426
901.546	18384
901.665	18536
901.784	18479
901.904	18315
902.023	18292
902.141	18076
902.26	18041
902.379	18060
902.498	17939
902.617	17866
902.735	17912
902.854	17783
902.973	17863
903.091	17695
903.21	17471
903.328	17577
903.446	17577
903.565	17391
903.683	17376
903.801	17254
903.919	17444
904.038	17311
904.156	17208
904.274	17242
904.392	17197
904.51	17193
904.627	17178
904.745	17299
904.863	17250
904.981	17029
905.098	16847
905.216	16839
905.334	16885
905.451	16889
905.569	16858
905.686	16892
905.803	16847
905.921	16641
906.038	16767
906.155	16611
906.272	16558
906.389	16569
906.506	16504
906.623	16455
906.74	16382
906.857	16325
906.974	16242
907.091	16478
907.208	16451
907.324	16561
907.441	16375
907.557	16188
907.674	16147
907.79	16143
907.907	16082
908.023	16196
908.139	16230
908.256	16105
908.372	16074
908.488	15983
908.604	15850
908.72	15819
908.836	15918
908.952	15778
909.068	15850
909.184	15869
909.3	15778
909.415	15838
909.531	15804
909.647	15641
909.762	15530
909.878	15545
909.993	15568
910.108	15485
910.224	15454
910.339	15466
910.454	15389
910.57	15233
910.685	15313
910.8	15553
910.915	15477
911.03	15374
911.145	15173
911.259	15135
911.374	15245
911.489	15062
911.604	15058
911.718	14952
911.833	14914
911.947	14804
912.062	14606
912.176	14842
912.291	14796
912.405	14838
912.519	14998
912.633	15058
912.748	14883
912.862	14880
912.976	14678
913.09	14610
913.204	14648
913.318	14727
913.431	14678
913.545	14815
913.659	14849
913.772	14579
913.886	14590
914	14537
914.113	14644
914.226	14644
914.34	14606
914.453	14415
914.566	14446
914.68	14495
914.793	14427
914.906	14176
915.019	14202
915.132	14096
915.245	14263
915.358	14191
915.47	14058
915.583	14157
915.696	14187
915.809	14240
915.921	14347
916.034	14164
916.146	14103
916.259	14107
916.371	14142
916.483	14100
916.595	13982
916.708	14008
916.82	13970
916.932	13970
917.044	14027
917.156	13932
917.268	13925
917.38	13757
917.491	13856
917.603	13868
917.715	13830
917.826	13856
917.938	13715
918.049	13708
918.161	13856
918.272	13940
918.384	13868
918.495	13719
918.606	13597
918.717	13559
918.828	13605
918.939	13563
919.05	13616
919.161	13651
919.272	13453
919.383	13460
919.494	13605
919.604	13803
919.715	13457
919.826	13495
919.936	13620
920.047	13624
920.157	13483
920.267	13693
920.378	13666
920.488	13499
920.598	13788
920.708	13902
920.818	13788
920.928	13723
921.038	13761
921.148	13822
921.258	13540
921.368	13457
921.477	13312
921.587	13297
921.697	13274
921.806	13438
921.916	13141
922.025	13065
922.134	13015
922.244	12859
922.353	12996
922.462	12970
922.571	12848
922.68	12612
922.789	12589
922.898	12642
923.007	12635
923.116	12703
923.224	12642
923.333	12601
923.442	12589
923.55	12433
923.659	12490
923.767	12616
923.876	12422
923.984	12532
924.092	12350
924.201	12429
924.309	12414
924.417	12357
924.525	12342
924.633	12315
924.741	13084
924.849	12148
924.956	12292
925.064	12117
925.172	12015
925.279	12152
925.387	12136
925.494	12098
925.602	12262
925.709	12129
925.816	12049
925.924	12003
926.031	12178
926.138	12140
926.245	12034
926.352	12011
926.459	12163
926.566	12110
926.673	11889
926.779	11893
926.886	11901
926.993	11726
927.099	11737
927.206	11680
927.312	11619
927.419	11752
927.525	11691
927.631	11741
927.737	11562
927.843	11505
927.95	11455
928.056	11592
928.162	11376
928.267	11459
928.373	11988
928.479	11688
928.585	11444
928.69	11482
928.796	11436
928.901	11414
929.007	11208
929.112	11395
929.218	11356
929.323	11303
929.428	11326
929.533	11303
929.638	11231
929.743	11269
929.848	11254
929.953	11235
930.058	11064
930.163	10961
930.267	11029
930.372	11105
930.477	10934
930.581	11185
930.685	10911
930.79	10892
930.894	10847
930.998	10847
931.103	10984
931.207	10535
931.311	10470
931.415	10451
931.519	10268
931.623	10219
