Data from test_V78500241_2034.txt Node
Date: Fri Mar 25 15:24:01 CST 2022
User: usil
Spectrometer: V785-0024
Trigger mode: 0
Integration Time (sec): 4.000000E-1
Scans to average: 1
Nonlinearity correction enabled: false
Boxcar width: 0
Storing dark spectrum: false
XAxis mode: Wavelengths
Number of Pixels in Spectrum: 1024
>>>>>Begin Spectral Data<<<<<
801.071	27743
801.214	27751
801.356	27507
801.499	27367
801.641	27310
801.783	27310
801.926	27405
802.068	27393
802.211	27245
802.353	27036
802.496	26956
802.638	26994
802.78	26952
802.923	26823
803.065	26800
803.208	26861
803.35	26883
803.492	27055
803.635	27085
803.777	26872
803.919	27100
804.061	27393
804.204	27272
804.346	27074
804.488	27100
804.63	27135
804.773	27024
804.915	27135
805.057	27363
805.199	27260
805.341	27218
805.483	27195
805.626	27306
805.768	27157
805.91	27252
806.052	27241
806.194	27062
806.336	27435
806.478	27161
806.62	27188
806.762	27268
806.904	27542
807.046	27857
807.188	27679
807.33	27671
807.472	27766
807.614	27816
807.756	27686
807.898	27492
808.04	27568
808.182	27424
808.324	27641
808.465	27568
808.607	27671
808.749	27922
808.891	27975
809.033	27979
809.174	28143
809.316	27975
809.458	27838
809.6	27743
809.741	28021
809.883	27975
810.025	28242
810.166	28131
810.308	28230
810.45	28048
810.591	28169
810.733	27903
810.875	27934
811.016	27823
811.158	27827
811.299	27956
811.441	27945
811.582	27991
811.724	27816
811.865	27842
812.007	27884
812.148	27831
812.29	27960
812.431	28082
812.573	28234
812.714	28226
812.855	28424
812.997	28508
813.138	28565
813.279	28527
813.421	28527
813.562	28284
813.703	28173
813.845	28116
813.986	27934
814.127	27606
814.268	27705
814.41	27656
814.551	27435
814.692	27641
814.833	27488
814.974	27561
815.115	27622
815.256	27439
815.397	27287
815.539	27496
815.68	27382
815.821	27268
815.962	27374
816.103	27252
816.244	27260
816.385	26982
816.526	27066
816.666	26937
816.807	26891
816.948	27005
817.089	26910
817.23	26743
817.371	26720
817.512	26807
817.653	26762
817.793	26807
817.934	26834
818.075	26777
818.216	26861
818.356	26834
818.497	26804
818.638	26579
818.778	26640
818.919	26514
819.06	26735
819.2	26739
819.341	26804
819.481	26853
819.622	26883
819.762	27112
819.903	27055
820.043	27005
820.184	26857
820.324	26933
820.465	26940
820.605	26982
820.746	26971
820.886	26876
821.026	26918
821.167	26864
821.307	26914
821.447	26773
821.588	26655
821.728	26613
821.868	26469
822.008	26377
822.149	26267
822.289	26328
822.429	26039
822.569	25921
822.709	26024
822.849	25814
822.99	25894
823.13	25959
823.27	25856
823.41	25681
823.55	25567
823.69	25677
823.83	25670
823.97	25620
824.11	25563
824.25	25422
824.389	25540
824.529	25422
824.669	25392
824.809	25506
824.949	25689
825.089	25662
825.228	25438
825.368	25324
825.508	25441
825.648	25381
825.787	25350
825.927	25499
826.067	25335
826.206	25415
826.346	25422
826.485	25274
826.625	25244
826.765	25324
826.904	25343
827.044	25168
827.183	25160
827.323	25152
827.462	25099
827.601	25206
827.741	25023
827.88	24947
828.02	24951
828.159	24977
828.298	25084
828.437	25114
828.577	24985
828.716	25038
828.855	24977
828.994	24616
829.134	24829
829.273	24886
829.412	24715
829.551	24563
829.69	24783
829.829	24608
829.968	24726
830.107	24840
830.246	24631
830.385	24616
830.524	24665
830.663	24639
830.802	24593
830.941	24433
831.08	24220
831.219	24551
831.357	24441
831.496	24570
831.635	24342
831.774	24346
831.913	24327
832.051	24220
832.19	24072
832.329	24190
832.467	24049
832.606	23999
832.744	23931
832.883	24038
833.022	23878
833.16	23980
833.299	24235
833.437	24003
833.576	23984
833.714	24091
833.852	24060
833.991	24194
834.129	24167
834.267	24213
834.406	24178
834.544	24239
834.682	24174
834.821	24110
834.959	24209
835.097	24053
835.235	23939
835.373	23904
835.511	24057
835.65	23935
835.788	23897
835.926	23866
836.064	23775
836.202	23878
836.34	24022
836.478	24110
836.615	23870
836.753	23904
836.891	23999
837.029	23908
837.167	23859
837.305	23973
837.443	23775
837.58	23805
837.718	23855
837.856	23729
837.993	23680
838.131	23699
838.269	23722
838.406	23710
838.544	23554
838.681	23387
838.819	23383
838.956	23402
839.094	23307
839.231	23436
839.369	23387
839.506	23687
839.643	23554
839.781	23356
839.918	23174
840.055	23208
840.193	23200
840.33	23235
840.467	23235
840.604	23197
840.742	23436
840.879	23048
841.016	23029
841.153	22995
841.29	23227
841.427	22984
841.564	23197
841.701	23136
841.838	23094
841.975	22946
842.112	23018
842.249	23022
842.385	22942
842.522	22999
842.659	22999
842.796	22881
842.933	22839
843.069	22862
843.206	22828
843.343	23010
843.479	22927
843.616	22877
843.752	22637
843.889	22637
844.025	22869
844.162	22577
844.298	22698
844.435	22748
844.571	22512
844.708	22828
844.844	22820
844.98	22889
845.117	22809
845.253	22554
845.389	22634
845.525	22573
845.661	22516
845.798	22409
845.934	22443
846.07	22375
846.206	22436
846.342	22603
846.478	22386
846.614	22173
846.75	22032
846.886	22242
847.022	22192
847.158	22196
847.294	22173
847.429	22192
847.565	22196
847.701	22398
847.837	21934
847.972	21899
848.108	21850
848.244	22010
848.379	21842
848.515	21705
848.65	21625
848.786	21800
848.921	21869
849.057	21778
849.192	21838
849.328	21857
849.463	21743
849.598	21701
849.734	21523
849.869	21633
850.004	21519
850.14	21557
850.275	21504
850.41	21370
850.545	21462
850.68	21545
850.815	21603
850.95	21572
851.085	21667
851.22	21614
851.355	21500
851.49	21542
851.625	21523
851.76	21424
851.895	21310
852.03	21462
852.165	21420
852.299	21481
852.434	21488
852.569	21454
852.703	21519
852.838	21507
852.973	21663
853.107	21781
853.242	21504
853.376	21370
853.511	21237
853.645	21283
853.78	21454
853.914	21458
854.048	21367
854.183	21401
854.317	21237
854.451	21515
854.585	21443
854.72	21298
854.854	21439
854.988	21283
855.122	21291
855.256	21313
855.39	21275
855.524	21374
855.658	21401
855.792	21275
855.926	21363
856.06	21450
856.194	21397
856.327	21367
856.461	21176
856.595	21264
856.729	21298
856.862	21420
856.996	21351
857.13	21275
857.263	21454
857.397	21454
857.53	21306
857.664	21298
857.797	21397
857.931	21526
858.064	21332
858.197	21317
858.331	21329
858.464	21287
858.597	21195
858.731	21245
858.864	21389
858.997	21180
859.13	21313
859.263	21329
859.396	21370
859.529	21272
859.662	21294
859.795	21207
859.928	21256
860.061	21458
860.194	21466
860.327	21302
860.46	21386
860.592	21370
860.725	21389
860.858	21447
860.99	21249
861.123	21150
861.256	21329
861.388	21355
861.521	22051
861.653	21226
861.786	21116
861.918	21195
862.05	21211
862.183	21237
862.315	21184
862.447	21294
862.58	21188
862.712	21070
862.844	20960
862.976	21077
863.108	21058
863.24	21462
863.372	20914
863.504	21070
863.636	20921
863.768	21055
863.9	21024
864.032	20937
864.164	20990
864.296	21074
864.428	20998
864.559	21112
864.691	20998
864.823	21039
864.954	21001
865.086	20910
865.217	20891
865.349	20937
865.48	20918
865.612	20899
865.743	21028
865.875	20948
866.006	20921
866.137	20929
866.269	20960
866.4	20925
866.531	20838
866.662	20773
866.793	20918
866.924	20864
867.055	20914
867.186	20861
867.317	20842
867.448	20735
867.579	20967
867.71	20765
867.841	20773
867.972	20765
868.103	20880
868.233	20800
868.364	20883
868.495	20861
868.625	21119
868.756	21291
868.886	21104
869.017	21135
869.147	21131
869.278	21211
869.408	21100
869.539	21051
869.669	21150
869.799	21180
869.929	21161
870.06	21176
870.19	21374
870.32	21405
870.45	21435
870.58	21450
870.71	21538
870.84	21580
870.97	21447
871.1	21515
871.23	21648
871.36	21717
871.489	21591
871.619	21660
871.749	21660
871.879	21663
872.008	21812
872.138	21728
872.267	21781
872.397	21568
872.526	21599
872.656	21603
872.785	21564
872.915	21831
873.044	21682
873.173	21762
873.303	21770
873.432	21694
873.561	21899
873.69	21789
873.819	21751
873.948	21762
874.077	21595
874.206	21663
874.335	21739
874.464	21778
874.593	21915
874.722	21899
874.851	21998
874.979	21899
875.108	21964
875.237	21945
875.365	21911
875.494	21865
875.623	22044
875.751	21960
875.88	21892
876.008	22048
876.136	22173
876.265	22325
876.393	22470
876.521	22436
876.65	22417
876.778	22265
876.906	22371
877.034	22215
877.162	22226
877.29	22333
877.418	22306
877.546	22348
877.674	22200
877.802	22272
877.93	22367
878.058	22192
878.185	22181
878.313	22363
878.441	22207
878.568	22188
878.696	22162
878.824	22306
878.951	22348
879.079	22512
879.206	22557
879.333	22500
879.461	22322
879.588	22462
879.715	22379
879.842	22508
879.97	22287
880.097	22051
880.224	22021
880.351	22200
880.478	22029
880.605	22207
880.732	22120
880.859	22280
880.986	22158
881.112	22150
881.239	21975
881.366	21835
881.493	21686
881.619	21701
881.746	21663
881.872	21595
881.999	21641
882.125	21553
882.252	21580
882.378	21610
882.505	21922
882.631	21652
882.757	21302
882.883	21443
883.01	21450
883.136	21275
883.262	21332
883.388	21294
883.514	21386
883.64	21428
883.766	21256
883.892	21222
884.018	21241
884.143	21310
884.269	21424
884.395	21077
884.52	20998
884.646	21058
884.772	20899
884.897	20906
885.023	20986
885.148	21119
885.274	21127
885.399	21169
885.524	20986
885.65	21070
885.775	21081
885.9	20979
886.025	21089
886.15	21096
886.275	20906
886.4	20990
886.525	20956
886.65	20754
886.775	20811
886.9	21081
887.025	21279
887.149	21112
887.274	20948
887.399	20788
887.523	20712
887.648	20727
887.773	20682
887.897	20807
888.021	20804
888.146	20777
888.27	20864
888.395	20792
888.519	20811
888.643	20796
888.767	20834
888.891	20739
889.015	20495
889.139	20514
889.263	20533
889.387	20674
889.511	20663
889.635	20682
889.759	20602
889.883	20613
890.006	20564
890.13	20454
890.254	20503
890.377	20442
890.501	20450
890.624	20358
890.748	20248
890.871	20187
890.995	20073
891.118	20027
891.241	20138
891.364	20176
891.488	20252
891.611	20214
891.734	20161
891.857	20282
891.98	20191
892.103	20233
892.226	20100
892.349	20180
892.471	19993
892.594	20111
892.717	20130
892.839	20065
892.962	19993
893.085	20096
893.207	19963
893.33	19947
893.452	20020
893.575	20092
893.697	19883
893.819	20317
893.941	20278
894.064	20195
894.186	19974
894.308	19936
894.43	20088
894.552	20202
894.674	20202
894.796	19993
894.918	19978
895.04	20020
895.161	20073
895.283	20237
895.405	19997
895.526	20145
895.648	20020
895.769	20062
895.891	20138
896.012	20252
896.134	20115
896.255	20115
896.376	20020
896.498	20039
896.619	20119
896.74	20130
896.861	20020
896.982	20396
897.103	20438
897.224	20317
897.345	20324
897.466	20248
897.587	20134
897.708	20370
897.828	20180
897.949	20229
898.07	20062
898.19	20168
898.311	20332
898.431	20244
898.552	20290
898.672	20313
898.792	20237
898.913	20347
899.033	20142
899.153	20062
899.273	20001
899.393	20077
899.513	20092
899.633	19967
899.753	20024
899.873	19936
899.993	20058
900.113	20001
900.232	20122
900.352	19894
900.472	19750
900.591	19803
900.711	19830
900.83	19799
900.95	19917
901.069	19898
901.189	19685
901.308	19540
901.427	19407
901.546	19384
901.665	19438
901.784	19430
901.904	19240
902.023	19103
902.141	18901
902.26	18977
902.379	18928
902.498	18825
902.617	18935
902.735	18897
902.854	18894
902.973	18837
903.091	18570
903.21	18559
903.328	18517
903.446	18471
903.565	18369
903.683	18426
903.801	18437
903.919	18304
904.038	18350
904.156	18133
904.274	18178
904.392	18117
904.51	18003
904.627	17954
904.745	18247
904.863	18125
904.981	17984
905.098	17851
905.216	17836
905.334	17939
905.451	17828
905.569	17657
905.686	17775
905.803	17764
905.921	17661
906.038	17707
906.155	17642
906.272	17551
906.389	17539
906.506	17231
906.623	17379
906.74	17330
906.857	17239
906.974	17227
907.091	17410
907.208	17414
907.324	17433
907.441	17334
907.557	17105
907.674	17166
907.79	16965
907.907	17037
908.023	17067
908.139	17056
908.256	16949
908.372	16961
908.488	16961
908.604	16843
908.72	16862
908.836	16816
908.952	16793
909.068	16831
909.184	16923
909.3	16713
909.415	16736
909.531	16698
909.647	16569
909.762	16569
909.878	16504
909.993	16485
910.108	16424
910.224	16386
910.339	16455
910.454	16371
910.57	16386
910.685	16204
910.8	16550
910.915	16485
911.03	16322
911.145	16150
911.259	16055
911.374	16211
911.489	16040
911.604	16002
911.718	15785
911.833	15743
911.947	15759
912.062	15591
912.176	15808
912.291	15838
912.405	15876
912.519	16017
912.633	16040
912.748	15865
912.862	15835
912.976	15660
913.09	15481
913.204	15652
913.318	15523
913.431	15743
913.545	15816
913.659	15728
913.772	15622
913.886	15485
914	15450
914.113	15431
914.226	15545
914.34	15466
914.453	15344
914.566	15424
914.68	15374
914.793	15279
914.906	15093
915.019	15138
915.132	15062
915.245	15066
915.358	15135
915.47	15062
915.583	15043
915.696	15024
915.809	15226
915.921	15188
916.034	15017
916.146	14971
916.259	14937
916.371	15017
916.483	15108
916.595	14853
916.708	14906
916.82	14845
916.932	14773
917.044	14845
917.156	14788
917.268	14667
917.38	14667
917.491	14693
917.603	14746
917.715	14853
917.826	14746
917.938	14560
918.049	14473
918.161	14636
918.272	14811
918.384	14804
918.495	14579
918.606	14454
918.717	14434
918.828	14450
918.939	14480
919.05	14343
919.161	14473
919.272	14343
919.383	14252
919.494	14454
919.604	14727
919.715	14476
919.826	14332
919.936	14438
920.047	14530
920.157	14450
920.267	14655
920.378	14427
920.488	14415
920.598	14606
920.708	14663
920.818	14530
920.928	14541
921.038	14724
921.148	14636
921.258	14412
921.368	14267
921.477	14168
921.587	14233
921.697	14062
921.806	14191
921.916	14031
922.025	13909
922.134	13845
922.244	13795
922.353	13890
922.462	13731
922.571	13655
922.68	13487
922.789	13468
922.898	13415
923.007	13339
923.116	13476
923.224	13472
923.333	13384
923.442	13270
923.55	13221
923.659	13289
923.767	13362
923.876	13232
923.984	13381
924.092	13164
924.201	13244
924.309	13179
924.417	13240
924.525	13050
924.633	13183
924.741	13845
924.849	12951
924.956	13042
925.064	12859
925.172	12829
925.279	12833
925.387	12840
925.494	12882
925.602	12985
925.709	12947
925.816	12882
925.924	12871
926.031	12871
926.138	12863
926.245	12897
926.352	12738
926.459	12878
926.566	12932
926.673	12791
926.779	12593
926.886	12635
926.993	12513
927.099	12407
927.206	12376
927.312	12365
927.419	12471
927.525	12494
927.631	12456
927.737	12323
927.843	12239
927.95	12232
928.056	12292
928.162	12258
928.267	12346
928.373	12928
928.479	12232
928.585	12102
928.69	12270
928.796	12289
928.901	12121
929.007	11931
929.112	12251
929.218	12159
929.323	12053
929.428	12041
929.533	12125
929.638	11935
929.743	11958
929.848	11984
929.953	11916
930.058	11824
930.163	11638
930.267	11699
930.372	11878
930.477	11672
930.581	11897
930.685	11703
930.79	11573
930.894	11566
930.998	11505
931.103	11676
931.207	11273
931.311	11231
931.415	11140
931.519	10927
931.623	10885
