Data from test_V78500241_935.txt Node
Date: Fri Mar 25 15:16:22 CST 2022
User: usil
Spectrometer: V785-0024
Trigger mode: 0
Integration Time (sec): 4.000000E-1
Scans to average: 1
Nonlinearity correction enabled: false
Boxcar width: 0
Storing dark spectrum: false
XAxis mode: Wavelengths
Number of Pixels in Spectrum: 1024
>>>>>Begin Spectral Data<<<<<
801.071	27736
801.214	27671
801.356	27431
801.499	27348
801.641	27359
801.783	27363
801.926	27401
802.068	27325
802.211	27283
802.353	27211
802.496	27009
802.638	26971
802.78	26819
802.923	26990
803.065	27001
803.208	26864
803.35	27051
803.492	27070
803.635	26975
803.777	27176
803.919	27207
804.061	27420
804.204	27165
804.346	26982
804.488	27020
804.63	27131
804.773	27161
804.915	27226
805.057	27264
805.199	27096
805.341	27195
805.483	27268
805.626	27222
805.768	27081
805.91	27146
806.052	27294
806.194	27325
806.336	27424
806.478	27249
806.62	27294
806.762	27439
806.904	27606
807.046	27759
807.188	27743
807.33	27656
807.472	27808
807.614	27625
807.756	27713
807.898	27496
808.04	27629
808.182	27450
808.324	27549
808.465	27519
808.607	27880
808.749	27865
808.891	27949
809.033	28219
809.174	28006
809.316	27911
809.458	27808
809.6	27949
809.741	28147
809.883	27987
810.025	28234
810.166	28166
810.308	28188
810.45	28215
810.591	28025
810.733	27873
810.875	27979
811.016	27884
811.158	27816
811.299	27888
811.441	28048
811.582	28086
811.724	27755
811.865	27850
812.007	27865
812.148	28010
812.29	27911
812.431	28188
812.573	28162
812.714	28382
812.855	28322
812.997	28424
813.138	28694
813.279	28675
813.421	28447
813.562	28382
813.703	28291
813.845	28238
813.986	27888
814.127	27823
814.268	27625
814.41	27530
814.551	27633
814.692	27724
814.833	27614
814.974	27500
815.115	27572
815.256	27443
815.397	27545
815.539	27416
815.68	27367
815.821	27397
815.962	27466
816.103	27348
816.244	27336
816.385	27199
816.526	27203
816.666	27119
816.807	26933
816.948	26883
817.089	27074
817.23	27047
817.371	27024
817.512	26883
817.653	26880
817.793	26910
817.934	26834
818.075	27017
818.216	27005
818.356	26769
818.497	26769
818.638	26708
818.778	26731
818.919	26659
819.06	26762
819.2	26899
819.341	26868
819.481	27013
819.622	27032
819.762	27279
819.903	27279
820.043	27138
820.184	27074
820.324	26899
820.465	27138
820.605	26975
820.746	27047
820.886	26868
821.026	26948
821.167	27066
821.307	27013
821.447	27013
821.588	26708
821.728	26777
821.868	26419
822.008	26374
822.149	26396
822.289	26415
822.429	26263
822.569	26122
822.709	26031
822.849	25902
822.99	26069
823.13	25982
823.27	25837
823.41	25658
823.55	25529
823.69	25833
823.83	25723
823.97	25788
824.11	25548
824.25	25582
824.389	25506
824.529	25635
824.669	25529
824.809	25609
824.949	25651
825.089	25632
825.228	25662
825.368	25327
825.508	25346
825.648	25499
825.787	25369
825.927	25479
826.067	25354
826.206	25304
826.346	25430
826.485	25472
826.625	25411
826.765	25548
826.904	25491
827.044	25236
827.183	25198
827.323	25080
827.462	25126
827.601	25061
827.741	25015
827.88	25137
828.02	25095
828.159	25183
828.298	25141
828.437	25194
828.577	25118
828.716	25213
828.855	25065
828.994	24749
829.134	24882
829.273	24817
829.412	24703
829.551	24795
829.69	24848
829.829	24802
829.968	24928
830.107	24795
830.246	24875
830.385	24757
830.524	24677
830.663	24677
830.802	24547
830.941	24361
831.08	24422
831.219	24532
831.357	24540
831.496	24582
831.635	24361
831.774	24418
831.913	24342
832.051	24216
832.19	24205
832.329	24391
832.467	24110
832.606	24186
832.744	24155
832.883	24152
833.022	24095
833.16	24034
833.299	24194
833.437	24159
833.576	24167
833.714	24228
833.852	24228
833.991	24190
834.129	24281
834.267	24190
834.406	24262
834.544	24197
834.682	24186
834.821	24285
834.959	24308
835.097	24129
835.235	24239
835.373	24167
835.511	24311
835.65	23984
835.788	24022
835.926	23958
836.064	23714
836.202	23832
836.34	23946
836.478	24049
836.615	23984
836.753	24053
836.891	24243
837.029	24015
837.167	23996
837.305	23942
837.443	23813
837.58	23863
837.718	23885
837.856	23874
837.993	23813
838.131	23745
838.269	23767
838.406	23722
838.544	23627
838.681	23577
838.819	23535
838.956	23376
839.094	23391
839.231	23417
839.369	23619
839.506	23684
839.643	23531
839.781	23292
839.918	23261
840.055	23265
840.193	23296
840.33	23216
840.467	23170
840.604	23322
840.742	23592
840.879	23128
841.016	23277
841.153	23223
841.29	23364
841.427	23284
841.564	23322
841.701	23162
841.838	23235
841.975	23185
842.112	23166
842.249	23109
842.385	23044
842.522	23174
842.659	22976
842.796	23006
842.933	22991
843.069	22873
843.206	22938
843.343	23121
843.479	22938
843.616	23033
843.752	22763
843.889	22725
844.025	22991
844.162	22889
844.298	22999
844.435	22771
844.571	22748
844.708	22869
844.844	23014
844.98	22881
845.117	22850
845.253	22660
845.389	22630
845.525	22713
845.661	22603
845.798	22436
845.934	22519
846.07	22516
846.206	22519
846.342	22679
846.478	22504
846.614	22360
846.75	22246
846.886	22249
847.022	22356
847.158	22238
847.294	22276
847.429	22306
847.565	22139
847.701	22523
847.837	21979
847.972	22112
848.108	22067
848.244	22010
848.379	21865
848.515	21842
848.65	21827
848.786	21835
848.921	21778
849.057	21934
849.192	22044
849.328	21861
849.463	21789
849.598	21743
849.734	21682
849.869	21637
850.004	21690
850.14	21762
850.275	21713
850.41	21656
850.545	21660
850.68	21515
850.815	21682
850.95	21694
851.085	21739
851.22	21713
851.355	21500
851.49	21610
851.625	21644
851.76	21530
851.895	21557
852.03	21481
852.165	21637
852.299	21583
852.434	21572
852.569	21667
852.703	21641
852.838	21778
852.973	21880
853.107	21732
853.242	21576
853.376	21431
853.511	21424
853.645	21424
853.78	21667
853.914	21447
854.048	21405
854.183	21397
854.317	21481
854.451	21564
854.585	21454
854.72	21332
854.854	21507
854.988	21374
855.122	21439
855.256	21287
855.39	21477
855.524	21466
855.658	21595
855.792	21545
855.926	21466
856.06	21492
856.194	21507
856.327	21389
856.461	21321
856.595	21450
856.729	21367
856.862	21504
856.996	21481
857.13	21477
857.263	21576
857.397	21469
857.53	21477
857.664	21435
857.797	21439
857.931	21542
858.064	21458
858.197	21553
858.331	21291
858.464	21336
858.597	21237
858.731	21447
858.864	21355
858.997	21431
859.13	21428
859.263	21454
859.396	21500
859.529	21454
859.662	21313
859.795	21336
859.928	21386
860.061	21618
860.194	21576
860.327	21443
860.46	21473
860.592	21526
860.725	21644
860.858	21534
860.99	21439
861.123	21439
861.256	21336
861.388	21439
861.521	22059
861.653	21275
861.786	21252
861.918	21230
862.05	21329
862.183	21359
862.315	21370
862.447	21435
862.58	21397
862.712	21188
862.844	21085
862.976	21165
863.108	21275
863.24	21435
863.372	21039
863.504	21138
863.636	21157
863.768	21093
863.9	21226
864.032	21085
864.164	21070
864.296	21154
864.428	21184
864.559	21146
864.691	21192
864.823	21157
864.954	21150
865.086	21074
865.217	21036
865.349	21013
865.48	21058
865.612	20998
865.743	21169
865.875	21058
866.006	20925
866.137	21093
866.269	21020
866.4	20899
866.531	20960
866.662	20868
866.793	20979
866.924	20986
867.055	21009
867.186	20902
867.317	20960
867.448	20861
867.579	20887
867.71	20811
867.841	20952
867.972	21005
868.103	20937
868.233	20895
868.364	21020
868.495	21028
868.625	21108
868.756	21287
868.886	21150
869.017	21252
869.147	21348
869.278	21279
869.408	21317
869.539	21192
869.669	21424
869.799	21249
869.929	21382
870.06	21348
870.19	21428
870.32	21382
870.45	21564
870.58	21633
870.71	21736
870.84	21690
870.97	21610
871.1	21667
871.23	21739
871.36	21800
871.489	21690
871.619	21701
871.749	21755
871.879	21899
872.008	21937
872.138	21698
872.267	21743
872.397	21660
872.526	21656
872.656	21671
872.785	21610
872.915	21778
873.044	21918
873.173	21827
873.303	21789
873.432	21838
873.561	21892
873.69	21918
873.819	21884
873.948	21842
874.077	21865
874.206	21709
874.335	21865
874.464	21987
874.593	21926
874.722	22025
874.851	22067
874.979	22017
875.108	22059
875.237	21937
875.365	21926
875.494	21968
875.623	22124
875.751	22040
875.88	22010
876.008	22086
876.136	22204
876.265	22363
876.393	22611
876.521	22523
876.65	22546
876.778	22413
876.906	22287
877.034	22318
877.162	22417
877.29	22249
877.418	22481
877.546	22333
877.674	22329
877.802	22310
877.93	22341
878.058	22379
878.185	22204
878.313	22417
878.441	22470
878.568	22272
878.696	22348
878.824	22303
878.951	22500
879.079	22588
879.206	22618
879.333	22451
879.461	22386
879.588	22508
879.715	22561
879.842	22596
879.97	22546
880.097	22169
880.224	22223
880.351	22287
880.478	22234
880.605	22185
880.732	22185
880.859	22390
880.986	22158
881.112	22234
881.239	22086
881.366	21937
881.493	21819
881.619	21842
881.746	21888
881.872	21812
881.999	21819
882.125	21755
882.252	21816
882.378	21781
882.505	21797
882.631	21705
882.757	21466
882.883	21652
883.01	21450
883.136	21500
883.262	21370
883.388	21374
883.514	21538
883.64	21447
883.766	21500
883.892	21146
884.018	21294
884.143	21317
884.269	21435
884.395	21157
884.52	21119
884.646	21203
884.772	21051
884.897	20982
885.023	21024
885.148	21233
885.274	21317
885.399	21275
885.524	21135
885.65	21154
885.775	21135
885.9	21074
886.025	21272
886.15	21165
886.275	20990
886.4	20899
886.525	21173
886.65	21013
886.775	21009
886.9	21154
887.025	21348
887.149	21039
887.274	20921
887.399	20872
887.523	20944
887.648	20864
887.773	20902
887.897	20864
888.021	20963
888.146	20887
888.27	20941
888.395	21032
888.519	21009
888.643	20937
888.767	20895
888.891	20758
889.015	20689
889.139	20788
889.263	20640
889.387	20842
889.511	20933
889.635	20811
889.759	20651
889.883	20705
890.006	20613
890.13	20632
890.254	20606
890.377	20568
890.501	20427
890.624	20374
890.748	20549
890.871	20328
890.995	20225
891.118	20153
891.241	20290
891.364	20237
891.488	20244
891.611	20332
891.734	20145
891.857	20240
891.98	20233
892.103	20358
892.226	20339
892.349	20214
892.471	20050
892.594	20119
892.717	20199
892.839	20100
892.962	20103
893.085	20168
893.207	20115
893.33	20157
893.452	20081
893.575	20210
893.697	20088
893.819	20256
893.941	20328
894.064	20294
894.186	20103
894.308	20035
894.43	20202
894.552	20286
894.674	20271
894.796	20031
894.918	20164
895.04	20142
895.161	20240
895.283	20221
895.405	19997
895.526	20256
895.648	20092
895.769	20145
895.891	20229
896.012	20317
896.134	20111
896.255	20233
896.376	20122
896.498	20149
896.619	20111
896.74	20100
896.861	20282
896.982	20438
897.103	20670
897.224	20503
897.345	20423
897.466	20256
897.587	20393
897.708	20404
897.828	20454
897.949	20362
898.07	20286
898.19	20305
898.311	20454
898.431	20374
898.552	20271
898.672	20484
898.792	20385
898.913	20355
899.033	20221
899.153	20122
899.273	20100
899.393	20043
899.513	20073
899.633	20180
899.753	20122
899.873	20062
899.993	20176
900.113	20054
900.232	20092
900.352	20130
900.472	19970
900.591	19776
900.711	19947
900.83	19982
900.95	19917
901.069	19845
901.189	19776
901.308	19635
901.427	19495
901.546	19491
901.665	19548
901.784	19529
901.904	19255
902.023	19263
902.141	19126
902.26	18954
902.379	19084
902.498	18985
902.617	18989
902.735	19004
902.854	18966
902.973	18840
903.091	18760
903.21	18631
903.328	18540
903.446	18544
903.565	18540
903.683	18525
903.801	18327
903.919	18407
904.038	18429
904.156	18178
904.274	18441
904.392	18369
904.51	18121
904.627	18235
904.745	18448
904.863	18292
904.981	18015
905.098	17859
905.216	17927
905.334	18049
905.451	17977
905.569	17836
905.686	17961
905.803	17878
905.921	17726
906.038	17805
906.155	17741
906.272	17592
906.389	17581
906.506	17425
906.623	17516
906.74	17307
906.857	17356
906.974	17345
907.091	17634
907.208	17630
907.324	17528
907.441	17326
907.557	17200
907.674	17086
907.79	17113
907.907	17064
908.023	17143
908.139	17132
908.256	17045
908.372	17060
908.488	17075
908.604	16949
908.72	16843
908.836	16938
908.952	16824
909.068	16934
909.184	17025
909.3	16869
909.415	16934
909.531	16881
909.647	16637
909.762	16519
909.878	16554
909.993	16615
910.108	16558
910.224	16550
910.339	16607
910.454	16432
910.57	16348
910.685	16341
910.8	16596
910.915	16535
911.03	16344
911.145	16261
911.259	16150
911.374	16181
911.489	16025
911.604	16025
911.718	16036
911.833	15964
911.947	15854
912.062	15698
912.176	15907
912.291	15854
912.405	15903
912.519	16131
912.633	16249
912.748	15873
912.862	15865
912.976	15800
913.09	15660
913.204	15701
913.318	15747
913.431	15876
913.545	15800
913.659	15827
913.772	15679
913.886	15587
914	15477
914.113	15576
914.226	15545
914.34	15606
914.453	15428
914.566	15496
914.68	15389
914.793	15401
914.906	15252
915.019	15207
915.132	15093
915.245	15047
915.358	15157
915.47	15176
915.583	15165
915.696	15123
915.809	15268
915.921	15245
916.034	15020
916.146	14982
916.259	14956
916.371	15142
916.483	15112
916.595	15001
916.708	14990
916.82	14994
916.932	14952
917.044	14960
917.156	14910
917.268	14769
917.38	14918
917.491	14849
917.603	14796
917.715	14918
917.826	14937
917.938	14689
918.049	14640
918.161	14724
918.272	14872
918.384	14864
918.495	14712
918.606	14648
918.717	14511
918.828	14636
918.939	14568
919.05	14495
919.161	14571
919.272	14423
919.383	14389
919.494	14552
919.604	14686
919.715	14473
919.826	14431
919.936	14499
920.047	14697
920.157	14454
920.267	14765
920.378	14537
920.488	14495
920.598	14674
920.708	14834
920.818	14644
920.928	14625
921.038	14735
921.148	14735
921.258	14377
921.368	14370
921.477	14286
921.587	14347
921.697	14043
921.806	14244
921.916	14187
922.025	13963
922.134	13944
922.244	13940
922.353	14027
922.462	13761
922.571	13727
922.68	13480
922.789	13582
922.898	13563
923.007	13525
923.116	13567
923.224	13590
923.333	13540
923.442	13400
923.55	13350
923.659	13362
923.767	13419
923.876	13324
923.984	13369
924.092	13209
924.201	13293
924.309	13324
924.417	13320
924.525	13213
924.633	13266
924.741	14103
924.849	12989
924.956	13149
925.064	12954
925.172	12939
925.279	12909
925.387	12989
925.494	12954
925.602	12970
925.709	13034
925.816	12779
925.924	12840
926.031	13012
926.138	12837
926.245	12981
926.352	12837
926.459	12966
926.566	12962
926.673	12768
926.779	12700
926.886	12719
926.993	12589
927.099	12597
927.206	12525
927.312	12441
927.419	12623
927.525	12486
927.631	12551
927.737	12414
927.843	12353
927.95	12247
928.056	12308
928.162	12304
928.267	12350
928.373	13004
928.479	12384
928.585	12144
928.69	12220
928.796	12342
928.901	12292
929.007	12106
929.112	12201
929.218	12152
929.323	12060
929.428	12049
929.533	12232
929.638	11961
929.743	12030
929.848	12087
929.953	11988
930.058	11866
930.163	11699
930.267	11843
930.372	11916
930.477	11695
930.581	11878
930.685	11832
930.79	11566
930.894	11649
930.998	11566
931.103	11790
931.207	11337
931.311	11421
931.415	11235
931.519	11037
931.623	10987
