Data from test_V78500241_191.txt Node
Date: Fri Mar 25 15:11:11 CST 2022
User: usil
Spectrometer: V785-0024
Trigger mode: 0
Integration Time (sec): 4.000000E-1
Scans to average: 1
Nonlinearity correction enabled: false
Boxcar width: 0
Storing dark spectrum: false
XAxis mode: Wavelengths
Number of Pixels in Spectrum: 1024
>>>>>Begin Spectral Data<<<<<
801.071	27865
801.214	27979
801.356	27580
801.499	27618
801.641	27553
801.783	27355
801.926	27526
802.068	27504
802.211	27469
802.353	27329
802.496	27127
802.638	27252
802.78	27146
802.923	27070
803.065	27036
803.208	26963
803.35	27211
803.492	27005
803.635	27237
803.777	27146
803.919	27351
804.061	27561
804.204	27222
804.346	27199
804.488	27135
804.63	27256
804.773	26937
804.915	27226
805.057	27351
805.199	27055
805.341	27226
805.483	27214
805.626	27348
805.768	27089
805.91	27214
806.052	27302
806.194	27237
806.336	27496
806.478	27077
806.62	27146
806.762	27348
806.904	27481
807.046	27736
807.188	27576
807.33	27732
807.472	27637
807.614	27606
807.756	27534
807.898	27538
808.04	27401
808.182	27496
808.324	27481
808.465	27504
808.607	27629
808.749	27652
808.891	27861
809.033	27823
809.174	27907
809.316	27793
809.458	27774
809.6	27838
809.741	27846
809.883	27964
810.025	28082
810.166	28025
810.308	28032
810.45	28013
810.591	27998
810.733	27831
810.875	27736
811.016	27618
811.158	27743
811.299	27698
811.441	27861
811.582	27686
811.724	27747
811.865	27629
812.007	27641
812.148	27682
812.29	27850
812.431	27918
812.573	28055
812.714	28040
812.855	28318
812.997	28337
813.138	28500
813.279	28268
813.421	28268
813.562	28280
813.703	28120
813.845	28074
813.986	27759
814.127	27507
814.268	27435
814.41	27504
814.551	27321
814.692	27500
814.833	27249
814.974	27241
815.115	27412
815.256	27218
815.397	27291
815.539	27131
815.68	27119
815.821	27024
815.962	27119
816.103	27165
816.244	26960
816.385	26967
816.526	26842
816.666	26731
816.807	26518
816.948	26594
817.089	26670
817.23	26575
817.371	26469
817.512	26682
817.653	26499
817.793	26511
817.934	26625
818.075	26469
818.216	26644
818.356	26473
818.497	26457
818.638	26214
818.778	26202
818.919	26358
819.06	26294
819.2	26347
819.341	26469
819.481	26339
819.622	26598
819.762	26899
819.903	26674
820.043	26705
820.184	26545
820.324	26590
820.465	26712
820.605	26495
820.746	26473
820.886	26461
821.026	26598
821.167	26632
821.307	26594
821.447	26648
821.588	26320
821.728	26351
821.868	26115
822.008	25913
822.149	25875
822.289	25986
822.429	25693
822.569	25738
822.709	25685
822.849	25464
822.99	25384
823.13	25365
823.27	25228
823.41	25187
823.55	25221
823.69	25251
823.83	25160
823.97	25129
824.11	25088
824.25	24992
824.389	25012
824.529	25095
824.669	24966
824.809	25129
824.949	25065
825.089	25209
825.228	24981
825.368	24738
825.508	24738
825.648	24886
825.787	24798
825.927	24875
826.067	24802
826.206	24764
826.346	24757
826.485	24894
826.625	24760
826.765	25012
826.904	24916
827.044	24570
827.183	24551
827.323	24418
827.462	24585
827.601	24509
827.741	24464
827.88	24479
828.02	24410
828.159	24346
828.298	24517
828.437	24456
828.577	24467
828.716	24555
828.855	24346
828.994	24258
829.134	24182
829.273	24388
829.412	24140
829.551	24133
829.69	24228
829.829	24167
829.968	24319
830.107	24254
830.246	24281
830.385	24095
830.524	24087
830.663	24034
830.802	23912
830.941	23855
831.08	23649
831.219	23840
831.357	23703
831.496	23950
831.635	23836
831.774	23752
831.913	23452
832.051	23478
832.19	23452
832.329	23501
832.467	23421
832.606	23429
832.744	23315
832.883	23471
833.022	23284
833.16	23444
833.299	23531
833.437	23486
833.576	23353
833.714	23490
833.852	23539
833.991	23436
834.129	23547
834.267	23505
834.406	23410
834.544	23619
834.682	23554
834.821	23402
834.959	23528
835.097	23368
835.235	23497
835.373	23448
835.511	23341
835.65	23277
835.788	23216
835.926	23083
836.064	23189
836.202	23064
836.34	23277
836.478	23376
836.615	23227
836.753	23261
836.891	23296
837.029	23311
837.167	23277
837.305	23109
837.443	23083
837.58	23204
837.718	23147
837.856	23094
837.993	23029
838.131	23155
838.269	22949
838.406	23006
838.544	22915
838.681	22771
838.819	22733
838.956	22542
839.094	22550
839.231	22634
839.369	22782
839.506	22927
839.643	22687
839.781	22466
839.918	22516
840.055	22725
840.193	22596
840.33	22386
840.467	22470
840.604	22367
840.742	22740
840.879	22409
841.016	22421
841.153	22249
841.29	22694
841.427	22489
841.564	22516
841.701	22356
841.838	22481
841.975	22341
842.112	22348
842.249	22147
842.385	22181
842.522	22405
842.659	22284
842.796	22162
842.933	22238
843.069	22131
843.206	22090
843.343	22063
843.479	22196
843.616	22181
843.752	21926
843.889	21941
844.025	22044
844.162	21945
844.298	22048
844.435	21895
844.571	22002
844.708	21991
844.844	22036
844.98	22086
845.117	22002
845.253	21895
845.389	21762
845.525	21804
845.661	21827
845.798	21732
845.934	21679
846.07	21595
846.206	21698
846.342	21736
846.478	21641
846.614	21545
846.75	21359
846.886	21321
847.022	21412
847.158	21344
847.294	21462
847.429	21431
847.565	21397
847.701	21629
847.837	21100
847.972	20975
848.108	21131
848.244	21180
848.379	21005
848.515	21066
848.65	20963
848.786	20929
848.921	20998
849.057	21100
849.192	21058
849.328	20979
849.463	21009
849.598	20971
849.734	20929
849.869	20754
850.004	20739
850.14	20712
850.275	20632
850.41	20606
850.545	20583
850.68	20701
850.815	20743
850.95	20644
851.085	20804
851.22	20735
851.355	20659
851.49	20484
851.625	20724
851.76	20716
851.895	20606
852.03	20522
852.165	20712
852.299	20720
852.434	20716
852.569	20568
852.703	20667
852.838	20689
852.973	20773
853.107	20830
853.242	20609
853.376	20461
853.511	20377
853.645	20450
853.78	20670
853.914	20594
854.048	20434
854.183	20412
854.317	20522
854.451	20693
854.585	20484
854.72	20465
854.854	20518
854.988	20393
855.122	20484
855.256	20374
855.39	20454
855.524	20594
855.658	20465
855.792	20503
855.926	20526
856.06	20594
856.194	20590
856.327	20431
856.461	20396
856.595	20457
856.729	20431
856.862	20568
856.996	20518
857.13	20526
857.263	20712
857.397	20609
857.53	20347
857.664	20621
857.797	20492
857.931	20583
858.064	20495
858.197	20613
858.331	20454
858.464	20358
858.597	20305
858.731	20415
858.864	20324
858.997	20362
859.13	20385
859.263	20476
859.396	20583
859.529	20431
859.662	20396
859.795	20317
859.928	20503
860.061	20629
860.194	20511
860.327	20621
860.46	20355
860.592	20568
860.725	20564
860.858	20511
860.99	20446
861.123	20305
861.256	20423
861.388	20343
861.521	21329
861.653	20511
861.786	20313
861.918	20347
862.05	20396
862.183	20434
862.315	20396
862.447	20590
862.58	20415
862.712	20214
862.844	20164
862.976	20282
863.108	20088
863.24	20499
863.372	20119
863.504	20111
863.636	20153
863.768	20164
863.9	20142
864.032	20157
864.164	20081
864.296	20092
864.428	20267
864.559	20168
864.691	20126
864.823	20199
864.954	20054
865.086	20077
865.217	20050
865.349	19986
865.48	20016
865.612	19997
865.743	20107
865.875	20012
866.006	20050
866.137	20054
866.269	20126
866.4	20062
866.531	20122
866.662	19909
866.793	20031
866.924	19871
867.055	19970
867.186	19986
867.317	19902
867.448	19951
867.579	19947
867.71	19887
867.841	19780
867.972	20012
868.103	19955
868.233	19997
868.364	20024
868.495	20100
868.625	20161
868.756	20305
868.886	20233
869.017	20221
869.147	20362
869.278	20408
869.408	20218
869.539	20229
869.669	20271
869.799	20286
869.929	20396
870.06	20381
870.19	20632
870.32	20484
870.45	20594
870.58	20712
870.71	20750
870.84	20792
870.97	20609
871.1	20613
871.23	20830
871.36	20792
871.489	20743
871.619	20788
871.749	20724
871.879	20857
872.008	20937
872.138	20792
872.267	20697
872.397	20693
872.526	20609
872.656	20625
872.785	20678
872.915	20731
873.044	20872
873.173	20781
873.303	20918
873.432	20952
873.561	20883
873.69	20971
873.819	20868
873.948	20956
874.077	20807
874.206	20823
874.335	20811
874.464	20876
874.593	21051
874.722	21024
874.851	21218
874.979	21112
875.108	21211
875.237	21005
875.365	20960
875.494	21001
875.623	21184
875.751	21062
875.88	21066
876.008	21203
876.136	21344
876.265	21443
876.393	21557
876.521	21458
876.65	21534
876.778	21500
876.906	21572
877.034	21401
877.162	21393
877.29	21378
877.418	21591
877.546	21435
877.674	21408
877.802	21401
877.93	21340
878.058	21420
878.185	21302
878.313	21557
878.441	21405
878.568	21363
878.696	21428
878.824	21504
878.951	21507
879.079	21648
879.206	21838
879.333	21671
879.461	21564
879.588	21481
879.715	21534
879.842	21682
879.97	21458
880.097	21329
880.224	21249
880.351	21317
880.478	21294
880.605	21325
880.732	21218
880.859	21496
880.986	21298
881.112	21272
881.239	21112
881.366	21009
881.493	20929
881.619	20838
881.746	20902
881.872	20819
881.999	20895
882.125	20830
882.252	20941
882.378	20895
882.505	20975
882.631	20636
882.757	20537
882.883	20682
883.01	20495
883.136	20499
883.262	20492
883.388	20381
883.514	20533
883.64	20568
883.766	20499
883.892	20381
884.018	20473
884.143	20450
884.269	20594
884.395	20320
884.52	20286
884.646	20218
884.772	20187
884.897	20134
885.023	20351
885.148	20347
885.274	20450
885.399	20282
885.524	20176
885.65	20240
885.775	20244
885.9	20267
886.025	20328
886.15	20298
886.275	20119
886.4	20084
886.525	20233
886.65	20214
886.775	20153
886.9	20267
887.025	20495
887.149	20282
887.274	20008
887.399	20050
887.523	19970
887.648	19906
887.773	19887
887.897	19997
888.021	20043
888.146	19917
888.27	20001
888.395	20069
888.519	20134
888.643	20024
888.767	20024
888.891	19986
889.015	19765
889.139	19902
889.263	19761
889.387	19902
889.511	19963
889.635	19879
889.759	19776
889.883	19666
890.006	19753
890.13	19902
890.254	19715
890.377	19666
890.501	19521
890.624	19521
890.748	19635
890.871	19540
890.995	19453
891.118	19331
891.241	19343
891.364	19426
891.488	19419
891.611	19396
891.734	19308
891.857	19403
891.98	19426
892.103	19415
892.226	19381
892.349	19259
892.471	19118
892.594	19270
892.717	19320
892.839	19236
892.962	19327
893.085	19240
893.207	19327
893.33	19251
893.452	19164
893.575	19327
893.697	19266
893.819	19457
893.941	19460
894.064	19472
894.186	19156
894.308	19209
894.43	19373
894.552	19453
894.674	19335
894.796	19232
894.918	19244
895.04	19282
895.161	19285
895.283	19384
895.405	19297
895.526	19438
895.648	19263
895.769	19324
895.891	19415
896.012	19343
896.134	19339
896.255	19331
896.376	19365
896.498	19320
896.619	19422
896.74	19327
896.861	19430
896.982	19784
897.103	19769
897.224	19685
897.345	19590
897.466	19552
897.587	19521
897.708	19624
897.828	19556
897.949	19651
898.07	19407
898.19	19529
898.311	19666
898.431	19384
898.552	19438
898.672	19578
898.792	19620
898.913	19597
899.033	19422
899.153	19407
899.273	19202
899.393	19259
899.513	19476
899.633	19194
899.753	19263
899.873	19164
899.993	19297
900.113	19129
900.232	19255
900.352	19164
900.472	19141
900.591	19008
900.711	19091
900.83	19023
900.95	19019
901.069	19084
901.189	19046
901.308	18738
901.427	18669
901.546	18642
901.665	18684
901.784	18753
901.904	18532
902.023	18426
902.141	18235
902.26	18228
902.379	18281
902.498	18163
902.617	18152
902.735	18247
902.854	18068
902.973	18034
903.091	17794
903.21	17866
903.328	17760
903.446	17752
903.565	17562
903.683	17665
903.801	17478
903.919	17726
904.038	17532
904.156	17524
904.274	17471
904.392	17429
904.51	17509
904.627	17463
904.745	17444
904.863	17566
904.981	17117
905.098	17117
905.216	17033
905.334	17193
905.451	16984
905.569	17014
905.686	17060
905.803	17014
905.921	16919
906.038	16927
906.155	16946
906.272	16782
906.389	16828
906.506	16565
906.623	16649
906.74	16592
906.857	16432
906.974	16554
907.091	16656
907.208	16843
907.324	16664
907.441	16584
907.557	16417
907.674	16474
907.79	16310
907.907	16226
908.023	16481
908.139	16394
908.256	16276
908.372	16112
908.488	16097
908.604	16021
908.72	16040
908.836	15998
908.952	16040
909.068	16063
909.184	16109
909.3	16059
909.415	16139
909.531	16021
909.647	15857
909.762	15759
909.878	15770
909.993	15720
910.108	15705
910.224	15709
910.339	15713
910.454	15724
910.57	15587
910.685	15466
910.8	15835
910.915	15641
911.03	15526
911.145	15363
911.259	15184
911.374	15355
911.489	15268
911.604	15176
911.718	15028
911.833	15009
911.947	15005
912.062	14941
912.176	15017
912.291	15081
912.405	15013
912.519	15218
912.633	15176
912.748	15142
912.862	15093
912.976	14872
913.09	14792
913.204	14891
913.318	14811
913.431	14921
913.545	14948
913.659	15055
913.772	14895
913.886	14705
914	14648
914.113	14849
914.226	14823
914.34	14727
914.453	14568
914.566	14781
914.68	14571
914.793	14590
914.906	14343
915.019	14320
915.132	14294
915.245	14267
915.358	14374
915.47	14374
915.583	14347
915.696	14434
915.809	14438
915.921	14476
916.034	14286
916.146	14301
916.259	14195
916.371	14286
916.483	14275
916.595	14103
916.708	14195
916.82	14225
916.932	14164
917.044	14191
917.156	14119
917.268	14077
917.38	14046
917.491	14008
917.603	14130
917.715	14039
917.826	14142
917.938	13974
918.049	13757
918.161	13967
918.272	14134
918.384	14069
918.495	14031
918.606	13852
918.717	13765
918.828	13864
918.939	13769
919.05	13662
919.161	13750
919.272	13613
919.383	13689
919.494	13833
919.604	14020
919.715	13753
919.826	13715
919.936	13772
920.047	13894
920.157	13738
920.267	13913
920.378	13666
920.488	13795
920.598	13875
920.708	14046
920.818	13811
920.928	13986
921.038	14054
921.148	13997
921.258	13655
921.368	13601
921.477	13480
921.587	13441
921.697	13362
921.806	13483
921.916	13426
922.025	13251
922.134	13141
922.244	13114
922.353	13179
922.462	13023
922.571	12924
922.68	12852
922.789	12825
922.898	12882
923.007	12658
923.116	12776
923.224	12745
923.333	12654
923.442	12585
923.55	12639
923.659	12696
923.767	12650
923.876	12631
923.984	12635
924.092	12589
924.201	12532
924.309	12582
924.417	12490
924.525	12460
924.633	12475
924.741	13316
924.849	12357
924.956	12437
925.064	12247
925.172	12224
925.279	12178
925.387	12262
925.494	12205
925.602	12399
925.709	12243
925.816	12209
925.924	12110
926.031	12388
926.138	12209
926.245	12235
926.352	12087
926.459	12243
926.566	12308
926.673	12095
926.779	12007
926.886	12030
926.993	11878
927.099	11866
927.206	11695
927.312	11737
927.419	11870
927.525	11809
927.631	11828
927.737	11798
927.843	11676
927.95	11474
928.056	11653
928.162	11668
928.267	11661
928.373	12251
928.479	11710
928.585	11520
928.69	11718
928.796	11604
928.901	11532
929.007	11429
929.112	11566
929.218	11444
929.323	11455
929.428	11398
929.533	11448
929.638	11315
929.743	11334
929.848	11421
929.953	11349
930.058	11265
930.163	11147
930.267	11083
930.372	11277
930.477	11090
930.581	11296
930.685	11124
930.79	11003
930.894	10976
930.998	10919
931.103	11105
931.207	10839
931.311	10656
931.415	10588
931.519	10337
931.623	10360
