Data from test_V78500241_914.txt Node
Date: Fri Mar 25 15:16:13 CST 2022
User: usil
Spectrometer: V785-0024
Trigger mode: 0
Integration Time (sec): 4.000000E-1
Scans to average: 1
Nonlinearity correction enabled: false
Boxcar width: 0
Storing dark spectrum: false
XAxis mode: Wavelengths
Number of Pixels in Spectrum: 1024
>>>>>Begin Spectral Data<<<<<
801.071	28147
801.214	28116
801.356	27975
801.499	27812
801.641	27663
801.783	27720
801.926	27724
802.068	27519
802.211	27591
802.353	27561
802.496	27439
802.638	27454
802.78	27317
802.923	27294
803.065	27458
803.208	27374
803.35	27275
803.492	27450
803.635	27420
803.777	27526
803.919	27519
804.061	27941
804.204	27568
804.346	27485
804.488	27454
804.63	27477
804.773	27504
804.915	27443
805.057	27720
805.199	27629
805.341	27682
805.483	27694
805.626	27728
805.768	27587
805.91	27789
806.052	27667
806.194	27705
806.336	28021
806.478	27736
806.62	27774
806.762	27766
806.904	28002
807.046	28124
807.188	28192
807.33	28032
807.472	28078
807.614	28112
807.756	28093
807.898	27922
808.04	27994
808.182	28006
808.324	27941
808.465	27972
808.607	28299
808.749	28253
808.891	28398
809.033	28443
809.174	28519
809.316	28367
809.458	28272
809.6	28314
809.741	28630
809.883	28489
810.025	28538
810.166	28683
810.308	28797
810.45	28580
810.591	28481
810.733	28299
810.875	28401
811.016	28337
811.158	28299
811.299	28474
811.441	28466
811.582	28417
811.724	28466
811.865	28394
812.007	28325
812.148	28443
812.29	28341
812.431	28611
812.573	28729
812.714	28824
812.855	28771
812.997	28938
813.138	29174
813.279	29113
813.421	28972
813.562	28869
813.703	28694
813.845	28577
813.986	28356
814.127	28181
814.268	28162
814.41	28090
814.551	28040
814.692	28162
814.833	27956
814.974	28074
815.115	28109
815.256	27907
815.397	27949
815.539	28006
815.68	27941
815.821	27888
815.962	28055
816.103	27774
816.244	27831
816.385	27652
816.526	27694
816.666	27496
816.807	27344
816.948	27526
817.089	27523
817.23	27549
817.371	27336
817.512	27511
817.653	27416
817.793	27416
817.934	27420
818.075	27416
818.216	27450
818.356	27473
818.497	27245
818.638	27184
818.778	27199
818.919	27268
819.06	27272
819.2	27279
819.341	27306
819.481	27401
819.622	27466
819.762	27705
819.903	27572
820.043	27545
820.184	27511
820.324	27473
820.465	27507
820.605	27363
820.746	27401
820.886	27298
821.026	27488
821.167	27485
821.307	27466
821.447	27473
821.588	27321
821.728	27230
821.868	26986
822.008	26887
822.149	26975
822.289	26792
822.429	26590
822.569	26537
822.709	26632
822.849	26434
822.99	26305
823.13	26336
823.27	26336
823.41	26271
823.55	26100
823.69	26138
823.83	26153
823.97	26240
824.11	26062
824.25	25974
824.389	26062
824.529	26122
824.669	26176
824.809	26096
824.949	26161
825.089	26130
825.228	26065
825.368	25909
825.508	25883
825.648	25841
825.787	25925
825.927	25951
826.067	25807
826.206	25868
826.346	26043
826.485	25947
826.625	25940
826.765	26031
826.904	25875
827.044	25616
827.183	25582
827.323	25651
827.462	25632
827.601	25693
827.741	25533
827.88	25639
828.02	25586
828.159	25670
828.298	25616
828.437	25693
828.577	25548
828.716	25662
828.855	25460
828.994	25346
829.134	25362
829.273	25400
829.412	25289
829.551	25274
829.69	25217
829.829	25301
829.968	25506
830.107	25487
830.246	25225
830.385	25194
830.524	25160
830.663	24920
830.802	25023
830.941	25004
831.08	24821
831.219	25065
831.357	24928
831.496	25171
831.635	24886
831.774	24814
831.913	24757
832.051	24688
832.19	24734
832.329	24730
832.467	24551
832.606	24574
832.744	24616
832.883	24616
833.022	24566
833.16	24661
833.299	24684
833.437	24528
833.576	24719
833.714	24665
833.852	24726
833.991	24741
834.129	24833
834.267	24798
834.406	24715
834.544	24669
834.682	24703
834.821	24650
834.959	24875
835.097	24700
835.235	24738
835.373	24677
835.511	24559
835.65	24509
835.788	24574
835.926	24342
836.064	24224
836.202	24365
836.34	24437
836.478	24673
836.615	24426
836.753	24570
836.891	24627
837.029	24650
837.167	24460
837.305	24601
837.443	24380
837.58	24342
837.718	24426
837.856	24155
837.993	24239
838.131	24258
838.269	24273
838.406	24190
838.544	24178
838.681	24034
838.819	24007
838.956	23786
839.094	23680
839.231	23752
839.369	24098
839.506	24133
839.643	24125
839.781	23847
839.918	23703
840.055	23805
840.193	23870
840.33	23771
840.467	23703
840.604	23783
840.742	24011
840.879	23562
841.016	23714
841.153	23707
841.29	23741
841.427	23733
841.564	23767
841.701	23623
841.838	23687
841.975	23585
842.112	23551
842.249	23589
842.385	23410
842.522	23771
842.659	23497
842.796	23482
842.933	23421
843.069	23566
843.206	23512
843.343	23543
843.479	23531
843.616	23493
843.752	23318
843.889	23151
844.025	23455
844.162	23162
844.298	23318
844.435	23239
844.571	23258
844.708	23318
844.844	23421
844.98	23410
845.117	23334
845.253	23284
845.389	23159
845.525	23113
845.661	23174
845.798	23003
845.934	23003
846.07	23006
846.206	23025
846.342	23117
846.478	23003
846.614	22828
846.75	22618
846.886	22694
847.022	22752
847.158	22702
847.294	22736
847.429	22698
847.565	22706
847.701	22980
847.837	22462
847.972	22436
848.108	22554
848.244	22390
848.379	22382
848.515	22169
848.65	22303
848.786	22325
848.921	22268
849.057	22333
849.192	22409
849.328	22390
849.463	22394
849.598	22238
849.734	22169
849.869	22234
850.004	21983
850.14	22017
850.275	21998
850.41	22078
850.545	22025
850.68	22051
850.815	22109
850.95	22010
851.085	22192
851.22	22177
851.355	22158
851.49	22063
851.625	22143
851.76	21987
851.895	21972
852.03	21956
852.165	22051
852.299	22055
852.434	22150
852.569	22090
852.703	22006
852.838	22169
852.973	22253
853.107	22261
853.242	21975
853.376	21945
853.511	21930
853.645	21713
853.78	21964
853.914	21892
854.048	21873
854.183	21861
854.317	21819
854.451	22067
854.585	21907
854.72	21838
854.854	21949
854.988	21842
855.122	21960
855.256	21770
855.39	21888
855.524	21876
855.658	22040
855.792	21869
855.926	22006
856.06	21979
856.194	21873
856.327	21857
856.461	21766
856.595	21819
856.729	21937
856.862	22025
856.996	21899
857.13	21975
857.263	22029
857.397	22036
857.53	21861
857.664	21926
857.797	22036
857.931	21994
858.064	21991
858.197	21998
858.331	21797
858.464	21720
858.597	21739
858.731	21857
858.864	21770
858.997	21861
859.13	21854
859.263	21949
859.396	21975
859.529	21781
859.662	21797
859.795	21816
859.928	21819
860.061	22032
860.194	22063
860.327	21888
860.46	21945
860.592	22029
860.725	22051
860.858	21968
860.99	21770
861.123	21720
861.256	21789
861.388	21873
861.521	22668
861.653	21679
861.786	21656
861.918	21724
862.05	21694
862.183	21835
862.315	21880
862.447	21827
862.58	21751
862.712	21549
862.844	21553
862.976	21610
863.108	21736
863.24	21949
863.372	21469
863.504	21580
863.636	21587
863.768	21660
863.9	21652
864.032	21443
864.164	21572
864.296	21629
864.428	21663
864.559	21629
864.691	21530
864.823	21648
864.954	21644
865.086	21450
865.217	21450
865.349	21435
865.48	21405
865.612	21424
865.743	21511
865.875	21515
866.006	21500
866.137	21519
866.269	21519
866.4	21515
866.531	21363
866.662	21450
866.793	21249
866.924	21367
867.055	21408
867.186	21386
867.317	21393
867.448	21199
867.579	21363
867.71	21370
867.841	21298
867.972	21275
868.103	21416
868.233	21393
868.364	21420
868.495	21466
868.625	21542
868.756	21770
868.886	21564
869.017	21739
869.147	21656
869.278	21774
869.408	21622
869.539	21660
869.669	21614
869.799	21709
869.929	21728
870.06	21774
870.19	21895
870.32	21857
870.45	22048
870.58	21975
870.71	22074
870.84	22143
870.97	22188
871.1	21907
871.23	22261
871.36	22116
871.489	22040
871.619	22238
871.749	22310
871.879	22242
872.008	22265
872.138	22265
872.267	22299
872.397	22048
872.526	22044
872.656	22109
872.785	22204
872.915	22169
873.044	22341
873.173	22147
873.303	22268
873.432	22333
873.561	22341
873.69	22238
873.819	22147
873.948	22379
874.077	22154
874.206	22249
874.335	22223
874.464	22280
874.593	22481
874.722	22234
874.851	22409
874.979	22394
875.108	22436
875.237	22436
875.365	22352
875.494	22371
875.623	22493
875.751	22325
875.88	22596
876.008	22694
876.136	22584
876.265	22847
876.393	22949
876.521	22866
876.65	22957
876.778	22839
876.906	22835
877.034	22805
877.162	22839
877.29	22679
877.418	22801
877.546	22763
877.674	22862
877.802	22767
877.93	22816
878.058	22649
878.185	22653
878.313	22702
878.441	22820
878.568	22538
878.696	22664
878.824	22713
878.951	22869
879.079	22881
879.206	23197
879.333	22850
879.461	22892
879.588	22938
879.715	22858
879.842	23185
879.97	22831
880.097	22645
880.224	22596
880.351	22611
880.478	22603
880.605	22557
880.732	22645
880.859	22790
880.986	22694
881.112	22637
881.239	22504
881.366	22329
881.493	22322
881.619	22272
881.746	22287
881.872	22257
881.999	22158
882.125	22169
882.252	22093
882.378	22112
882.505	22333
882.631	22207
882.757	21983
882.883	21930
883.01	21915
883.136	21762
883.262	21747
883.388	21705
883.514	21907
883.64	21861
883.766	21732
883.892	21682
884.018	21690
884.143	21778
884.269	21918
884.395	21641
884.52	21561
884.646	21568
884.772	21447
884.897	21389
885.023	21587
885.148	21587
885.274	21603
885.399	21675
885.524	21633
885.65	21481
885.775	21545
885.9	21564
886.025	21644
886.15	21534
886.275	21473
886.4	21504
886.525	21526
886.65	21538
886.775	21595
886.9	21644
887.025	21770
887.149	21568
887.274	21405
887.399	21313
887.523	21340
887.648	21161
887.773	21214
887.897	21447
888.021	21298
888.146	21283
888.27	21492
888.395	21405
888.519	21336
888.643	21294
888.767	21325
888.891	21283
889.015	21195
889.139	21165
889.263	21089
889.387	21203
889.511	21283
889.635	21203
889.759	21066
889.883	20982
890.006	21096
890.13	21180
890.254	21108
890.377	21127
890.501	20826
890.624	20861
890.748	20963
890.871	20686
890.995	20625
891.118	20632
891.241	20587
891.364	20636
891.488	20773
891.611	20678
891.734	20640
891.857	20697
891.98	20777
892.103	20712
892.226	20731
892.349	20655
892.471	20488
892.594	20613
892.717	20594
892.839	20602
892.962	20716
893.085	20659
893.207	20503
893.33	20473
893.452	20408
893.575	20514
893.697	20549
893.819	20667
893.941	20769
894.064	20689
894.186	20541
894.308	20419
894.43	20735
894.552	20796
894.674	20598
894.796	20438
894.918	20560
895.04	20465
895.161	20587
895.283	20590
895.405	20514
895.526	20419
895.648	20503
895.769	20579
895.891	20720
896.012	20663
896.134	20632
896.255	20480
896.376	20556
896.498	20526
896.619	20545
896.74	20568
896.861	20640
896.982	20746
897.103	21024
897.224	20823
897.345	20648
897.466	20792
897.587	20811
897.708	20902
897.828	20781
897.949	20678
898.07	20541
898.19	20724
898.311	20876
898.431	20640
898.552	20762
898.672	20857
898.792	20880
898.913	20800
899.033	20640
899.153	20469
899.273	20358
899.393	20454
899.513	20492
899.633	20545
899.753	20484
899.873	20587
899.993	20556
900.113	20499
900.232	20362
900.352	20518
900.472	20404
900.591	20271
900.711	20332
900.83	20096
900.95	20366
901.069	20385
901.189	19974
901.308	19947
901.427	19799
901.546	19818
901.665	19940
901.784	19902
901.904	19723
902.023	19643
902.141	19457
902.26	19468
902.379	19468
902.498	19384
902.617	19331
902.735	19339
902.854	19270
902.973	19293
903.091	19012
903.21	18913
903.328	19034
903.446	18833
903.565	18894
903.683	18776
903.801	18688
903.919	18745
904.038	18795
904.156	18616
904.274	18635
904.392	18578
904.51	18502
904.627	18589
904.745	18585
904.863	18616
904.981	18376
905.098	18426
905.216	18247
905.334	18319
905.451	18380
905.569	18197
905.686	18308
905.803	18266
905.921	17980
906.038	18182
906.155	17988
906.272	17836
906.389	17904
906.506	17843
906.623	17783
906.74	17885
906.857	17733
906.974	17745
907.091	17828
907.208	17851
907.324	17824
907.441	17577
907.557	17551
907.674	17471
907.79	17452
907.907	17478
908.023	17585
908.139	17455
908.256	17383
908.372	17459
908.488	17376
908.604	17246
908.72	17231
908.836	17136
908.952	17200
909.068	17246
909.184	17353
909.3	17254
909.415	17227
909.531	17174
909.647	16999
909.762	16995
909.878	16873
909.993	17041
910.108	16778
910.224	16968
910.339	16987
910.454	16778
910.57	16702
910.685	16694
910.8	16957
910.915	16987
911.03	16748
911.145	16519
911.259	16527
911.374	16546
911.489	16504
911.604	16390
911.718	16322
911.833	16169
911.947	16257
912.062	16112
912.176	16234
912.291	16257
912.405	16154
912.519	16428
912.633	16417
912.748	16299
912.862	16242
912.976	16131
913.09	15926
913.204	16090
913.318	16021
913.431	16105
913.545	16040
913.659	16219
913.772	15994
913.886	15956
914	15838
914.113	15960
914.226	15953
914.34	15926
914.453	15709
914.566	15899
914.68	15694
914.793	15739
914.906	15553
915.019	15447
915.132	15405
915.245	15431
915.358	15504
915.47	15435
915.583	15485
915.696	15428
915.809	15572
915.921	15481
916.034	15462
916.146	15359
916.259	15302
916.371	15481
916.483	15412
916.595	15336
916.708	15351
916.82	15291
916.932	15256
917.044	15287
917.156	15199
917.268	15089
917.38	15195
917.491	15127
917.603	15055
917.715	15058
917.826	15176
917.938	14998
918.049	14929
918.161	15077
918.272	15260
918.384	15074
918.495	15039
918.606	14910
918.717	14762
918.828	14910
918.939	14815
919.05	14811
919.161	14815
919.272	14632
919.383	14689
919.494	14811
919.604	15051
919.715	14773
919.826	14708
919.936	14762
920.047	14941
920.157	14773
920.267	14979
920.378	14819
920.488	14735
920.598	14899
920.708	15032
920.818	14948
920.928	14883
921.038	15119
921.148	15032
921.258	14697
921.368	14617
921.477	14594
921.587	14495
921.697	14389
921.806	14560
921.916	14393
922.025	14282
922.134	14225
922.244	14088
922.353	14191
922.462	14039
922.571	13959
922.68	13849
922.789	13788
922.898	13913
923.007	13807
923.116	13871
923.224	13883
923.333	13868
923.442	13655
923.55	13666
923.659	13658
923.767	13727
923.876	13693
923.984	13704
924.092	13457
924.201	13529
924.309	13415
924.417	13578
924.525	13510
924.633	13480
924.741	14252
924.849	13301
924.956	13388
925.064	13236
925.172	13152
925.279	13232
925.387	13247
925.494	13202
925.602	13221
925.709	13171
925.816	13194
925.924	13152
926.031	13301
926.138	13088
926.245	13198
926.352	13072
926.459	13107
926.566	13236
926.673	13065
926.779	12958
926.886	12958
926.993	12863
927.099	12722
927.206	12703
927.312	12738
927.419	12768
927.525	12662
927.631	12787
927.737	12669
927.843	12604
927.95	12559
928.056	12517
928.162	12585
928.267	12681
928.373	13244
928.479	12658
928.585	12388
928.69	12532
928.796	12528
928.901	12483
929.007	12277
929.112	12399
929.218	12376
929.323	12384
929.428	12338
929.533	12426
929.638	12300
929.743	12243
929.848	12308
929.953	12258
930.058	12197
930.163	12026
930.267	12087
930.372	12197
930.477	11961
930.581	12178
930.685	12079
930.79	11866
930.894	11843
930.998	11805
931.103	11999
931.207	11604
931.311	11585
931.415	11524
931.519	11284
931.623	11299
