Data from test_V78500241_963.txt Node
Date: Fri Mar 25 15:16:33 CST 2022
User: usil
Spectrometer: V785-0024
Trigger mode: 0
Integration Time (sec): 4.000000E-1
Scans to average: 1
Nonlinearity correction enabled: false
Boxcar width: 0
Storing dark spectrum: false
XAxis mode: Wavelengths
Number of Pixels in Spectrum: 1024
>>>>>Begin Spectral Data<<<<<
801.071	28013
801.214	27949
801.356	27709
801.499	27633
801.641	27431
801.783	27500
801.926	27587
802.068	27401
802.211	27500
802.353	27237
802.496	27127
802.638	27233
802.78	27230
802.923	27150
803.065	26960
803.208	27203
803.35	27131
803.492	27131
803.635	27283
803.777	27283
803.919	27427
804.061	27610
804.204	27408
804.346	27351
804.488	27264
804.63	27203
804.773	27317
804.915	27348
805.057	27511
805.199	27351
805.341	27427
805.483	27504
805.626	27549
805.768	27378
805.91	27519
806.052	27530
806.194	27363
806.336	27732
806.478	27549
806.62	27519
806.762	27622
806.904	27751
807.046	28070
807.188	27869
807.33	27895
807.472	27880
807.614	27816
807.756	27854
807.898	27842
808.04	27686
808.182	27671
808.324	27717
808.465	27789
808.607	27869
808.749	28131
808.891	28181
809.033	28272
809.174	28196
809.316	28162
809.458	28147
809.6	28090
809.741	28253
809.883	28382
810.025	28478
810.166	28363
810.308	28417
810.45	28310
810.591	28318
810.733	28177
810.875	28082
811.016	28048
811.158	27949
811.299	28280
811.441	28219
811.582	28303
811.724	28059
811.865	28048
812.007	28139
812.148	28116
812.29	28059
812.431	28310
812.573	28462
812.714	28523
812.855	28615
812.997	28824
813.138	28961
813.279	28831
813.421	28615
813.562	28755
813.703	28554
813.845	28413
813.986	28147
814.127	27895
814.268	27895
814.41	27914
814.551	27774
814.692	27892
814.833	27720
814.974	27770
815.115	27743
815.256	27774
815.397	27732
815.539	27819
815.68	27759
815.821	27534
815.962	27675
816.103	27580
816.244	27481
816.385	27515
816.526	27317
816.666	27294
816.807	27180
816.948	27226
817.089	27241
817.23	27169
817.371	27081
817.512	27245
817.653	27222
817.793	27062
817.934	27135
818.075	27199
818.216	27039
818.356	27013
818.497	27123
818.638	26880
818.778	26842
818.919	26967
819.06	26956
819.2	27062
819.341	27127
819.481	27138
819.622	27351
819.762	27519
819.903	27401
820.043	27447
820.184	27237
820.324	27249
820.465	27294
820.605	27359
820.746	27321
820.886	26994
821.026	27176
821.167	27207
821.307	27306
821.447	27207
821.588	27077
821.728	27043
821.868	26724
822.008	26674
822.149	26533
822.289	26579
822.429	26389
822.569	26214
822.709	26237
822.849	26157
822.99	26191
823.13	26191
823.27	26084
823.41	25966
823.55	25719
823.69	26054
823.83	25989
823.97	26005
824.11	25765
824.25	25734
824.389	25753
824.529	25902
824.669	25788
824.809	26005
824.949	25887
825.089	25837
825.228	25826
825.368	25670
825.508	25578
825.648	25700
825.787	25628
825.927	25689
826.067	25620
826.206	25597
826.346	25677
826.485	25651
826.625	25674
826.765	25788
826.904	25837
827.044	25502
827.183	25422
827.323	25377
827.462	25460
827.601	25449
827.741	25263
827.88	25396
828.02	25099
828.159	25396
828.298	25415
828.437	25320
828.577	25350
828.716	25487
828.855	25217
828.994	25244
829.134	25072
829.273	24981
829.412	25072
829.551	25004
829.69	25114
829.829	25137
829.968	25088
830.107	25114
830.246	24989
830.385	24989
830.524	24985
830.663	24894
830.802	24882
830.941	24582
831.08	24639
831.219	24757
831.357	24764
831.496	24958
831.635	24757
831.774	24654
831.913	24597
832.051	24391
832.19	24540
832.329	24559
832.467	24448
832.606	24232
832.744	24361
832.883	24281
833.022	24342
833.16	24467
833.299	24395
833.437	24464
833.576	24384
833.714	24426
833.852	24578
833.991	24483
834.129	24486
834.267	24559
834.406	24384
834.544	24410
834.682	24452
834.821	24357
834.959	24563
835.097	24403
835.235	24350
835.373	24429
835.511	24467
835.65	24399
835.788	24296
835.926	24281
836.064	24060
836.202	24110
836.34	24308
836.478	24395
836.615	24174
836.753	24315
836.891	24350
837.029	24285
837.167	24254
837.305	24262
837.443	24098
837.58	24003
837.718	24239
837.856	24144
837.993	24015
838.131	24155
838.269	23931
838.406	24030
838.544	23996
838.681	23767
838.819	23726
838.956	23566
839.094	23608
839.231	23722
839.369	23805
839.506	23931
839.643	23855
839.781	23482
839.918	23512
840.055	23638
840.193	23619
840.33	23577
840.467	23452
840.604	23627
840.742	23695
840.879	23425
841.016	23360
841.153	23296
841.29	23649
841.427	23486
841.564	23535
841.701	23448
841.838	23455
841.975	23410
842.112	23296
842.249	23353
842.385	23227
842.522	23558
842.659	23318
842.796	23216
842.933	23360
843.069	23227
843.206	23136
843.343	23337
843.479	23334
843.616	23296
843.752	22991
843.889	23086
844.025	23121
844.162	22892
844.298	23121
844.435	23056
844.571	23052
844.708	23109
844.844	23094
844.98	23086
845.117	23140
845.253	23018
845.389	22858
845.525	22873
845.661	22968
845.798	22854
845.934	22763
846.07	22736
846.206	22710
846.342	22976
846.478	22672
846.614	22687
846.75	22478
846.886	22523
847.022	22630
847.158	22573
847.294	22409
847.429	22603
847.565	22474
847.701	22733
847.837	22318
847.972	22265
848.108	22402
848.244	22322
848.379	22181
848.515	22067
848.65	22040
848.786	22090
848.921	22139
849.057	22325
849.192	22223
849.328	22070
849.463	22086
849.598	22059
849.734	22044
849.869	21930
850.004	21854
850.14	21816
850.275	21876
850.41	21743
850.545	21774
850.68	21762
850.815	21831
850.95	21934
851.085	21983
851.22	21850
851.355	21934
851.49	21816
851.625	21819
851.76	21724
851.895	21781
852.03	21732
852.165	21838
852.299	21899
852.434	22017
852.569	21964
852.703	21823
852.838	21865
852.973	21983
853.107	22048
853.242	21747
853.376	21751
853.511	21549
853.645	21629
853.78	21857
853.914	21694
854.048	21610
854.183	21755
854.317	21682
854.451	21930
854.585	21637
854.72	21671
854.854	21660
854.988	21679
855.122	21682
855.256	21622
855.39	21774
855.524	21732
855.658	21751
855.792	21789
855.926	21679
856.06	21698
856.194	21671
856.327	21625
856.461	21545
856.595	21603
856.729	21690
856.862	21793
856.996	21622
857.13	21682
857.263	21732
857.397	21865
857.53	21698
857.664	21785
857.797	21694
857.931	21873
858.064	21736
858.197	21739
858.331	21728
858.464	21633
858.597	21473
858.731	21572
858.864	21686
858.997	21644
859.13	21739
859.263	21713
859.396	21713
859.529	21564
859.662	21667
859.795	21637
859.928	21755
860.061	21876
860.194	21956
860.327	21968
860.46	21682
860.592	21709
860.725	21827
860.858	21876
860.99	21641
861.123	21656
861.256	21625
861.388	21728
861.521	22455
861.653	21523
861.786	21488
861.918	21530
862.05	21622
862.183	21545
862.315	21587
862.447	21694
862.58	21549
862.712	21405
862.844	21435
862.976	21488
863.108	21526
863.24	21793
863.372	21424
863.504	21340
863.636	21374
863.768	21378
863.9	21408
864.032	21382
864.164	21397
864.296	21313
864.428	21382
864.559	21568
864.691	21523
864.823	21454
864.954	21252
865.086	21382
865.217	21344
865.349	21252
865.48	21348
865.612	21275
865.743	21340
865.875	21370
866.006	21310
866.137	21252
866.269	21298
866.4	21214
866.531	21367
866.662	21074
866.793	21138
866.924	21150
867.055	21325
867.186	21222
867.317	21329
867.448	21119
867.579	21169
867.71	21108
867.841	21096
867.972	21260
868.103	21116
868.233	21302
868.364	21211
868.495	21287
868.625	21504
868.756	21595
868.886	21329
869.017	21477
869.147	21488
869.278	21443
869.408	21488
869.539	21507
869.669	21568
869.799	21477
869.929	21583
870.06	21511
870.19	21747
870.32	21705
870.45	21789
870.58	21880
870.71	22063
870.84	21808
870.97	21812
871.1	21876
871.23	21953
871.36	22040
871.489	21994
871.619	22093
871.749	22074
871.879	22090
872.008	22135
872.138	22078
872.267	22010
872.397	21911
872.526	21759
872.656	21880
872.785	21778
872.915	22051
873.044	22185
873.173	22070
873.303	22147
873.432	22124
873.561	22070
873.69	22116
873.819	22074
873.948	22169
874.077	22093
874.206	21934
874.335	22169
874.464	22154
874.593	22276
874.722	22238
874.851	22363
874.979	22322
875.108	22451
875.237	22257
875.365	22112
875.494	22204
875.623	22367
875.751	22192
875.88	22230
876.008	22424
876.136	22409
876.265	22702
876.393	22797
876.521	22736
876.65	22744
876.778	22641
876.906	22607
877.034	22561
877.162	22603
877.29	22531
877.418	22626
877.546	22569
877.674	22645
877.802	22664
877.93	22611
878.058	22702
878.185	22569
878.313	22573
878.441	22637
878.568	22432
878.696	22668
878.824	22611
878.951	22626
879.079	22752
879.206	22934
879.333	22763
879.461	22615
879.588	22755
879.715	22736
879.842	22824
879.97	22660
880.097	22421
880.224	22379
880.351	22428
880.478	22474
880.605	22436
880.732	22519
880.859	22649
880.986	22493
881.112	22405
881.239	22310
881.366	22112
881.493	22120
881.619	22013
881.746	21960
881.872	22029
881.999	22021
882.125	22078
882.252	22029
882.378	22048
882.505	22013
882.631	21899
882.757	21671
882.883	21854
883.01	21694
883.136	21766
883.262	21629
883.388	21564
883.514	21785
883.64	21755
883.766	21625
883.892	21580
884.018	21500
884.143	21694
884.269	21663
884.395	21389
884.52	21348
884.646	21450
884.772	21192
884.897	21264
885.023	21447
885.148	21431
885.274	21450
885.399	21363
885.524	21405
885.65	21408
885.775	21351
885.9	21340
886.025	21310
886.15	21382
886.275	21321
886.4	21241
886.525	21298
886.65	21214
886.775	21264
886.9	21454
887.025	21610
887.149	21389
887.274	21184
887.399	20982
887.523	21165
887.648	21112
887.773	21116
887.897	21138
888.021	21138
888.146	21020
888.27	21218
888.395	21142
888.519	21009
888.643	21096
888.767	21138
888.891	21055
889.015	21024
889.139	20956
889.263	20925
889.387	20944
889.511	21112
889.635	21009
889.759	20815
889.883	20788
890.006	20948
890.13	21001
890.254	20762
890.377	20807
890.501	20629
890.624	20522
890.748	20727
890.871	20655
890.995	20465
891.118	20457
891.241	20324
891.364	20385
891.488	20663
891.611	20385
891.734	20446
891.857	20583
891.98	20461
892.103	20461
892.226	20415
892.349	20328
892.471	20210
892.594	20366
892.717	20484
892.839	20320
892.962	20400
893.085	20492
893.207	20286
893.33	20229
893.452	20362
893.575	20511
893.697	20301
893.819	20571
893.941	20632
894.064	20476
894.186	20309
894.308	20290
894.43	20442
894.552	20556
894.674	20423
894.796	20271
894.918	20450
895.04	20286
895.161	20522
895.283	20358
895.405	20374
895.526	20389
895.648	20476
895.769	20431
895.891	20427
896.012	20370
896.134	20446
896.255	20358
896.376	20396
896.498	20446
896.619	20290
896.74	20370
896.861	20438
896.982	20758
897.103	20686
897.224	20629
897.345	20469
897.466	20518
897.587	20511
897.708	20785
897.828	20533
897.949	20465
898.07	20389
898.19	20446
898.311	20617
898.431	20556
898.552	20674
898.672	20743
898.792	20640
898.913	20590
899.033	20465
899.153	20320
899.273	20271
899.393	20256
899.513	20396
899.633	20415
899.753	20233
899.873	20343
899.993	20256
900.113	20176
900.232	20218
900.352	20191
900.472	20199
900.591	20176
900.711	20103
900.83	20016
900.95	20214
901.069	20168
901.189	19940
901.308	19811
901.427	19609
901.546	19784
901.665	19548
901.784	19712
901.904	19537
902.023	19430
902.141	19179
902.26	19217
902.379	19350
902.498	19179
902.617	19133
902.735	19247
902.854	19141
902.973	19084
903.091	18916
903.21	18947
903.328	18833
903.446	18760
903.565	18688
903.683	18684
903.801	18513
903.919	18654
904.038	18627
904.156	18414
904.274	18525
904.392	18532
904.51	18346
904.627	18399
904.745	18498
904.863	18471
904.981	18174
905.098	18159
905.216	18038
905.334	18060
905.451	18110
905.569	18011
905.686	18110
905.803	18102
905.921	17779
906.038	18174
906.155	17916
906.272	17840
906.389	17790
906.506	17699
906.623	17722
906.74	17566
906.857	17524
906.974	17551
907.091	17573
907.208	17779
907.324	17840
907.441	17554
907.557	17334
907.674	17364
907.79	17326
907.907	17292
908.023	17318
908.139	17269
908.256	17140
908.372	17155
908.488	17250
908.604	17147
908.72	17075
908.836	17067
908.952	17025
909.068	17159
909.184	17071
909.3	17109
909.415	17025
909.531	16991
909.647	16778
909.762	16748
909.878	16729
909.993	16740
910.108	16733
910.224	16698
910.339	16763
910.454	16645
910.57	16626
910.685	16489
910.8	16755
910.915	16675
911.03	16660
911.145	16405
911.259	16443
911.374	16367
911.489	16363
911.604	16219
911.718	16158
911.833	16074
911.947	15991
912.062	15915
912.176	15983
912.291	16029
912.405	16097
912.519	16242
912.633	16230
912.748	16112
912.862	16029
912.976	15907
913.09	15770
913.204	15850
913.318	15892
913.431	15873
913.545	15937
913.659	15953
913.772	15850
913.886	15701
914	15728
914.113	15778
914.226	15827
914.34	15732
914.453	15603
914.566	15724
914.68	15549
914.793	15584
914.906	15389
915.019	15291
915.132	15272
915.245	15233
915.358	15397
915.47	15336
915.583	15359
915.696	15298
915.809	15420
915.921	15428
916.034	15214
916.146	15298
916.259	15188
916.371	15340
916.483	15279
916.595	15157
916.708	15188
916.82	15108
916.932	15039
917.044	15039
917.156	15020
917.268	14872
917.38	14929
917.491	14925
917.603	14933
917.715	15058
917.826	15036
917.938	14906
918.049	14762
918.161	14952
918.272	15020
918.384	14986
918.495	14902
918.606	14781
918.717	14663
918.828	14834
918.939	14777
919.05	14667
919.161	14705
919.272	14492
919.383	14556
919.494	14701
919.604	14842
919.715	14701
919.826	14530
919.936	14758
920.047	14663
920.157	14659
920.267	14842
920.378	14621
920.488	14682
920.598	14826
920.708	15055
920.818	14758
920.928	14781
921.038	14941
921.148	14849
921.258	14659
921.368	14438
921.477	14488
921.587	14366
921.697	14332
921.806	14442
921.916	14237
922.025	14107
922.134	14035
922.244	13959
922.353	14123
922.462	13928
922.571	13898
922.68	13712
922.789	13734
922.898	13788
923.007	13685
923.116	13750
923.224	13712
923.333	13636
923.442	13605
923.55	13483
923.659	13613
923.767	13616
923.876	13445
923.984	13567
924.092	13441
924.201	13438
924.309	13415
924.417	13369
924.525	13285
924.633	13343
924.741	14305
924.849	13149
924.956	13263
925.064	13198
925.172	13095
925.279	13061
925.387	13088
925.494	13160
925.602	13244
925.709	13122
925.816	12996
925.924	12962
926.031	13179
926.138	13019
926.245	12996
926.352	13023
926.459	13118
926.566	13057
926.673	12993
926.779	12939
926.886	12779
926.993	12768
927.099	12623
927.206	12574
927.312	12601
927.419	12730
927.525	12620
927.631	12635
927.737	12544
927.843	12338
927.95	12452
928.056	12547
928.162	12486
928.267	12551
928.373	13126
928.479	12490
928.585	12319
928.69	12407
928.796	12521
928.901	12304
929.007	12144
929.112	12308
929.218	12376
929.323	12224
929.428	12243
929.533	12258
929.638	12049
929.743	12171
929.848	12133
929.953	12159
930.058	11988
930.163	11832
930.267	11927
930.372	11999
930.477	11843
930.581	12091
930.685	11939
930.79	11802
930.894	11805
930.998	11722
931.103	11790
931.207	11463
931.311	11395
931.415	11360
931.519	11181
931.623	11159
