Data from test_V78500241_1296.txt Node
Date: Fri Mar 25 15:18:52 CST 2022
User: usil
Spectrometer: V785-0024
Trigger mode: 0
Integration Time (sec): 4.000000E-1
Scans to average: 1
Nonlinearity correction enabled: false
Boxcar width: 0
Storing dark spectrum: false
XAxis mode: Wavelengths
Number of Pixels in Spectrum: 1024
>>>>>Begin Spectral Data<<<<<
801.071	28287
801.214	28139
801.356	27823
801.499	27854
801.641	27793
801.783	27747
801.926	27679
802.068	27728
802.211	27496
802.353	27496
802.496	27485
802.638	27321
802.78	27382
802.923	27264
803.065	27272
803.208	27256
803.35	27332
803.492	27370
803.635	27580
803.777	27306
803.919	27469
804.061	27972
804.204	27690
804.346	27564
804.488	27492
804.63	27542
804.773	27523
804.915	27667
805.057	27694
805.199	27557
805.341	27622
805.483	27793
805.626	27629
805.768	27701
805.91	27720
806.052	27743
806.194	27637
806.336	27781
806.478	27743
806.62	27812
806.762	27911
806.904	27987
807.046	28177
807.188	28211
807.33	28048
807.472	28139
807.614	28013
807.756	28211
807.898	27994
808.04	27873
808.182	27918
808.324	28070
808.465	27964
808.607	28143
808.749	28325
808.891	28584
809.033	28474
809.174	28394
809.316	28112
809.458	28348
809.6	28337
809.741	28462
809.883	28580
810.025	28744
810.166	28664
810.308	28626
810.45	28622
810.591	28519
810.733	28459
810.875	28299
811.016	28261
811.158	28181
811.299	28481
811.441	28447
811.582	28459
811.724	28493
811.865	28291
812.007	28363
812.148	28295
812.29	28405
812.431	28542
812.573	28892
812.714	28755
812.855	28710
812.997	29014
813.138	29155
813.279	29094
813.421	28976
813.562	28885
813.703	28740
813.845	28554
813.986	28325
814.127	28196
814.268	28036
814.41	28249
814.551	27983
814.692	28226
814.833	28010
814.974	28055
815.115	28067
815.256	27793
815.397	27998
815.539	27865
815.68	27895
815.821	27865
815.962	27857
816.103	27911
816.244	27671
816.385	27610
816.526	27606
816.666	27500
816.807	27439
816.948	27439
817.089	27378
817.23	27405
817.371	27336
817.512	27310
817.653	27329
817.793	27378
817.934	27374
818.075	27325
818.216	27466
818.356	27317
818.497	27135
818.638	26990
818.778	27127
818.919	27104
819.06	27169
819.2	27192
819.341	27481
819.481	27462
819.622	27591
819.762	27641
819.903	27694
820.043	27701
820.184	27583
820.324	27473
820.465	27675
820.605	27515
820.746	27378
820.886	27355
821.026	27443
821.167	27435
821.307	27515
821.447	27355
821.588	27367
821.728	27192
821.868	27032
822.008	26994
822.149	26773
822.289	26861
822.429	26621
822.569	26526
822.709	26545
822.849	26332
822.99	26351
823.13	26343
823.27	26233
823.41	26161
823.55	26187
823.69	26267
823.83	26115
823.97	26103
824.11	25940
824.25	25883
824.389	26157
824.529	26065
824.669	26054
824.809	26176
824.949	26046
825.089	25978
825.228	26054
825.368	25795
825.508	25982
825.648	25928
825.787	25868
825.927	25966
826.067	25944
826.206	25830
826.346	25963
826.485	25909
826.625	25772
826.765	26088
826.904	25997
827.044	25662
827.183	25685
827.323	25525
827.462	25655
827.601	25499
827.741	25578
827.88	25647
828.02	25552
828.159	25552
828.298	25605
828.437	25605
828.577	25578
828.716	25677
828.855	25441
828.994	25297
829.134	25362
829.273	25255
829.412	25209
829.551	25198
829.69	25346
829.829	25331
829.968	25441
830.107	25415
830.246	25327
830.385	25244
830.524	25137
830.663	24970
830.802	25042
830.941	24977
831.08	24970
831.219	25076
831.357	25107
831.496	25145
831.635	24856
831.774	24867
831.913	24852
832.051	24783
832.19	24623
832.329	24783
832.467	24593
832.606	24658
832.744	24578
832.883	24551
833.022	24551
833.16	24760
833.299	24574
833.437	24627
833.576	24688
833.714	24601
833.852	24669
833.991	24642
834.129	24726
834.267	24749
834.406	24635
834.544	24688
834.682	24612
834.821	24597
834.959	24821
835.097	24593
835.235	24700
835.373	24608
835.511	24692
835.65	24555
835.788	24563
835.926	24304
836.064	24235
836.202	24456
836.34	24654
836.478	24505
836.615	24369
836.753	24521
836.891	24418
837.029	24464
837.167	24414
837.305	24456
837.443	24281
837.58	24372
837.718	24475
837.856	24361
837.993	24319
838.131	24281
838.269	24224
838.406	24197
838.544	24079
838.681	23996
838.819	23855
838.956	23809
839.094	23836
839.231	23821
839.369	24087
839.506	24190
839.643	23996
839.781	23832
839.918	23863
840.055	23904
840.193	23843
840.33	23756
840.467	23710
840.604	23779
840.742	23927
840.879	23509
841.016	23703
841.153	23562
841.29	23817
841.427	23756
841.564	23668
841.701	23661
841.838	23794
841.975	23608
842.112	23577
842.249	23512
842.385	23562
842.522	23661
842.659	23539
842.796	23478
842.933	23562
843.069	23414
843.206	23474
843.343	23524
843.479	23482
843.616	23345
843.752	23212
843.889	23212
844.025	23269
844.162	23220
844.298	23417
844.435	23269
844.571	23170
844.708	23227
844.844	23512
844.98	23315
845.117	23417
845.253	23208
845.389	23113
845.525	23079
845.661	22900
845.798	22980
845.934	23022
846.07	22934
846.206	23037
846.342	23048
846.478	22953
846.614	22915
846.75	22660
846.886	22634
847.022	22736
847.158	22664
847.294	22892
847.429	22683
847.565	22713
847.701	23029
847.837	22489
847.972	22367
848.108	22527
848.244	22565
848.379	22394
848.515	22333
848.65	22230
848.786	22215
848.921	22242
849.057	22382
849.192	22424
849.328	22318
849.463	22211
849.598	22291
849.734	22192
849.869	22109
850.004	22025
850.14	22082
850.275	22044
850.41	22002
850.545	22017
850.68	22051
850.815	22040
850.95	22055
851.085	22268
851.22	22188
851.355	22131
851.49	22025
851.625	21975
851.76	22036
851.895	21937
852.03	21846
852.165	22082
852.299	22021
852.434	22074
852.569	22154
852.703	22055
852.838	22150
852.973	22166
853.107	22067
853.242	22032
853.376	21937
853.511	21842
853.645	21876
853.78	21880
853.914	21838
854.048	21865
854.183	21816
854.317	21991
854.451	22021
854.585	21800
854.72	21892
854.854	22067
854.988	21705
855.122	21937
855.256	21675
855.39	21831
855.524	22090
855.658	21869
855.792	22025
855.926	21857
856.06	21903
856.194	21987
856.327	21865
856.461	21755
856.595	21888
856.729	21869
856.862	22105
856.996	21949
857.13	21918
857.263	21930
857.397	21983
857.53	21876
857.664	21972
857.797	22010
857.931	22021
858.064	21838
858.197	21922
858.331	21876
858.464	21766
858.597	21793
858.731	21861
858.864	21793
858.997	21854
859.13	21759
859.263	21930
859.396	21880
859.529	21899
859.662	21888
859.795	21778
859.928	21835
860.061	22013
860.194	22139
860.327	21831
860.46	21945
860.592	21846
860.725	22040
860.858	22055
860.99	21949
861.123	21732
861.256	21827
861.388	21892
861.521	22474
861.653	21739
861.786	21629
861.918	21762
862.05	21793
862.183	21800
862.315	22036
862.447	21915
862.58	21774
862.712	21648
862.844	21553
862.976	21652
863.108	21694
863.24	21998
863.372	21466
863.504	21641
863.636	21599
863.768	21603
863.9	21641
864.032	21473
864.164	21428
864.296	21614
864.428	21682
864.559	21561
864.691	21603
864.823	21576
864.954	21530
865.086	21477
865.217	21450
865.349	21405
865.48	21447
865.612	21511
865.743	21583
865.875	21534
866.006	21355
866.137	21424
866.269	21439
866.4	21340
866.531	21557
866.662	21393
866.793	21431
866.924	21386
867.055	21450
867.186	21336
867.317	21416
867.448	21180
867.579	21469
867.71	21321
867.841	21287
867.972	21401
868.103	21439
868.233	21348
868.364	21348
868.495	21469
868.625	21663
868.756	21690
868.886	21500
869.017	21789
869.147	21778
869.278	21785
869.408	21614
869.539	21633
869.669	21831
869.799	21671
869.929	21720
870.06	21739
870.19	21975
870.32	21979
870.45	21850
870.58	22143
870.71	22116
870.84	22013
870.97	22048
871.1	22101
871.23	22188
871.36	22192
871.489	22158
871.619	22200
871.749	22230
871.879	22200
872.008	22234
872.138	22219
872.267	22257
872.397	21979
872.526	21987
872.656	22093
872.785	22101
872.915	22181
873.044	22295
873.173	22223
873.303	22162
873.432	22348
873.561	22287
873.69	22249
873.819	22287
873.948	22249
874.077	22280
874.206	22185
874.335	22192
874.464	22352
874.593	22516
874.722	22386
874.851	22542
874.979	22485
875.108	22535
875.237	22280
875.365	22436
875.494	22478
875.623	22542
875.751	22504
875.88	22462
876.008	22470
876.136	22668
876.265	22790
876.393	23094
876.521	22923
876.65	23018
876.778	22698
876.906	22759
877.034	22755
877.162	22805
877.29	22778
877.418	22828
877.546	22725
877.674	22774
877.802	22854
877.93	22896
878.058	22702
878.185	22622
878.313	22630
878.441	22710
878.568	22607
878.696	22641
878.824	22889
878.951	22885
879.079	22812
879.206	23044
879.333	22949
879.461	22854
879.588	22831
879.715	22995
879.842	23102
879.97	22911
880.097	22497
880.224	22538
880.351	22645
880.478	22672
880.605	22500
880.732	22691
880.859	22831
880.986	22683
881.112	22649
881.239	22443
881.366	22322
881.493	22314
881.619	22242
881.746	22268
881.872	22158
881.999	22082
882.125	22032
882.252	22162
882.378	22192
882.505	22303
882.631	22090
882.757	21922
882.883	22048
883.01	21892
883.136	21861
883.262	21724
883.388	21747
883.514	21861
883.64	21922
883.766	21766
883.892	21641
884.018	21720
884.143	21785
884.269	21918
884.395	21591
884.52	21515
884.646	21515
884.772	21523
884.897	21454
885.023	21405
885.148	21625
885.274	21698
885.399	21557
885.524	21500
885.65	21428
885.775	21481
885.9	21393
886.025	21717
886.15	21610
886.275	21496
886.4	21507
886.525	21549
886.65	21511
886.775	21530
886.9	21610
887.025	21766
887.149	21428
887.274	21355
887.399	21260
887.523	21249
887.648	21199
887.773	21211
887.897	21336
888.021	21298
888.146	21180
888.27	21313
888.395	21359
888.519	21268
888.643	21268
888.767	21325
888.891	21256
889.015	21138
889.139	21192
889.263	20979
889.387	21112
889.511	21256
889.635	21131
889.759	20948
889.883	21055
890.006	21028
890.13	21207
890.254	21009
890.377	21055
890.501	20796
890.624	20872
890.748	20914
890.871	20792
890.995	20693
891.118	20689
891.241	20667
891.364	20587
891.488	20750
891.611	20632
891.734	20587
891.857	20682
891.98	20564
892.103	20579
892.226	20575
892.349	20575
892.471	20552
892.594	20609
892.717	20552
892.839	20476
892.962	20598
893.085	20594
893.207	20503
893.33	20385
893.452	20434
893.575	20480
893.697	20507
893.819	20880
893.941	20606
894.064	20659
894.186	20465
894.308	20480
894.43	20674
894.552	20689
894.674	20522
894.796	20366
894.918	20469
895.04	20499
895.161	20537
895.283	20530
895.405	20404
895.526	20556
895.648	20454
895.769	20598
895.891	20594
896.012	20632
896.134	20533
896.255	20526
896.376	20427
896.498	20484
896.619	20575
896.74	20575
896.861	20617
896.982	20849
897.103	20941
897.224	20807
897.345	20830
897.466	20689
897.587	20739
897.708	20849
897.828	20807
897.949	20773
898.07	20537
898.19	20640
898.311	20868
898.431	20663
898.552	20708
898.672	20899
898.792	20849
898.913	20765
899.033	20583
899.153	20514
899.273	20370
899.393	20537
899.513	20503
899.633	20427
899.753	20545
899.873	20434
899.993	20434
900.113	20480
900.232	20339
900.352	20328
900.472	20286
900.591	20199
900.711	20259
900.83	20050
900.95	20278
901.069	20347
901.189	20157
901.308	19932
901.427	19795
901.546	19883
901.665	19852
901.784	19864
901.904	19639
902.023	19590
902.141	19392
902.26	19312
902.379	19388
902.498	19346
902.617	19358
902.735	19392
902.854	19259
902.973	19236
903.091	18985
903.21	19057
903.328	19050
903.446	18875
903.565	18951
903.683	18840
903.801	18741
903.919	18669
904.038	18684
904.156	18525
904.274	18684
904.392	18513
904.51	18502
904.627	18589
904.745	18490
904.863	18570
904.981	18365
905.098	18216
905.216	18296
905.334	18254
905.451	18258
905.569	18152
905.686	18289
905.803	18205
905.921	18030
906.038	18182
906.155	17980
906.272	17999
906.389	17908
906.506	17843
906.623	17748
906.74	17752
906.857	17653
906.974	17726
907.091	17847
907.208	17965
907.324	17802
907.441	17714
907.557	17497
907.674	17589
907.79	17455
907.907	17417
908.023	17516
908.139	17516
908.256	17452
908.372	17429
908.488	17326
908.604	17269
908.72	17178
908.836	17288
908.952	17155
909.068	17220
909.184	17296
909.3	17284
909.415	17223
909.531	17185
909.647	16889
909.762	16896
909.878	16854
909.993	16820
910.108	16816
910.224	16809
910.339	16908
910.454	16892
910.57	16748
910.685	16603
910.8	16847
910.915	16767
911.03	16653
911.145	16649
911.259	16451
911.374	16489
911.489	16375
911.604	16265
911.718	16188
911.833	16310
911.947	16131
912.062	16017
912.176	16154
912.291	16242
912.405	16166
912.519	16402
912.633	16318
912.748	16337
912.862	16185
912.976	16051
913.09	15953
913.204	15983
913.318	16017
913.431	16139
913.545	16128
913.659	16109
913.772	15934
913.886	15865
914	15911
914.113	15892
914.226	15831
914.34	15857
914.453	15762
914.566	15930
914.68	15759
914.793	15698
914.906	15549
915.019	15458
915.132	15447
915.245	15370
915.358	15469
915.47	15405
915.583	15386
915.696	15408
915.809	15500
915.921	15511
916.034	15351
916.146	15424
916.259	15222
916.371	15340
916.483	15321
916.595	15199
916.708	15287
916.82	15252
916.932	15275
917.044	15218
917.156	15180
917.268	15081
917.38	15097
917.491	15039
917.603	15051
917.715	15097
917.826	15161
917.938	14998
918.049	14948
918.161	15024
918.272	15154
918.384	15123
918.495	14910
918.606	14902
918.717	14708
918.828	14880
918.939	14785
919.05	14674
919.161	14804
919.272	14602
919.383	14724
919.494	14842
919.604	14982
919.715	14838
919.826	14659
919.936	14701
920.047	14830
920.157	14781
920.267	14925
920.378	14788
920.488	14853
920.598	14944
920.708	15089
920.818	14918
920.928	14960
921.038	15062
921.148	15062
921.258	14701
921.368	14507
921.477	14469
921.587	14499
921.697	14267
921.806	14560
921.916	14336
922.025	14313
922.134	14221
922.244	14142
922.353	14092
922.462	13909
922.571	13925
922.68	13879
922.789	13822
922.898	13818
923.007	13746
923.116	13822
923.224	13784
923.333	13791
923.442	13708
923.55	13647
923.659	13552
923.767	13734
923.876	13624
923.984	13666
924.092	13556
924.201	13506
924.309	13540
924.417	13537
924.525	13441
924.633	13510
924.741	14419
924.849	13274
924.956	13388
925.064	13255
925.172	13171
925.279	13240
925.387	13175
925.494	13255
925.602	13403
925.709	13274
925.816	13080
925.924	13141
926.031	13213
926.138	13110
926.245	13179
926.352	13019
926.459	13160
926.566	13304
926.673	13050
926.779	12913
926.886	12913
926.993	12776
927.099	12779
927.206	12669
927.312	12696
927.419	12821
927.525	12726
927.631	12696
927.737	12620
927.843	12547
927.95	12467
928.056	12608
928.162	12707
928.267	12620
928.373	13232
928.479	12620
928.585	12388
928.69	12456
928.796	12620
928.901	12369
929.007	12243
929.112	12414
929.218	12410
929.323	12232
929.428	12266
929.533	12410
929.638	12254
929.743	12262
929.848	12266
929.953	12251
930.058	12095
930.163	11988
930.267	11992
930.372	12072
930.477	11950
930.581	12148
930.685	11988
930.79	11828
930.894	11885
930.998	11855
931.103	11901
931.207	11558
931.311	11509
931.415	11414
931.519	11246
931.623	11277
