Data from test_V78500241_1066.txt Node
Date: Fri Mar 25 15:17:16 CST 2022
User: usil
Spectrometer: V785-0024
Trigger mode: 0
Integration Time (sec): 4.000000E-1
Scans to average: 1
Nonlinearity correction enabled: false
Boxcar width: 0
Storing dark spectrum: false
XAxis mode: Wavelengths
Number of Pixels in Spectrum: 1024
>>>>>Begin Spectral Data<<<<<
801.071	28268
801.214	28055
801.356	27888
801.499	27922
801.641	27743
801.783	27618
801.926	27846
802.068	27770
802.211	27652
802.353	27576
802.496	27405
802.638	27427
802.78	27355
802.923	27291
803.065	27401
803.208	27370
803.35	27481
803.492	27321
803.635	27637
803.777	27492
803.919	27732
804.061	27972
804.204	27705
804.346	27542
804.488	27530
804.63	27641
804.773	27481
804.915	27576
805.057	27895
805.199	27656
805.341	27709
805.483	27759
805.626	27728
805.768	27591
805.91	27717
806.052	27804
806.194	27713
806.336	27831
806.478	27736
806.62	27892
806.762	27922
806.904	27911
807.046	28325
807.188	28257
807.33	28059
807.472	28173
807.614	28017
807.756	28143
807.898	28063
808.04	27956
808.182	27979
808.324	27956
808.465	28139
808.607	28147
808.749	28390
808.891	28360
809.033	28588
809.174	28459
809.316	28455
809.458	28405
809.6	28386
809.741	28588
809.883	28580
810.025	28774
810.166	28755
810.308	28702
810.45	28729
810.591	28634
810.733	28596
810.875	28428
811.016	28371
811.158	28356
811.299	28512
811.441	28607
811.582	28588
811.724	28451
811.865	28489
812.007	28546
812.148	28386
812.29	28390
812.431	28497
812.573	28683
812.714	28862
812.855	29014
812.997	29048
813.138	29056
813.279	29064
813.421	29094
813.562	29029
813.703	28759
813.845	28717
813.986	28550
814.127	28303
814.268	28268
814.41	28154
814.551	28131
814.692	28109
814.833	28036
814.974	28124
815.115	28253
815.256	27968
815.397	27964
815.539	28048
815.68	28002
815.821	27842
815.962	28086
816.103	28036
816.244	27857
816.385	27846
816.526	27675
816.666	27629
816.807	27416
816.948	27496
817.089	27606
817.23	27481
817.371	27447
817.512	27473
817.653	27367
817.793	27378
817.934	27507
818.075	27530
818.216	27488
818.356	27466
818.497	27329
818.638	27184
818.778	27287
818.919	27169
819.06	27294
819.2	27424
819.341	27336
819.481	27424
819.622	27488
819.762	27861
819.903	27682
820.043	27724
820.184	27580
820.324	27538
820.465	27591
820.605	27606
820.746	27572
820.886	27370
821.026	27519
821.167	27450
821.307	27564
821.447	27370
821.588	27458
821.728	27268
821.868	26944
822.008	27039
822.149	26868
822.289	26899
822.429	26689
822.569	26530
822.709	26552
822.849	26313
822.99	26396
823.13	26465
823.27	26404
823.41	26332
823.55	26168
823.69	26343
823.83	26408
823.97	26191
824.11	26126
824.25	25955
824.389	26043
824.529	26195
824.669	26195
824.809	26240
824.949	26176
825.089	26214
825.228	26180
825.368	26073
825.508	26062
825.648	26043
825.787	25982
825.927	26024
826.067	25955
826.206	25826
826.346	26058
826.485	25970
826.625	26119
826.765	26062
826.904	25982
827.044	25765
827.183	25894
827.323	25727
827.462	25795
827.601	25814
827.741	25704
827.88	25791
828.02	25582
828.159	25784
828.298	25761
828.437	25784
828.577	25715
828.716	25833
828.855	25548
828.994	25540
829.134	25499
829.273	25445
829.412	25350
829.551	25282
829.69	25403
829.829	25369
829.968	25468
830.107	25567
830.246	25434
830.385	25316
830.524	25312
830.663	25247
830.802	25263
830.941	25046
831.08	24871
831.219	25187
831.357	25053
831.496	25206
831.635	25152
831.774	24970
831.913	24848
832.051	24867
832.19	24829
832.329	24810
832.467	24719
832.606	24779
832.744	24726
832.883	24677
833.022	24646
833.16	24817
833.299	24798
833.437	24726
833.576	24825
833.714	24772
833.852	24867
833.991	24901
834.129	24913
834.267	25027
834.406	24741
834.544	24920
834.682	24798
834.821	24738
834.959	24958
835.097	24760
835.235	24856
835.373	24726
835.511	24894
835.65	24646
835.788	24715
835.926	24414
836.064	24296
836.202	24410
836.34	24555
836.478	24745
836.615	24669
836.753	24688
836.891	24798
837.029	24722
837.167	24585
837.305	24521
837.443	24525
837.58	24456
837.718	24578
837.856	24380
837.993	24330
838.131	24460
838.269	24205
838.406	24452
838.544	24262
838.681	24102
838.819	24209
838.956	23843
839.094	23832
839.231	23870
839.369	24121
839.506	24407
839.643	24095
839.781	23927
839.918	23885
840.055	23950
840.193	23908
840.33	23817
840.467	23901
840.604	23805
840.742	24011
840.879	23767
841.016	23767
841.153	23771
841.29	23988
841.427	23897
841.564	23942
841.701	23958
841.838	23889
841.975	23710
842.112	23748
842.249	23630
842.385	23627
842.522	23783
842.659	23665
842.796	23634
842.933	23630
843.069	23547
843.206	23642
843.343	23600
843.479	23566
843.616	23600
843.752	23337
843.889	23486
844.025	23307
844.162	23334
844.298	23376
844.435	23402
844.571	23433
844.708	23421
844.844	23558
844.98	23482
845.117	23562
845.253	23280
845.389	23197
845.525	23395
845.661	23223
845.798	23071
845.934	23231
846.07	23086
846.206	23258
846.342	23140
846.478	23102
846.614	22911
846.75	22892
846.886	22828
847.022	22801
847.158	22733
847.294	22919
847.429	22831
847.565	22752
847.701	23060
847.837	22531
847.972	22637
848.108	22721
848.244	22653
848.379	22394
848.515	22432
848.65	22341
848.786	22447
848.921	22535
849.057	22550
849.192	22462
849.328	22485
849.463	22466
849.598	22409
849.734	22379
849.869	22287
850.004	22295
850.14	22268
850.275	22261
850.41	22139
850.545	22204
850.68	22204
850.815	22234
850.95	22272
851.085	22329
851.22	22169
851.355	22280
851.49	22196
851.625	22177
851.76	22200
851.895	22074
852.03	21960
852.165	22207
852.299	22234
852.434	22280
852.569	22204
852.703	22131
852.838	22325
852.973	22291
853.107	22276
853.242	22097
853.376	22070
853.511	21945
853.645	21953
853.78	22143
853.914	21972
854.048	22051
854.183	21911
854.317	22063
854.451	22299
854.585	22040
854.72	22029
854.854	22067
854.988	21953
855.122	21899
855.256	21869
855.39	21930
855.524	22120
855.658	22082
855.792	21918
855.926	22051
856.06	22063
856.194	22112
856.327	22006
856.461	22010
856.595	21960
856.729	22059
856.862	22177
856.996	22059
857.13	22154
857.263	22128
857.397	22101
857.53	21930
857.664	21983
857.797	22055
857.931	22055
858.064	22006
858.197	22063
858.331	21895
858.464	21991
858.597	21941
858.731	21899
858.864	21972
858.997	22040
859.13	22021
859.263	21991
859.396	22070
859.529	21918
859.662	22006
859.795	21964
859.928	22082
860.061	22029
860.194	22303
860.327	22002
860.46	22013
860.592	22025
860.725	22158
860.858	22219
860.99	22055
861.123	21899
861.256	21949
861.388	22048
861.521	22660
861.653	21911
861.786	21850
861.918	21781
862.05	21808
862.183	21846
862.315	21956
862.447	22051
862.58	21968
862.712	21675
862.844	21682
862.976	21778
863.108	21774
863.24	22280
863.372	21675
863.504	21709
863.636	21572
863.768	21762
863.9	21663
864.032	21686
864.164	21682
864.296	21728
864.428	21823
864.559	21800
864.691	21739
864.823	21781
864.954	21751
865.086	21633
865.217	21561
865.349	21622
865.48	21701
865.612	21561
865.743	21755
865.875	21591
866.006	21458
866.137	21580
866.269	21622
866.4	21583
866.531	21526
866.662	21538
866.793	21481
866.924	21389
867.055	21557
867.186	21599
867.317	21568
867.448	21378
867.579	21576
867.71	21462
867.841	21458
867.972	21416
868.103	21526
868.233	21435
868.364	21496
868.495	21603
868.625	21857
868.756	21930
868.886	21625
869.017	21838
869.147	21922
869.278	21861
869.408	21705
869.539	21644
869.669	21819
869.799	21831
869.929	21964
870.06	21922
870.19	22131
870.32	22036
870.45	22112
870.58	22291
870.71	22371
870.84	22261
870.97	22162
871.1	22230
871.23	22287
871.36	22352
871.489	22333
871.619	22344
871.749	22344
871.879	22337
872.008	22451
872.138	22424
872.267	22291
872.397	22162
872.526	22188
872.656	22287
872.785	22223
872.915	22413
873.044	22565
873.173	22360
873.303	22493
873.432	22443
873.561	22306
873.69	22443
873.819	22356
873.948	22371
874.077	22219
874.206	22325
874.335	22394
874.464	22538
874.593	22538
874.722	22493
874.851	22535
874.979	22584
875.108	22660
875.237	22577
875.365	22527
875.494	22512
875.623	22675
875.751	22611
875.88	22519
876.008	22653
876.136	22763
876.265	22961
876.393	23033
876.521	23083
876.65	23136
876.778	23003
876.906	22911
877.034	22957
877.162	22934
877.29	22911
877.418	22923
877.546	22831
877.674	23022
877.802	22934
877.93	22866
878.058	22824
878.185	22812
878.313	22831
878.441	22847
878.568	22782
878.696	22820
878.824	22942
878.951	22965
879.079	23113
879.206	23292
879.333	23067
879.461	22877
879.588	23014
879.715	22923
879.842	23231
879.97	23048
880.097	22755
880.224	22733
880.351	22771
880.478	22702
880.605	22630
880.732	22717
880.859	22930
880.986	22752
881.112	22812
881.239	22641
881.366	22485
881.493	22478
881.619	22265
881.746	22318
881.872	22162
881.999	22291
882.125	22246
882.252	22398
882.378	22249
882.505	22386
882.631	22181
882.757	22051
882.883	22002
883.01	22063
883.136	21949
883.262	21785
883.388	21778
883.514	21979
883.64	21983
883.766	21888
883.892	21823
884.018	21797
884.143	21876
884.269	22017
884.395	21789
884.52	21561
884.646	21652
884.772	21644
884.897	21549
885.023	21739
885.148	21781
885.274	21842
885.399	21717
885.524	21648
885.65	21667
885.775	21717
885.9	21724
886.025	21797
886.15	21743
886.275	21728
886.4	21591
886.525	21622
886.65	21549
886.775	21420
886.9	21705
887.025	21671
887.149	21576
887.274	21466
887.399	21291
887.523	21359
887.648	21443
887.773	21336
887.897	21511
888.021	21496
888.146	21488
888.27	21473
888.395	21473
888.519	21408
888.643	21363
888.767	21428
888.891	21359
889.015	21199
889.139	21249
889.263	21226
889.387	21389
889.511	21382
889.635	21329
889.759	21249
889.883	21123
890.006	21188
890.13	21241
890.254	21169
890.377	21169
890.501	21017
890.624	20914
890.748	21009
890.871	20830
890.995	20731
891.118	20727
891.241	20811
891.364	20629
891.488	20830
891.611	20777
891.734	20777
891.857	20777
891.98	20739
892.103	20800
892.226	20796
892.349	20712
892.471	20575
892.594	20644
892.717	20701
892.839	20629
892.962	20705
893.085	20663
893.207	20613
893.33	20556
893.452	20598
893.575	20731
893.697	20533
893.819	20849
893.941	20902
894.064	20777
894.186	20670
894.308	20583
894.43	20712
894.552	20792
894.674	20739
894.796	20564
894.918	20625
895.04	20533
895.161	20689
895.283	20659
895.405	20545
895.526	20579
895.648	20697
895.769	20678
895.891	20655
896.012	20621
896.134	20587
896.255	20735
896.376	20594
896.498	20701
896.619	20621
896.74	20571
896.861	20678
896.982	20933
897.103	21066
897.224	20861
897.345	20941
897.466	20826
897.587	20857
897.708	20849
897.828	20811
897.949	20674
898.07	20686
898.19	20765
898.311	20956
898.431	20689
898.552	20868
898.672	20845
898.792	20792
898.913	20830
899.033	20644
899.153	20640
899.273	20583
899.393	20518
899.513	20648
899.633	20571
899.753	20670
899.873	20552
899.993	20568
900.113	20507
900.232	20473
900.352	20431
900.472	20396
900.591	20366
900.711	20294
900.83	20309
900.95	20438
901.069	20374
901.189	20263
901.308	19883
901.427	19989
901.546	19978
901.665	19993
901.784	19955
901.904	19746
902.023	19734
902.141	19449
902.26	19381
902.379	19575
902.498	19434
902.617	19426
902.735	19480
902.854	19381
902.973	19350
903.091	19114
903.21	19156
903.328	19217
903.446	18951
903.565	18859
903.683	18859
903.801	18738
903.919	18738
904.038	18837
904.156	18738
904.274	18745
904.392	18627
904.51	18623
904.627	18642
904.745	18646
904.863	18681
904.981	18445
905.098	18289
905.216	18479
905.334	18300
905.451	18395
905.569	18254
905.686	18266
905.803	18323
905.921	18155
906.038	18163
906.155	18057
906.272	18057
906.389	18041
906.506	17889
906.623	17973
906.74	17836
906.857	17767
906.974	17764
907.091	17863
907.208	17843
907.324	17942
907.441	17821
907.557	17604
907.674	17642
907.79	17410
907.907	17509
908.023	17581
908.139	17551
908.256	17638
908.372	17463
908.488	17436
908.604	17448
908.72	17303
908.836	17280
908.952	17337
909.068	17334
909.184	17356
909.3	17337
909.415	17398
909.531	17337
909.647	16991
909.762	17052
909.878	16972
909.993	16984
910.108	17025
910.224	16862
910.339	16938
910.454	16866
910.57	16698
910.685	16729
910.8	16980
910.915	16873
911.03	16793
911.145	16569
911.259	16512
911.374	16607
911.489	16538
911.604	16516
911.718	16398
911.833	16382
911.947	16242
912.062	16166
912.176	16162
912.291	16238
912.405	16356
912.519	16462
912.633	16508
912.748	16363
912.862	16230
912.976	16169
913.09	15945
913.204	16093
913.318	16166
913.431	16131
913.545	16242
913.659	16238
913.772	16040
913.886	15842
914	15972
914.113	15987
914.226	16002
914.34	16044
914.453	15800
914.566	15880
914.68	15869
914.793	15823
914.906	15572
915.019	15428
915.132	15530
915.245	15530
915.358	15572
915.47	15595
915.583	15534
915.696	15572
915.809	15584
915.921	15671
916.034	15462
916.146	15412
916.259	15363
916.371	15412
916.483	15492
916.595	15249
916.708	15321
916.82	15351
916.932	15344
917.044	15298
917.156	15195
917.268	15211
917.38	15131
917.491	15169
917.603	15108
917.715	15207
917.826	15237
917.938	15043
918.049	14971
918.161	15116
918.272	15249
918.384	15230
918.495	15169
918.606	14956
918.717	14891
918.828	14971
918.939	14895
919.05	14864
919.161	14906
919.272	14655
919.383	14739
919.494	14899
919.604	15085
919.715	15028
919.826	14758
919.936	14864
920.047	14975
920.157	14807
920.267	14960
920.378	14876
920.488	14693
920.598	14975
920.708	15249
920.818	14902
920.928	15020
921.038	15070
921.148	15104
921.258	14739
921.368	14632
921.477	14606
921.587	14537
921.697	14438
921.806	14587
921.916	14503
922.025	14377
922.134	14275
922.244	14123
922.353	14278
922.462	14050
922.571	14054
922.68	13887
922.789	13837
922.898	13883
923.007	13784
923.116	13879
923.224	13913
923.333	13734
923.442	13750
923.55	13582
923.659	13704
923.767	13845
923.876	13666
923.984	13734
924.092	13609
924.201	13620
924.309	13632
924.417	13613
924.525	13567
924.633	13544
924.741	14366
924.849	13430
924.956	13392
925.064	13270
925.172	13179
925.279	13324
925.387	13225
925.494	13240
925.602	13346
925.709	13308
925.816	13126
925.924	13156
926.031	13247
926.138	13171
926.245	13217
926.352	13088
926.459	13179
926.566	13297
926.673	13114
926.779	13053
926.886	13076
926.993	12901
927.099	12764
927.206	12764
927.312	12753
927.419	12897
927.525	12741
927.631	12779
927.737	12654
927.843	12665
927.95	12532
928.056	12593
928.162	12669
928.267	12715
928.373	13190
928.479	12741
928.585	12399
928.69	12566
928.796	12570
928.901	12517
929.007	12308
929.112	12570
929.218	12502
929.323	12479
929.428	12323
929.533	12513
929.638	12213
929.743	12292
929.848	12456
929.953	12228
930.058	12213
930.163	12114
930.267	11984
930.372	12197
930.477	11946
930.581	12125
930.685	12019
930.79	11916
930.894	11977
930.998	11863
931.103	12022
931.207	11745
931.311	11551
931.415	11551
931.519	11273
931.623	11220
