Data from test_V78500241_2549.txt Node
Date: Fri Mar 25 15:27:36 CST 2022
User: usil
Spectrometer: V785-0024
Trigger mode: 0
Integration Time (sec): 4.000000E-1
Scans to average: 1
Nonlinearity correction enabled: false
Boxcar width: 0
Storing dark spectrum: false
XAxis mode: Wavelengths
Number of Pixels in Spectrum: 1024
>>>>>Begin Spectral Data<<<<<
801.071	27287
801.214	27150
801.356	26910
801.499	26849
801.641	26682
801.783	26765
801.926	26849
802.068	26826
802.211	26651
802.353	26533
802.496	26571
802.638	26495
802.78	26233
802.923	26313
803.065	26210
803.208	26298
803.35	26431
803.492	26415
803.635	26571
803.777	26431
803.919	26583
804.061	26792
804.204	26533
804.346	26579
804.488	26476
804.63	26511
804.773	26453
804.915	26560
805.057	26579
805.199	26556
805.341	26651
805.483	26788
805.626	26754
805.768	26522
805.91	26594
806.052	26632
806.194	26575
806.336	26804
806.478	26682
806.62	26705
806.762	26792
806.904	26967
807.046	27180
807.188	27173
807.33	26925
807.472	27089
807.614	26914
807.756	26979
807.898	26956
808.04	26967
808.182	26883
808.324	26914
808.465	26971
808.607	27116
808.749	27222
808.891	27291
809.033	27378
809.174	27298
809.316	27161
809.458	27214
809.6	27195
809.741	27287
809.883	27336
810.025	27549
810.166	27557
810.308	27606
810.45	27496
810.591	27511
810.733	27195
810.875	27173
811.016	27279
811.158	27077
811.299	27336
811.441	27386
811.582	27405
811.724	27336
811.865	27157
812.007	27146
812.148	27161
812.29	27230
812.431	27462
812.573	27424
812.714	27694
812.855	27808
812.997	27694
813.138	27964
813.279	27888
813.421	27625
813.562	27637
813.703	27488
813.845	27408
813.986	27169
814.127	27119
814.268	26785
814.41	26944
814.551	26876
814.692	26975
814.833	26739
814.974	26937
815.115	26712
815.256	26804
815.397	26842
815.539	26667
815.68	26758
815.821	26609
815.962	26735
816.103	26629
816.244	26560
816.385	26427
816.526	26423
816.666	26271
816.807	26161
816.948	26218
817.089	26412
817.23	26183
817.371	26142
817.512	26271
817.653	26237
817.793	26084
817.934	26229
818.075	26225
818.216	26195
818.356	26088
818.497	25944
818.638	25921
818.778	25944
818.919	25917
819.06	25986
819.2	26024
819.341	26069
819.481	26020
819.622	26278
819.762	26503
819.903	26469
820.043	26461
820.184	26206
820.324	26313
820.465	26263
820.605	26183
820.746	26195
820.886	26134
821.026	26180
821.167	26286
821.307	26237
821.447	26142
821.588	26058
821.728	25997
821.868	25791
822.008	25651
822.149	25807
822.289	25624
822.429	25362
822.569	25426
822.709	25346
822.849	25072
822.99	25065
823.13	25099
823.27	25107
823.41	24814
823.55	24859
823.69	24951
823.83	24996
823.97	24875
824.11	24623
824.25	24700
824.389	24768
824.529	24825
824.669	24806
824.809	24848
824.949	24954
825.089	24810
825.228	24859
825.368	24623
825.508	24585
825.648	24620
825.787	24623
825.927	24642
826.067	24650
826.206	24711
826.346	24745
826.485	24745
826.625	24681
826.765	24776
826.904	24738
827.044	24467
827.183	24365
827.323	24334
827.462	24464
827.601	24403
827.741	24410
827.88	24433
828.02	24277
828.159	24426
828.298	24300
828.437	24433
828.577	24315
828.716	24410
828.855	24220
828.994	24018
829.134	24083
829.273	24072
829.412	24114
829.551	23980
829.69	24106
829.829	24114
829.968	24190
830.107	24182
830.246	24064
830.385	23980
830.524	24045
830.663	23855
830.802	23737
830.941	23623
831.08	23707
831.219	23722
831.357	23931
831.496	24030
831.635	23657
831.774	23581
831.913	23672
832.051	23512
832.19	23490
832.329	23490
832.467	23471
832.606	23223
832.744	23231
832.883	23368
833.022	23303
833.16	23410
833.299	23482
833.437	23482
833.576	23467
833.714	23379
833.852	23649
833.991	23497
834.129	23516
834.267	23455
834.406	23444
834.544	23566
834.682	23478
834.821	23436
834.959	23684
835.097	23315
835.235	23505
835.373	23459
835.511	23414
835.65	23402
835.788	23303
835.926	23189
836.064	23010
836.202	23151
836.34	23311
836.478	23455
836.615	23360
836.753	23326
836.891	23334
837.029	23315
837.167	23067
837.305	23242
837.443	23151
837.58	23105
837.718	23242
837.856	23102
837.993	23083
838.131	23094
838.269	23037
838.406	23102
838.544	23075
838.681	22736
838.819	22831
838.956	22668
839.094	22580
839.231	22641
839.369	22740
839.506	23022
839.643	22900
839.781	22702
839.918	22462
840.055	22679
840.193	22577
840.33	22474
840.467	22577
840.604	22622
840.742	22835
840.879	22462
841.016	22512
841.153	22459
841.29	22664
841.427	22523
841.564	22561
841.701	22440
841.838	22497
841.975	22409
842.112	22447
842.249	22432
842.385	22310
842.522	22497
842.659	22455
842.796	22299
842.933	22421
843.069	22284
843.206	22371
843.343	22356
843.479	22318
843.616	22280
843.752	22124
843.889	22112
844.025	22158
844.162	22131
844.298	22082
844.435	22219
844.571	21972
844.708	22207
844.844	22173
844.98	22207
845.117	22131
845.253	22002
845.389	21960
845.525	22093
845.661	21934
845.798	21797
845.934	21831
846.07	21633
846.206	21850
846.342	21895
846.478	21804
846.614	21622
846.75	21530
846.886	21511
847.022	21667
847.158	21496
847.294	21545
847.429	21652
847.565	21671
847.701	21835
847.837	21374
847.972	21199
848.108	21355
848.244	21313
848.379	21188
848.515	21249
848.65	21028
848.786	21192
848.921	21184
849.057	21405
849.192	21264
849.328	20971
849.463	21184
849.598	21192
849.734	21039
849.869	20925
850.004	20933
850.14	20982
850.275	20891
850.41	20834
850.545	21043
850.68	20880
850.815	21051
850.95	20826
851.085	21180
851.22	21096
851.355	20948
851.49	20895
851.625	20899
851.76	20956
851.895	20811
852.03	20815
852.165	20941
852.299	20914
852.434	20925
852.569	20982
852.703	20986
852.838	20944
852.973	21013
853.107	21100
853.242	20902
853.376	20807
853.511	20678
853.645	20819
853.78	20788
853.914	20686
854.048	20754
854.183	20674
854.317	20678
854.451	20944
854.585	20758
854.72	20762
854.854	20686
854.988	20674
855.122	20792
855.256	20575
855.39	20796
855.524	20880
855.658	20621
855.792	20891
855.926	20762
856.06	20838
856.194	20754
856.327	20705
856.461	20602
856.595	20640
856.729	20613
856.862	20857
856.996	20815
857.13	20781
857.263	20830
857.397	20876
857.53	20701
857.664	20838
857.797	20811
857.931	20868
858.064	20857
858.197	20849
858.331	20773
858.464	20800
858.597	20621
858.731	20750
858.864	20724
858.997	20686
859.13	20826
859.263	20769
859.396	20765
859.529	20716
859.662	20720
859.795	20693
859.928	20659
860.061	20948
860.194	20845
860.327	20849
860.46	20868
860.592	20921
860.725	20902
860.858	20864
860.99	20765
861.123	20663
861.256	20750
861.388	20735
861.521	21359
861.653	20568
861.786	20613
861.918	20522
862.05	20640
862.183	20720
862.315	20659
862.447	20667
862.58	20758
862.712	20495
862.844	20423
862.976	20606
863.108	20446
863.24	20872
863.372	20476
863.504	20377
863.636	20362
863.768	20495
863.9	20492
864.032	20408
864.164	20415
864.296	20598
864.428	20552
864.559	20594
864.691	20518
864.823	20476
864.954	20461
865.086	20465
865.217	20389
865.349	20298
865.48	20233
865.612	20533
865.743	20625
865.875	20495
866.006	20370
866.137	20427
866.269	20313
866.4	20309
866.531	20347
866.662	20298
866.793	20187
866.924	20267
867.055	20457
867.186	20362
867.317	20313
867.448	20126
867.579	20343
867.71	20161
867.841	20328
867.972	20438
868.103	20301
868.233	20343
868.364	20362
868.495	20446
868.625	20450
868.756	20613
868.886	20533
869.017	20514
869.147	20716
869.278	20701
869.408	20609
869.539	20587
869.669	20571
869.799	20530
869.929	20651
870.06	20689
870.19	20807
870.32	20861
870.45	20902
870.58	21024
870.71	21020
870.84	21089
870.97	20933
871.1	20982
871.23	21039
871.36	21119
871.489	21157
871.619	21119
871.749	21154
871.879	21230
872.008	21180
872.138	21161
872.267	21142
872.397	21135
872.526	21062
872.656	20994
872.785	20998
872.915	21188
873.044	21287
873.173	21138
873.303	21207
873.432	21199
873.561	21458
873.69	21203
873.819	21146
873.948	21256
874.077	21131
874.206	21138
874.335	21218
874.464	21313
874.593	21481
874.722	21363
874.851	21386
874.979	21370
875.108	21576
875.237	21435
875.365	21252
875.494	21264
875.623	21549
875.751	21363
875.88	21507
876.008	21340
876.136	21534
876.265	21857
876.393	22010
876.521	21785
876.65	21770
876.778	21823
876.906	21759
877.034	21823
877.162	21759
877.29	21648
877.418	21850
877.546	21736
877.674	21770
877.802	21694
877.93	21637
878.058	21648
878.185	21618
878.313	21762
878.441	21637
878.568	21534
878.696	21644
878.824	21751
878.951	21888
879.079	21827
879.206	22017
879.333	21991
879.461	21778
879.588	21888
879.715	21926
879.842	22124
879.97	21789
880.097	21595
880.224	21591
880.351	21644
880.478	21599
880.605	21652
880.732	21576
880.859	21854
880.986	21648
881.112	21671
881.239	21370
881.366	21370
881.493	21249
881.619	21062
881.746	21260
881.872	21173
881.999	21245
882.125	21165
882.252	21226
882.378	21260
882.505	21291
882.631	21127
882.757	20864
882.883	20864
883.01	20937
883.136	20880
883.262	20864
883.388	20705
883.514	20891
883.64	20830
883.766	20762
883.892	20693
884.018	20659
884.143	20735
884.269	20819
884.395	20609
884.52	20495
884.646	20598
884.772	20381
884.897	20408
885.023	20469
885.148	20598
885.274	20655
885.399	20587
885.524	20522
885.65	20499
885.775	20507
885.9	20583
886.025	20682
886.15	20632
886.275	20454
886.4	20461
886.525	20499
886.65	20560
886.775	20400
886.9	20552
887.025	20651
887.149	20423
887.274	20412
887.399	20267
887.523	20336
887.648	20278
887.773	20039
887.897	20339
888.021	20347
888.146	20381
888.27	20358
888.395	20396
888.519	20317
888.643	20461
888.767	20332
888.891	20168
889.015	20058
889.139	20286
889.263	20119
889.387	20278
889.511	20381
889.635	20233
889.759	20153
889.883	20031
890.006	20126
890.13	20206
890.254	20043
890.377	20084
890.501	19902
890.624	19784
890.748	19967
890.871	19757
890.995	19715
891.118	19715
891.241	19670
891.364	19750
891.488	19871
891.611	19727
891.734	19738
891.857	19780
891.98	19769
892.103	19757
892.226	19830
892.349	19674
892.471	19453
892.594	19594
892.717	19586
892.839	19586
892.962	19712
893.085	19613
893.207	19590
893.33	19552
893.452	19582
893.575	19525
893.697	19609
893.819	19715
893.941	19811
894.064	19826
894.186	19586
894.308	19609
894.43	19928
894.552	19731
894.674	19772
894.796	19605
894.918	19540
895.04	19674
895.161	19643
895.283	19742
895.405	19518
895.526	19605
895.648	19571
895.769	19651
895.891	19590
896.012	19765
896.134	19670
896.255	19613
896.376	19681
896.498	19677
896.619	19799
896.74	19670
896.861	19632
896.982	20020
897.103	20069
897.224	19849
897.345	19944
897.466	19917
897.587	19822
897.708	19951
897.828	19883
897.949	19849
898.07	19677
898.19	19849
898.311	19997
898.431	19791
898.552	19784
898.672	19784
898.792	19917
898.913	19963
899.033	19681
899.153	19700
899.273	19495
899.393	19658
899.513	19795
899.633	19727
899.753	19578
899.873	19624
899.993	19590
900.113	19506
900.232	19685
900.352	19510
900.472	19445
900.591	19308
900.711	19373
900.83	19266
900.95	19445
901.069	19430
901.189	19331
901.308	19057
901.427	18962
901.546	18989
901.665	19080
901.784	18913
901.904	18696
902.023	18741
902.141	18532
902.26	18486
902.379	18604
902.498	18486
902.617	18418
902.735	18540
902.854	18528
902.973	18513
903.091	18247
903.21	18243
903.328	18152
903.446	18114
903.565	18034
903.683	18011
903.801	17802
903.919	17863
904.038	17984
904.156	17767
904.274	17813
904.392	17786
904.51	17745
904.627	17684
904.745	17809
904.863	17748
904.981	17615
905.098	17398
905.216	17448
905.334	17478
905.451	17478
905.569	17452
905.686	17402
905.803	17417
905.921	17166
906.038	17292
906.155	17197
906.272	17235
906.389	17250
906.506	17029
906.623	17064
906.74	17029
906.857	16881
906.974	16881
907.091	17136
907.208	17181
907.324	17010
907.441	16850
907.557	16763
907.674	16641
907.79	16694
907.907	16561
908.023	16710
908.139	16736
908.256	16630
908.372	16637
908.488	16706
908.604	16561
908.72	16421
908.836	16409
908.952	16371
909.068	16436
909.184	16637
909.3	16478
909.415	16535
909.531	16363
909.647	16314
909.762	16101
909.878	16055
909.993	16268
910.108	16158
910.224	16044
910.339	16154
910.454	15949
910.57	15960
910.685	15888
910.8	16162
910.915	16131
911.03	16006
911.145	15827
911.259	15762
911.374	15766
911.489	15667
911.604	15595
911.718	15568
911.833	15557
911.947	15523
912.062	15378
912.176	15523
912.291	15523
912.405	15603
912.519	15629
912.633	15728
912.748	15580
912.862	15545
912.976	15348
913.09	15249
913.204	15260
913.318	15359
913.431	15428
913.545	15355
913.659	15458
913.772	15279
913.886	15112
914	15058
914.113	15279
914.226	15192
914.34	15195
914.453	15066
914.566	15131
914.68	15032
914.793	15009
914.906	14815
915.019	14746
915.132	14781
915.245	14788
915.358	14804
915.47	14720
915.583	14754
915.696	14838
915.809	14830
915.921	14823
916.034	14769
916.146	14617
916.259	14644
916.371	14746
916.483	14705
916.595	14610
916.708	14640
916.82	14682
916.932	14587
917.044	14492
917.156	14476
917.268	14465
917.38	14469
917.491	14328
917.603	14347
917.715	14476
917.826	14511
917.938	14385
918.049	14221
918.161	14286
918.272	14495
918.384	14507
918.495	14465
918.606	14126
918.717	14126
918.828	14153
918.939	14221
919.05	14134
919.161	14092
919.272	13993
919.383	14062
919.494	14290
919.604	14271
919.715	14088
919.826	14027
919.936	14069
920.047	14187
920.157	14161
920.267	14275
920.378	14111
920.488	14142
920.598	14317
920.708	14461
920.818	14252
920.928	14252
921.038	14450
921.148	14385
921.258	14119
921.368	13963
921.477	13887
921.587	13913
921.697	13871
921.806	13951
921.916	13799
922.025	13548
922.134	13468
922.244	13556
922.353	13605
922.462	13365
922.571	13407
922.68	13251
922.789	13278
922.898	13187
923.007	13091
923.116	13152
923.224	13122
923.333	13232
923.442	13110
923.55	13057
923.659	12989
923.767	13171
923.876	13004
923.984	13057
924.092	12954
924.201	12958
924.309	12951
924.417	12962
924.525	12894
924.633	12894
924.741	13719
924.849	12692
924.956	12825
925.064	12604
925.172	12593
925.279	12662
925.387	12696
925.494	12639
925.602	12730
925.709	12642
925.816	12540
925.924	12551
926.031	12642
926.138	12646
926.245	12544
926.352	12479
926.459	12627
926.566	12601
926.673	12525
926.779	12403
926.886	12365
926.993	12216
927.099	12201
927.206	12155
927.312	12144
927.419	12342
927.525	12194
927.631	12247
927.737	12125
927.843	12034
927.95	11901
928.056	12049
928.162	12011
928.267	11980
928.373	12684
928.479	12106
928.585	11901
928.69	12076
928.796	12034
928.901	11916
929.007	11729
929.112	11866
929.218	11836
929.323	11756
929.428	11699
929.533	11851
929.638	11695
929.743	11726
929.848	11760
929.953	11722
930.058	11634
930.163	11360
930.267	11459
930.372	11592
930.477	11433
930.581	11668
930.685	11467
930.79	11322
930.894	11395
930.998	11318
931.103	11566
931.207	11079
931.311	11052
931.415	11029
931.519	10774
931.623	10763
