Data from test_V78500241_2426.txt Node
Date: Fri Mar 25 15:26:45 CST 2022
User: usil
Spectrometer: V785-0024
Trigger mode: 0
Integration Time (sec): 4.000000E-1
Scans to average: 1
Nonlinearity correction enabled: false
Boxcar width: 0
Storing dark spectrum: false
XAxis mode: Wavelengths
Number of Pixels in Spectrum: 1024
>>>>>Begin Spectral Data<<<<<
801.071	27211
801.214	27230
801.356	27051
801.499	26994
801.641	26739
801.783	26895
801.926	26899
802.068	26910
802.211	26746
802.353	26689
802.496	26594
802.638	26267
802.78	26415
802.923	26355
803.065	26385
803.208	26457
803.35	26503
803.492	26495
803.635	26568
803.777	26518
803.919	26788
804.061	26823
804.204	26678
804.346	26511
804.488	26423
804.63	26609
804.773	26545
804.915	26568
805.057	26701
805.199	26564
805.341	26750
805.483	26678
805.626	26705
805.768	26480
805.91	26686
806.052	26724
806.194	26625
806.336	26773
806.478	26746
806.62	26720
806.762	26762
806.904	27074
807.046	27252
807.188	27077
807.33	27173
807.472	27074
807.614	26994
807.756	27077
807.898	27028
808.04	26944
808.182	26891
808.324	27093
808.465	27096
808.607	27081
808.749	27237
808.891	27378
809.033	27507
809.174	27249
809.316	27287
809.458	27302
809.6	27348
809.741	27454
809.883	27260
810.025	27553
810.166	27633
810.308	27504
810.45	27447
810.591	27443
810.733	27252
810.875	27157
811.016	27207
811.158	27192
811.299	27317
811.441	27291
811.582	27473
811.724	27363
811.865	27241
812.007	27340
812.148	27283
812.29	27279
812.431	27325
812.573	27469
812.714	27709
812.855	27747
812.997	27831
813.138	27907
813.279	27823
813.421	27922
813.562	27705
813.703	27641
813.845	27408
813.986	27214
814.127	27062
814.268	26967
814.41	26990
814.551	26960
814.692	26940
814.833	26804
814.974	26823
815.115	27013
815.256	26686
815.397	26906
815.539	26899
815.68	26697
815.821	26724
815.962	26762
816.103	26670
816.244	26613
816.385	26526
816.526	26484
816.666	26374
816.807	26153
816.948	26301
817.089	26301
817.23	26199
817.371	26385
817.512	26168
817.653	26202
817.793	26088
817.934	26187
818.075	26229
818.216	26221
818.356	26214
818.497	26161
818.638	25750
818.778	25902
818.919	25932
819.06	26073
819.2	26046
819.341	26122
819.481	26221
819.622	26419
819.762	26587
819.903	26469
820.043	26389
820.184	26240
820.324	26389
820.465	26389
820.605	26225
820.746	26400
820.886	26107
821.026	26195
821.167	26400
821.307	26252
821.447	26206
821.588	26149
821.728	25986
821.868	25849
822.008	25647
822.149	25693
822.289	25556
822.429	25381
822.569	25358
822.709	25381
822.849	25270
822.99	25187
823.13	25137
823.27	25228
823.41	24886
823.55	24882
823.69	24943
823.83	24886
823.97	24871
824.11	24882
824.25	24791
824.389	24783
824.529	24909
824.669	24741
824.809	24913
824.949	24875
825.089	24989
825.228	24825
825.368	24635
825.508	24623
825.648	24684
825.787	24787
825.927	24703
826.067	24502
826.206	24684
826.346	24798
826.485	24604
826.625	24730
826.765	24871
826.904	24806
827.044	24441
827.183	24433
827.323	24418
827.462	24414
827.601	24376
827.741	24403
827.88	24566
828.02	24346
828.159	24376
828.298	24376
828.437	24426
828.577	24433
828.716	24445
828.855	24171
828.994	24148
829.134	24030
829.273	24186
829.412	24117
829.551	23996
829.69	24140
829.829	24194
829.968	24148
830.107	24228
830.246	24144
830.385	24098
830.524	23977
830.663	23939
830.802	23748
830.941	23752
831.08	23566
831.219	23809
831.357	23779
831.496	23961
831.635	23592
831.774	23604
831.913	23638
832.051	23543
832.19	23455
832.329	23520
832.467	23353
832.606	23376
832.744	23379
832.883	23345
833.022	23505
833.16	23410
833.299	23364
833.437	23459
833.576	23417
833.714	23566
833.852	23596
833.991	23554
834.129	23528
834.267	23516
834.406	23589
834.544	23410
834.682	23452
834.821	23539
834.959	23551
835.097	23364
835.235	23543
835.373	23486
835.511	23429
835.65	23208
835.788	23235
835.926	23003
836.064	22999
836.202	23162
836.34	23261
836.478	23315
836.615	23364
836.753	23246
836.891	23277
837.029	23113
837.167	23292
837.305	23151
837.443	23170
837.58	23086
837.718	23181
837.856	23185
837.993	23079
838.131	23178
838.269	23052
838.406	23102
838.544	22980
838.681	22771
838.819	22702
838.956	22694
839.094	22531
839.231	22649
839.369	22858
839.506	23140
839.643	22949
839.781	22664
839.918	22637
840.055	22694
840.193	22573
840.33	22580
840.467	22622
840.604	22538
840.742	22733
840.879	22413
841.016	22436
841.153	22398
841.29	22611
841.427	22538
841.564	22607
841.701	22656
841.838	22519
841.975	22382
842.112	22451
842.249	22341
842.385	22226
842.522	22489
842.659	22386
842.796	22257
842.933	22242
843.069	22276
843.206	22287
843.343	22466
843.479	22265
843.616	22322
843.752	22150
843.889	22147
844.025	22116
844.162	22188
844.298	22200
844.435	22116
844.571	22135
844.708	22257
844.844	22211
844.98	22295
845.117	22078
845.253	22112
845.389	21994
845.525	22032
845.661	21835
845.798	21793
845.934	21743
846.07	21622
846.206	21842
846.342	21850
846.478	21797
846.614	21667
846.75	21477
846.886	21549
847.022	21660
847.158	21633
847.294	21675
847.429	21618
847.565	21496
847.701	21755
847.837	21378
847.972	21252
848.108	21344
848.244	21416
848.379	21142
848.515	21165
848.65	21207
848.786	21108
848.921	21039
849.057	21279
849.192	21336
849.328	21165
849.463	21047
849.598	21096
849.734	21043
849.869	20914
850.004	20819
850.14	20925
850.275	20948
850.41	20804
850.545	20899
850.68	20891
850.815	20914
850.95	20830
851.085	21104
851.22	21055
851.355	20899
851.49	20921
851.625	20807
851.76	20914
851.895	20853
852.03	20788
852.165	20963
852.299	20864
852.434	20948
852.569	20933
852.703	20781
852.838	20891
852.973	21150
853.107	21138
853.242	20883
853.376	20811
853.511	20708
853.645	20686
853.78	20838
853.914	20674
854.048	20769
854.183	20686
854.317	20811
854.451	20948
854.585	20594
854.72	20731
854.854	20773
854.988	20712
855.122	20625
855.256	20571
855.39	20708
855.524	20857
855.658	20868
855.792	20796
855.926	20754
856.06	20891
856.194	20735
856.327	20758
856.461	20697
856.595	20636
856.729	20632
856.862	20842
856.996	20811
857.13	20800
857.263	20788
857.397	20815
857.53	20724
857.664	20826
857.797	20788
857.931	20834
858.064	20724
858.197	20823
858.331	20712
858.464	20712
858.597	20663
858.731	20720
858.864	20621
858.997	20781
859.13	20727
859.263	20765
859.396	20792
859.529	20731
859.662	20750
859.795	20746
859.928	20792
860.061	20842
860.194	20880
860.327	20785
860.46	20815
860.592	20788
860.725	20876
860.858	20864
860.99	20686
861.123	20636
861.256	20590
861.388	20826
861.521	21291
861.653	20564
861.786	20450
861.918	20579
862.05	20549
862.183	20552
862.315	20629
862.447	20724
862.58	20606
862.712	20465
862.844	20431
862.976	20552
863.108	20377
863.24	20819
863.372	20408
863.504	20526
863.636	20484
863.768	20522
863.9	20412
864.032	20347
864.164	20282
864.296	20488
864.428	20541
864.559	20476
864.691	20473
864.823	20473
864.954	20377
865.086	20442
865.217	20404
865.349	20282
865.48	20393
865.612	20389
865.743	20415
865.875	20415
866.006	20332
866.137	20492
866.269	20271
866.4	20389
866.531	20248
866.662	20248
866.793	20370
866.924	20275
867.055	20320
867.186	20393
867.317	20214
867.448	20275
867.579	20301
867.71	20237
867.841	20202
867.972	20301
868.103	20343
868.233	20233
868.364	20374
868.495	20431
868.625	20530
868.756	20499
868.886	20537
869.017	20545
869.147	20739
869.278	20598
869.408	20708
869.539	20560
869.669	20560
869.799	20663
869.929	20583
870.06	20739
870.19	20823
870.32	20819
870.45	20963
870.58	20880
870.71	21058
870.84	21005
870.97	20891
871.1	20838
871.23	21112
871.36	21070
871.489	21009
871.619	20929
871.749	21138
871.879	21074
872.008	21272
872.138	21188
872.267	21169
872.397	20971
872.526	21009
872.656	21051
872.785	20975
872.915	21302
873.044	21218
873.173	21066
873.303	21233
873.432	21249
873.561	21287
873.69	21199
873.819	21165
873.948	21302
874.077	21188
874.206	21165
874.335	21096
874.464	21222
874.593	21450
874.722	21302
874.851	21382
874.979	21431
875.108	21462
875.237	21389
875.365	21344
875.494	21363
875.623	21447
875.751	21272
875.88	21435
876.008	21538
876.136	21648
876.265	21751
876.393	21922
876.521	21857
876.65	21918
876.778	21812
876.906	21808
877.034	21736
877.162	21804
877.29	21583
877.418	21732
877.546	21827
877.674	21759
877.802	21774
877.93	21717
878.058	21709
878.185	21545
878.313	21663
878.441	21903
878.568	21686
878.696	21698
878.824	21781
878.951	21789
879.079	21964
879.206	22055
879.333	21918
879.461	21728
879.588	21823
879.715	21960
879.842	22017
879.97	21720
880.097	21568
880.224	21576
880.351	21671
880.478	21530
880.605	21485
880.732	21545
880.859	21797
880.986	21591
881.112	21572
881.239	21401
881.366	21378
881.493	21192
881.619	21169
881.746	21283
881.872	21161
881.999	21089
882.125	21116
882.252	21055
882.378	21081
882.505	21218
882.631	21024
882.757	20921
882.883	21081
883.01	20941
883.136	20826
883.262	20686
883.388	20659
883.514	20948
883.64	20952
883.766	20842
883.892	20640
884.018	20773
884.143	20849
884.269	20921
884.395	20507
884.52	20461
884.646	20503
884.772	20556
884.897	20404
885.023	20564
885.148	20636
885.274	20663
885.399	20571
885.524	20590
885.65	20568
885.775	20522
885.9	20564
886.025	20629
886.15	20530
886.275	20450
886.4	20484
886.525	20457
886.65	20499
886.775	20347
886.9	20606
887.025	20705
887.149	20427
887.274	20377
887.399	20324
887.523	20339
887.648	20244
887.773	20176
887.897	20339
888.021	20385
888.146	20282
888.27	20298
888.395	20385
888.519	20396
888.643	20317
888.767	20309
888.891	20157
889.015	20092
889.139	20142
889.263	20020
889.387	20069
889.511	20415
889.635	20126
889.759	20077
889.883	19947
890.006	20069
890.13	20126
890.254	19997
890.377	20039
890.501	19814
890.624	19883
890.748	19913
890.871	19761
890.995	19571
891.118	19499
891.241	19700
891.364	19628
891.488	19849
891.611	19624
891.734	19613
891.857	19734
891.98	19677
892.103	19685
892.226	19658
892.349	19689
892.471	19422
892.594	19567
892.717	19529
892.839	19651
892.962	19658
893.085	19635
893.207	19499
893.33	19400
893.452	19483
893.575	19616
893.697	19540
893.819	19700
893.941	19750
894.064	19693
894.186	19476
894.308	19487
894.43	19693
894.552	19677
894.674	19715
894.796	19578
894.918	19472
895.04	19518
895.161	19689
895.283	19643
895.405	19552
895.526	19559
895.648	19605
895.769	19544
895.891	19700
896.012	19693
896.134	19685
896.255	19575
896.376	19571
896.498	19559
896.619	19533
896.74	19647
896.861	19635
896.982	19978
897.103	20043
897.224	19913
897.345	19795
897.466	19655
897.587	19742
897.708	19940
897.828	19894
897.949	19871
898.07	19685
898.19	19731
898.311	19864
898.431	19807
898.552	19814
898.672	19997
898.792	19898
898.913	19746
899.033	19647
899.153	19677
899.273	19613
899.393	19552
899.513	19590
899.633	19575
899.753	19613
899.873	19521
899.993	19563
900.113	19567
900.232	19556
900.352	19537
900.472	19400
900.591	19369
900.711	19304
900.83	19377
900.95	19396
901.069	19346
901.189	19213
901.308	19091
901.427	18837
901.546	18890
901.665	19053
901.784	19061
901.904	18837
902.023	18696
902.141	18471
902.26	18517
902.379	18502
902.498	18513
902.617	18407
902.735	18509
902.854	18536
902.973	18376
903.091	18129
903.21	18091
903.328	18121
903.446	18079
903.565	17916
903.683	17988
903.801	17980
903.919	17961
904.038	17828
904.156	17722
904.274	17843
904.392	17707
904.51	17764
904.627	17722
904.745	17802
904.863	17745
904.981	17467
905.098	17406
905.216	17280
905.334	17387
905.451	17330
905.569	17417
905.686	17433
905.803	17471
905.921	17208
906.038	17307
906.155	17189
906.272	17185
906.389	17113
906.506	16831
906.623	16904
906.74	16972
906.857	16820
906.974	16866
907.091	17006
907.208	17140
907.324	16942
907.441	16805
907.557	16733
907.674	16622
907.79	16653
907.907	16584
908.023	16710
908.139	16656
908.256	16618
908.372	16508
908.488	16592
908.604	16459
908.72	16348
908.836	16295
908.952	16337
909.068	16394
909.184	16417
909.3	16341
909.415	16485
909.531	16428
909.647	16139
909.762	16143
909.878	16185
909.993	16105
910.108	15998
910.224	15994
910.339	16055
910.454	15987
910.57	15911
910.685	15895
910.8	16131
910.915	16010
911.03	15812
911.145	15694
911.259	15728
911.374	15667
911.489	15629
911.604	15488
911.718	15439
911.833	15549
911.947	15386
912.062	15252
912.176	15477
912.291	15329
912.405	15416
912.519	15644
912.633	15526
912.748	15568
912.862	15469
912.976	15195
913.09	15199
913.204	15260
913.318	15241
913.431	15340
913.545	15416
913.659	15450
913.772	15157
913.886	15077
914	15074
914.113	15195
914.226	15074
914.34	15085
914.453	14914
914.566	15150
914.68	14986
914.793	14864
914.906	14712
915.019	14693
915.132	14606
915.245	14625
915.358	14708
915.47	14727
915.583	14720
915.696	14735
915.809	14857
915.921	14845
916.034	14636
916.146	14625
916.259	14587
916.371	14625
916.483	14632
916.595	14507
916.708	14556
916.82	14587
916.932	14400
917.044	14377
917.156	14415
917.268	14404
917.38	14362
917.491	14286
917.603	14377
917.715	14400
917.826	14412
917.938	14294
918.049	14206
918.161	14298
918.272	14434
918.384	14438
918.495	14309
918.606	14180
918.717	14016
918.828	14126
918.939	14153
919.05	14142
919.161	14081
919.272	13925
919.383	13974
919.494	14180
919.604	14275
919.715	14138
919.826	14058
919.936	14073
920.047	14123
920.157	14172
920.267	14263
920.378	14157
920.488	13963
920.598	14240
920.708	14427
920.818	14149
920.928	14237
921.038	14381
921.148	14415
921.258	14031
921.368	13989
921.477	13906
921.587	13856
921.697	13666
921.806	13788
921.916	13670
922.025	13537
922.134	13499
922.244	13377
922.353	13624
922.462	13422
922.571	13312
922.68	13114
922.789	13099
922.898	13160
923.007	13171
923.116	13114
923.224	13057
923.333	13164
923.442	12962
923.55	12954
923.659	13050
923.767	13084
923.876	12966
923.984	13031
924.092	12867
924.201	12966
924.309	12871
924.417	12890
924.525	12837
924.633	12993
924.741	13696
924.849	12620
924.956	12798
925.064	12669
925.172	12555
925.279	12582
925.387	12639
925.494	12528
925.602	12639
925.709	12593
925.816	12494
925.924	12521
926.031	12597
926.138	12559
926.245	12612
926.352	12547
926.459	12498
926.566	12646
926.673	12471
926.779	12323
926.886	12254
926.993	12194
927.099	12205
927.206	12140
927.312	12190
927.419	12148
927.525	12140
927.631	12224
927.737	12060
927.843	11999
927.95	11939
928.056	12019
928.162	12011
928.267	11969
928.373	12639
928.479	12133
928.585	11847
928.69	11999
928.796	11958
928.901	11790
929.007	11748
929.112	11802
929.218	11805
929.323	11748
929.428	11714
929.533	11794
929.638	11684
929.743	11680
929.848	11714
929.953	11718
930.058	11619
930.163	11417
930.267	11512
930.372	11600
930.477	11326
930.581	11547
930.685	11524
930.79	11360
930.894	11322
930.998	11280
931.103	11414
931.207	11010
931.311	11014
931.415	10934
931.519	10744
931.623	10767
