Data from test_V78500241_3434.txt Node
Date: Fri Mar 25 15:33:46 CST 2022
User: usil
Spectrometer: V785-0024
Trigger mode: 0
Integration Time (sec): 4.000000E-1
Scans to average: 1
Nonlinearity correction enabled: false
Boxcar width: 0
Storing dark spectrum: false
XAxis mode: Wavelengths
Number of Pixels in Spectrum: 1024
>>>>>Begin Spectral Data<<<<<
801.071	27340
801.214	27207
801.356	26982
801.499	26986
801.641	26842
801.783	26823
801.926	26849
802.068	26773
802.211	26731
802.353	26750
802.496	26480
802.638	26484
802.78	26469
802.923	26263
803.065	26362
803.208	26366
803.35	26492
803.492	26636
803.635	26583
803.777	26453
803.919	26552
804.061	26891
804.204	26731
804.346	26503
804.488	26465
804.63	26602
804.773	26568
804.915	26587
805.057	26746
805.199	26488
805.341	26587
805.483	26792
805.626	26773
805.768	26629
805.91	26663
806.052	26689
806.194	26530
806.336	26758
806.478	26621
806.62	26686
806.762	26545
806.904	27051
807.046	27154
807.188	27039
807.33	27043
807.472	27199
807.614	27017
807.756	27077
807.898	26925
808.04	26838
808.182	26899
808.324	26956
808.465	26998
808.607	27089
808.749	27275
808.891	27329
809.033	27557
809.174	27416
809.316	27165
809.458	27245
809.6	27237
809.741	27435
809.883	27374
810.025	27606
810.166	27538
810.308	27595
810.45	27599
810.591	27530
810.733	27287
810.875	27264
811.016	27279
811.158	27192
811.299	27321
811.441	27439
811.582	27496
811.724	27169
811.865	27184
812.007	27332
812.148	27176
812.29	27218
812.431	27424
812.573	27625
812.714	27587
812.855	27686
812.997	27918
813.138	27922
813.279	27911
813.421	27690
813.562	27770
813.703	27530
813.845	27564
813.986	27256
814.127	27043
814.268	26948
814.41	27013
814.551	26883
814.692	27108
814.833	26967
814.974	26785
815.115	26960
815.256	26769
815.397	26914
815.539	26880
815.68	26697
815.821	26663
815.962	26583
816.103	26678
816.244	26590
816.385	26442
816.526	26385
816.666	26256
816.807	26103
816.948	26252
817.089	26286
817.23	26358
817.371	26164
817.512	26298
817.653	26221
817.793	26210
817.934	26229
818.075	26130
818.216	26161
818.356	26168
818.497	26012
818.638	26046
818.778	25932
818.919	26005
819.06	26084
819.2	26180
819.341	26183
819.481	26145
819.622	26199
819.762	26518
819.903	26488
820.043	26507
820.184	26252
820.324	26328
820.465	26362
820.605	26263
820.746	26305
820.886	26176
821.026	26191
821.167	26244
821.307	26313
821.447	26214
821.588	26145
821.728	26031
821.868	25974
822.008	25708
822.149	25704
822.289	25655
822.429	25373
822.569	25285
822.709	25350
822.849	25251
822.99	25091
823.13	25129
823.27	25046
823.41	25008
823.55	24798
823.69	25046
823.83	24920
823.97	24913
824.11	24817
824.25	24848
824.389	24768
824.529	24947
824.669	24719
824.809	24829
824.949	24920
825.089	24817
825.228	24913
825.368	24707
825.508	24673
825.648	24688
825.787	24753
825.927	24798
826.067	24509
826.206	24738
826.346	24681
826.485	24741
826.625	24684
826.765	24787
826.904	24726
827.044	24452
827.183	24429
827.323	24399
827.462	24433
827.601	24414
827.741	24289
827.88	24376
828.02	24251
828.159	24315
828.298	24407
828.437	24483
828.577	24247
828.716	24369
828.855	24384
828.994	24098
829.134	23980
829.273	24159
829.412	24182
829.551	24106
829.69	24072
829.829	24148
829.968	24232
830.107	24121
830.246	24178
830.385	24022
830.524	23988
830.663	23889
830.802	23771
830.941	23805
831.08	23676
831.219	23832
831.357	23813
831.496	23885
831.635	23745
831.774	23653
831.913	23535
832.051	23608
832.19	23589
832.329	23539
832.467	23349
832.606	23303
832.744	23322
832.883	23273
833.022	23265
833.16	23265
833.299	23474
833.437	23379
833.576	23573
833.714	23573
833.852	23459
833.991	23436
834.129	23497
834.267	23528
834.406	23337
834.544	23478
834.682	23440
834.821	23463
834.959	23649
835.097	23421
835.235	23524
835.373	23455
835.511	23368
835.65	23258
835.788	23318
835.926	23109
836.064	23086
836.202	23189
836.34	23223
836.478	23425
836.615	23345
836.753	23280
836.891	23425
837.029	23299
837.167	23318
837.305	23246
837.443	23113
837.58	23204
837.718	23231
837.856	23102
837.993	23117
838.131	23105
838.269	23010
838.406	23018
838.544	23025
838.681	22942
838.819	22774
838.956	22637
839.094	22649
839.231	22672
839.369	22763
839.506	23003
839.643	22831
839.781	22641
839.918	22557
840.055	22653
840.193	22717
840.33	22664
840.467	22557
840.604	22733
840.742	22767
840.879	22306
841.016	22504
841.153	22554
841.29	22615
841.427	22531
841.564	22710
841.701	22637
841.838	22588
841.975	22508
842.112	22542
842.249	22295
842.385	22249
842.522	22573
842.659	22352
842.796	22306
842.933	22440
843.069	22257
843.206	22382
843.343	22398
843.479	22341
843.616	22352
843.752	22116
843.889	22219
844.025	22204
844.162	22143
844.298	22074
844.435	22139
844.571	21979
844.708	22082
844.844	22230
844.98	22322
845.117	22211
845.253	22044
845.389	21960
845.525	22029
845.661	21899
845.798	21884
845.934	21861
846.07	21804
846.206	21926
846.342	22067
846.478	21827
846.614	21797
846.75	21504
846.886	21667
847.022	21667
847.158	21625
847.294	21759
847.429	21610
847.565	21591
847.701	21915
847.837	21260
847.972	21317
848.108	21462
848.244	21306
848.379	21195
848.515	21085
848.65	21241
848.786	21142
848.921	21020
849.057	21203
849.192	21131
849.328	21199
849.463	21207
849.598	21131
849.734	21085
849.869	20994
850.004	20979
850.14	20944
850.275	21074
850.41	20941
850.545	20971
850.68	20998
850.815	20967
850.95	20948
851.085	21157
851.22	21039
851.355	20952
851.49	20967
851.625	20933
851.76	20910
851.895	20842
852.03	20853
852.165	20910
852.299	20986
852.434	21036
852.569	21028
852.703	20975
852.838	21017
852.973	21093
853.107	21043
853.242	20986
853.376	20804
853.511	20754
853.645	20765
853.78	20872
853.914	20830
854.048	20826
854.183	20773
854.317	20876
854.451	20910
854.585	20743
854.72	20739
854.854	20800
854.988	20720
855.122	20765
855.256	20644
855.39	20750
855.524	20788
855.658	20830
855.792	20948
855.926	20746
856.06	20914
856.194	20891
856.327	20697
856.461	20735
856.595	20735
856.729	20724
856.862	20804
856.996	20800
857.13	20731
857.263	20902
857.397	20842
857.53	20629
857.664	20861
857.797	20921
857.931	20933
858.064	20758
858.197	20933
858.331	20762
858.464	20689
858.597	20670
858.731	20731
858.864	20716
858.997	20727
859.13	20739
859.263	20883
859.396	20842
859.529	20838
859.662	20735
859.795	20746
859.928	20914
860.061	20933
860.194	20998
860.327	20781
860.46	20701
860.592	20971
860.725	20906
860.858	20967
860.99	20716
861.123	20712
861.256	20754
861.388	20800
861.521	21405
861.653	20754
861.786	20549
861.918	20663
862.05	20712
862.183	20792
862.315	20640
862.447	20849
862.58	20598
862.712	20454
862.844	20454
862.976	20609
863.108	20648
863.24	21028
863.372	20404
863.504	20518
863.636	20473
863.768	20495
863.9	20484
864.032	20514
864.164	20457
864.296	20613
864.428	20556
864.559	20450
864.691	20427
864.823	20366
864.954	20552
865.086	20408
865.217	20530
865.349	20248
865.48	20446
865.612	20317
865.743	20419
865.875	20400
866.006	20358
866.137	20457
866.269	20434
866.4	20415
866.531	20434
866.662	20355
866.793	20282
866.924	20347
867.055	20400
867.186	20301
867.317	20237
867.448	20111
867.579	20259
867.71	20240
867.841	20320
867.972	20396
868.103	20294
868.233	20408
868.364	20237
868.495	20377
868.625	20545
868.756	20765
868.886	20442
869.017	20621
869.147	20720
869.278	20587
869.408	20613
869.539	20617
869.669	20693
869.799	20686
869.929	20705
870.06	20743
870.19	20800
870.32	20838
870.45	20941
870.58	20925
870.71	21074
870.84	21131
870.97	20933
871.1	20948
871.23	21199
871.36	21173
871.489	21116
871.619	21169
871.749	21085
871.879	21252
872.008	21435
872.138	21157
872.267	21233
872.397	21066
872.526	20918
872.656	20982
872.785	20948
872.915	21184
873.044	21237
873.173	21214
873.303	21268
873.432	21287
873.561	21344
873.69	21336
873.819	21074
873.948	21397
874.077	21058
874.206	21150
874.335	21192
874.464	21283
874.593	21462
874.722	21542
874.851	21469
874.979	21515
875.108	21458
875.237	21412
875.365	21363
875.494	21424
875.623	21568
875.751	21378
875.88	21374
876.008	21694
876.136	21587
876.265	21934
876.393	21975
876.521	21953
876.65	21964
876.778	21899
876.906	21724
877.034	21720
877.162	21720
877.29	21823
877.418	21797
877.546	21816
877.674	21637
877.802	21827
877.93	21728
878.058	21743
878.185	21622
878.313	21694
878.441	21800
878.568	21690
878.696	21663
878.824	21861
878.951	21941
879.079	21884
879.206	22101
879.333	21937
879.461	21816
879.588	21785
879.715	21892
879.842	22074
879.97	21915
880.097	21747
880.224	21549
880.351	21595
880.478	21648
880.605	21572
880.732	21614
880.859	21983
880.986	21530
881.112	21599
881.239	21450
881.366	21367
881.493	21351
881.619	21214
881.746	21298
881.872	21169
881.999	21112
882.125	21127
882.252	21195
882.378	21195
882.505	21226
882.631	20986
882.757	21077
882.883	21013
883.01	20880
883.136	20975
883.262	20861
883.388	20724
883.514	20872
883.64	21017
883.766	20887
883.892	20727
884.018	20720
884.143	20853
884.269	21024
884.395	20697
884.52	20568
884.646	20667
884.772	20503
884.897	20450
885.023	20636
885.148	20686
885.274	20701
885.399	20712
885.524	20625
885.65	20564
885.775	20575
885.9	20492
886.025	20693
886.15	20549
886.275	20492
886.4	20434
886.525	20499
886.65	20530
886.775	20347
886.9	20621
887.025	20834
887.149	20609
887.274	20366
887.399	20298
887.523	20313
887.648	20317
887.773	20168
887.897	20355
888.021	20377
888.146	20275
888.27	20442
888.395	20484
888.519	20317
888.643	20309
888.767	20389
888.891	20278
889.015	20115
889.139	20191
889.263	20088
889.387	20267
889.511	20309
889.635	20362
889.759	20142
889.883	19982
890.006	20126
890.13	20221
890.254	20005
890.377	20084
890.501	19936
890.624	19970
890.748	19883
890.871	19822
890.995	19670
891.118	19552
891.241	19811
891.364	19822
891.488	19883
891.611	19803
891.734	19727
891.857	19947
891.98	19689
892.103	19765
892.226	19685
892.349	19674
892.471	19700
892.594	19597
892.717	19662
892.839	19544
892.962	19658
893.085	19666
893.207	19639
893.33	19518
893.452	19521
893.575	19677
893.697	19693
893.819	19769
893.941	20096
894.064	19757
894.186	19658
894.308	19548
894.43	19788
894.552	19814
894.674	19677
894.796	19552
894.918	19544
895.04	19605
895.161	19753
895.283	19674
895.405	19575
895.526	19586
895.648	19613
895.769	19594
895.891	19670
896.012	19712
896.134	19719
896.255	19715
896.376	19616
896.498	19681
896.619	19757
896.74	19727
896.861	19704
896.982	19868
897.103	20077
897.224	20035
897.345	19746
897.466	19780
897.587	19970
897.708	20031
897.828	19963
897.949	19803
898.07	19712
898.19	19746
898.311	19978
898.431	19826
898.552	19906
898.672	19868
898.792	19967
898.913	19742
899.033	19811
899.153	19693
899.273	19575
899.393	19742
899.513	19719
899.633	19594
899.753	19605
899.873	19567
899.993	19666
900.113	19514
900.232	19567
900.352	19578
900.472	19499
900.591	19362
900.711	19460
900.83	19373
900.95	19396
901.069	19468
901.189	19270
901.308	19000
901.427	19008
901.546	19038
901.665	19038
901.784	19057
901.904	18783
902.023	18764
902.141	18635
902.26	18585
902.379	18486
902.498	18563
902.617	18426
902.735	18612
902.854	18525
902.973	18384
903.091	18194
903.21	18102
903.328	18182
903.446	18171
903.565	17992
903.683	18026
903.801	17908
903.919	17977
904.038	17920
904.156	17756
904.274	17916
904.392	17707
904.51	17665
904.627	17752
904.745	17882
904.863	17741
904.981	17634
905.098	17455
905.216	17551
905.334	17429
905.451	17551
905.569	17387
905.686	17425
905.803	17345
905.921	17261
906.038	17368
906.155	17193
906.272	17231
906.389	17140
906.506	16972
906.623	16961
906.74	17022
906.857	16892
906.974	16759
907.091	16968
907.208	17060
907.324	17079
907.441	16892
907.557	16664
907.674	16691
907.79	16599
907.907	16694
908.023	16755
908.139	16725
908.256	16565
908.372	16599
908.488	16531
908.604	16405
908.72	16352
908.836	16436
908.952	16485
909.068	16462
909.184	16500
909.3	16481
909.415	16421
909.531	16402
909.647	16101
909.762	16158
909.878	16109
909.993	16215
910.108	16021
910.224	16124
910.339	16048
910.454	16082
910.57	15987
910.685	15865
910.8	16284
910.915	16169
911.03	16025
911.145	15800
911.259	15770
911.374	15709
911.489	15663
911.604	15663
911.718	15553
911.833	15538
911.947	15279
912.062	15329
912.176	15599
912.291	15511
912.405	15420
912.519	15648
912.633	15694
912.748	15462
912.862	15492
912.976	15329
913.09	15157
913.204	15249
913.318	15348
913.431	15428
913.545	15416
913.659	15401
913.772	15272
913.886	15161
914	15097
914.113	15192
914.226	15252
914.34	15237
914.453	14963
914.566	15241
914.68	14990
914.793	14963
914.906	14735
915.019	14716
915.132	14648
915.245	14807
915.358	14739
915.47	14644
915.583	14743
915.696	14781
915.809	14807
915.921	14830
916.034	14678
916.146	14689
916.259	14606
916.371	14686
916.483	14758
916.595	14568
916.708	14511
916.82	14602
916.932	14454
917.044	14541
917.156	14404
917.268	14339
917.38	14377
917.491	14408
917.603	14427
917.715	14408
917.826	14507
917.938	14454
918.049	14244
918.161	14336
918.272	14526
918.384	14446
918.495	14370
918.606	14225
918.717	14123
918.828	14100
918.939	14164
919.05	13978
919.161	14092
919.272	14031
919.383	14084
919.494	14244
919.604	14347
919.715	14126
919.826	14043
919.936	14081
920.047	14183
920.157	14195
920.267	14347
920.378	14088
920.488	14077
920.598	14267
920.708	14465
920.818	14343
920.928	14259
921.038	14393
921.148	14271
921.258	14111
921.368	14001
921.477	13925
921.587	13875
921.697	13799
921.806	13894
921.916	13776
922.025	13605
922.134	13468
922.244	13518
922.353	13525
922.462	13476
922.571	13350
922.68	13190
922.789	13183
922.898	13209
923.007	13145
923.116	13194
923.224	13137
923.333	13137
923.442	13023
923.55	12958
923.659	13034
923.767	13042
923.876	13046
923.984	13023
924.092	12928
924.201	12973
924.309	12947
924.417	12951
924.525	12833
924.633	12791
924.741	13700
924.849	12696
924.956	12890
925.064	12669
925.172	12536
925.279	12654
925.387	12604
925.494	12608
925.602	12703
925.709	12627
925.816	12547
925.924	12555
926.031	12646
926.138	12547
926.245	12570
926.352	12452
926.459	12593
926.566	12589
926.673	12445
926.779	12429
926.886	12388
926.993	12171
927.099	12182
927.206	12114
927.312	12171
927.419	12270
927.525	12247
927.631	12277
927.737	12133
927.843	12060
927.95	11980
928.056	12045
928.162	12076
928.267	12117
928.373	12604
928.479	12057
928.585	11874
928.69	11992
928.796	11954
928.901	11828
929.007	11798
929.112	11946
929.218	11882
929.323	11802
929.428	11718
929.533	11904
929.638	11718
929.743	11745
929.848	11699
929.953	11672
930.058	11623
930.163	11433
930.267	11604
930.372	11577
930.477	11387
930.581	11608
930.685	11448
930.79	11376
930.894	11414
930.998	11315
931.103	11459
931.207	11140
931.311	10946
931.415	10908
931.519	10744
931.623	10694
