Data from test_V78500241_2393.txt Node
Date: Fri Mar 25 15:26:31 CST 2022
User: usil
Spectrometer: V785-0024
Trigger mode: 0
Integration Time (sec): 4.000000E-1
Scans to average: 1
Nonlinearity correction enabled: false
Boxcar width: 0
Storing dark spectrum: false
XAxis mode: Wavelengths
Number of Pixels in Spectrum: 1024
>>>>>Begin Spectral Data<<<<<
801.071	27268
801.214	27055
801.356	26944
801.499	26910
801.641	26625
801.783	26629
801.926	26773
802.068	26769
802.211	26735
802.353	26632
802.496	26461
802.638	26370
802.78	26298
802.923	26309
803.065	26339
803.208	26286
803.35	26412
803.492	26480
803.635	26632
803.777	26358
803.919	26575
804.061	26754
804.204	26552
804.346	26495
804.488	26518
804.63	26530
804.773	26309
804.915	26488
805.057	26670
805.199	26488
805.341	26495
805.483	26629
805.626	26670
805.768	26606
805.91	26530
806.052	26724
806.194	26381
806.336	26925
806.478	26667
806.62	26552
806.762	26663
806.904	26887
807.046	27001
807.188	27058
807.33	27074
807.472	27074
807.614	27009
807.756	27070
807.898	26891
808.04	26750
808.182	26746
808.324	26933
808.465	27039
808.607	27131
808.749	27237
808.891	27195
809.033	27317
809.174	27329
809.316	27127
809.458	27237
809.6	27249
809.741	27325
809.883	27382
810.025	27557
810.166	27370
810.308	27625
810.45	27374
810.591	27427
810.733	27226
810.875	27188
811.016	27161
811.158	27032
811.299	27222
811.441	27408
811.582	27443
811.724	27310
811.865	27051
812.007	27157
812.148	27116
812.29	27329
812.431	27313
812.573	27545
812.714	27599
812.855	27587
812.997	27785
813.138	27903
813.279	27743
813.421	27720
813.562	27587
813.703	27485
813.845	27466
813.986	27199
814.127	26887
814.268	26914
814.41	26963
814.551	26921
814.692	26940
814.833	26788
814.974	26975
815.115	26735
815.256	26716
815.397	27024
815.539	26762
815.68	26701
815.821	26552
815.962	26625
816.103	26667
816.244	26499
816.385	26370
816.526	26556
816.666	26393
816.807	26046
816.948	26180
817.089	26271
817.23	26115
817.371	26043
817.512	26138
817.653	26073
817.793	25944
817.934	26073
818.075	25970
818.216	26263
818.356	26134
818.497	25978
818.638	25925
818.778	25864
818.919	25860
819.06	25833
819.2	26088
819.341	26046
819.481	26180
819.622	26309
819.762	26476
819.903	26377
820.043	26263
820.184	26168
820.324	26336
820.465	26149
820.605	26134
820.746	26096
820.886	26199
821.026	26115
821.167	26263
821.307	26145
821.447	26267
821.588	25917
821.728	25841
821.868	25852
822.008	25609
822.149	25643
822.289	25567
822.429	25396
822.569	25270
822.709	25225
822.849	25164
822.99	25088
823.13	25259
823.27	25095
823.41	24913
823.55	24722
823.69	24977
823.83	24954
823.97	24817
824.11	24616
824.25	24582
824.389	24589
824.529	24825
824.669	24707
824.809	24810
824.949	24890
825.089	24772
825.228	24688
825.368	24627
825.508	24528
825.648	24635
825.787	24597
825.927	24707
826.067	24574
826.206	24578
826.346	24639
826.485	24616
826.625	24407
826.765	24753
826.904	24635
827.044	24418
827.183	24346
827.323	24285
827.462	24327
827.601	24220
827.741	24254
827.88	24365
828.02	24125
828.159	24235
828.298	24376
828.437	24429
828.577	24232
828.716	24433
828.855	24270
828.994	23969
829.134	23961
829.273	24076
829.412	23950
829.551	23912
829.69	23961
829.829	24038
829.968	24026
830.107	23927
830.246	24038
830.385	24038
830.524	23904
830.663	23878
830.802	23684
830.941	23596
831.08	23589
831.219	23657
831.357	23672
831.496	23832
831.635	23653
831.774	23649
831.913	23566
832.051	23497
832.19	23425
832.329	23486
832.467	23337
832.606	23220
832.744	23273
832.883	23345
833.022	23269
833.16	23368
833.299	23372
833.437	23311
833.576	23345
833.714	23311
833.852	23307
833.991	23414
834.129	23360
834.267	23337
834.406	23368
834.544	23303
834.682	23303
834.821	23337
834.959	23562
835.097	23364
835.235	23360
835.373	23330
835.511	23326
835.65	23185
835.788	23254
835.926	23162
836.064	22976
836.202	22980
836.34	23189
836.478	23181
836.615	23212
836.753	23292
836.891	23227
837.029	23242
837.167	23029
837.305	23109
837.443	23056
837.58	23041
837.718	22965
837.856	23159
837.993	23041
838.131	23071
838.269	22831
838.406	23029
838.544	22980
838.681	22729
838.819	22744
838.956	22531
839.094	22603
839.231	22512
839.369	22774
839.506	23052
839.643	22858
839.781	22607
839.918	22478
840.055	22615
840.193	22455
840.33	22577
840.467	22470
840.604	22516
840.742	22675
840.879	22352
841.016	22363
841.153	22341
841.29	22535
841.427	22421
841.564	22527
841.701	22497
841.838	22436
841.975	22417
842.112	22344
842.249	22181
842.385	22337
842.522	22474
842.659	22249
842.796	22265
842.933	22246
843.069	22177
843.206	22154
843.343	22276
843.479	22135
843.616	22082
843.752	21865
843.889	22067
844.025	22166
844.162	22040
844.298	22090
844.435	22070
844.571	21861
844.708	21937
844.844	22120
844.98	22051
845.117	22051
845.253	21994
845.389	21903
845.525	21907
845.661	21797
845.798	21732
845.934	21789
846.07	21739
846.206	21755
846.342	21888
846.478	21800
846.614	21637
846.75	21458
846.886	21481
847.022	21507
847.158	21469
847.294	21462
847.429	21587
847.565	21477
847.701	21812
847.837	21211
847.972	21142
848.108	21313
848.244	21329
848.379	21108
848.515	21104
848.65	20975
848.786	20998
848.921	21085
849.057	21131
849.192	21184
849.328	21104
849.463	21112
849.598	20948
849.734	20956
849.869	20842
850.004	20826
850.14	20887
850.275	20811
850.41	20765
850.545	20701
850.68	20777
850.815	20834
850.95	20899
851.085	20948
851.22	21005
851.355	20838
851.49	20845
851.625	20792
851.76	20735
851.895	20636
852.03	20746
852.165	20788
852.299	20739
852.434	20864
852.569	20868
852.703	20807
852.838	20811
852.973	20925
853.107	20895
853.242	20800
853.376	20667
853.511	20503
853.645	20697
853.78	20823
853.914	20541
854.048	20655
854.183	20655
854.317	20769
854.451	20834
854.585	20670
854.72	20602
854.854	20686
854.988	20613
855.122	20712
855.256	20568
855.39	20670
855.524	20796
855.658	20724
855.792	20579
855.926	20541
856.06	20644
856.194	20773
856.327	20606
856.461	20609
856.595	20712
856.729	20644
856.862	20762
856.996	20720
857.13	20746
857.263	20697
857.397	20823
857.53	20526
857.664	20613
857.797	20807
857.931	20739
858.064	20667
858.197	20773
858.331	20644
858.464	20640
858.597	20625
858.731	20651
858.864	20492
858.997	20659
859.13	20537
859.263	20720
859.396	20686
859.529	20450
859.662	20629
859.795	20674
859.928	20686
860.061	20754
860.194	20887
860.327	20731
860.46	20762
860.592	20785
860.725	20785
860.858	20689
860.99	20598
861.123	20568
861.256	20629
861.388	20670
861.521	21283
861.653	20507
861.786	20476
861.918	20427
862.05	20499
862.183	20541
862.315	20686
862.447	20560
862.58	20583
862.712	20313
862.844	20301
862.976	20465
863.108	20381
863.24	20918
863.372	20294
863.504	20336
863.636	20313
863.768	20313
863.9	20358
864.032	20237
864.164	20362
864.296	20469
864.428	20454
864.559	20438
864.691	20400
864.823	20423
864.954	20248
865.086	20358
865.217	20195
865.349	20275
865.48	20324
865.612	20240
865.743	20484
865.875	20282
866.006	20351
866.137	20275
866.269	20256
866.4	20358
866.531	20259
866.662	20309
866.793	20229
866.924	20328
867.055	20202
867.186	20130
867.317	20073
867.448	20161
867.579	20229
867.71	20149
867.841	20111
867.972	20229
868.103	20244
868.233	20191
868.364	20157
868.495	20278
868.625	20518
868.756	20427
868.886	20267
869.017	20457
869.147	20499
869.278	20530
869.408	20457
869.539	20404
869.669	20438
869.799	20495
869.929	20511
870.06	20495
870.19	20785
870.32	20727
870.45	20838
870.58	20785
870.71	20975
870.84	20937
870.97	20921
871.1	20925
871.23	21070
871.36	21161
871.489	20910
871.619	20918
871.749	21085
871.879	21135
872.008	21173
872.138	21062
872.267	21058
872.397	20918
872.526	20876
872.656	20857
872.785	20956
872.915	21070
873.044	21112
873.173	21268
873.303	21112
873.432	21096
873.561	21180
873.69	21119
873.819	21165
873.948	21135
874.077	20979
874.206	21066
874.335	21081
874.464	21142
874.593	21340
874.722	21245
874.851	21329
874.979	21401
875.108	21431
875.237	21272
875.365	21154
875.494	21272
875.623	21317
875.751	21325
875.88	21458
876.008	21363
876.136	21443
876.265	21705
876.393	21953
876.521	21934
876.65	21854
876.778	21713
876.906	21724
877.034	21606
877.162	21675
877.29	21553
877.418	21732
877.546	21583
877.674	21781
877.802	21743
877.93	21625
878.058	21583
878.185	21633
878.313	21705
878.441	21660
878.568	21492
878.696	21614
878.824	21542
878.951	21633
879.079	21857
879.206	21945
879.333	21816
879.461	21622
879.588	21774
879.715	21922
879.842	21865
879.97	21797
880.097	21591
880.224	21370
880.351	21428
880.478	21462
880.605	21481
880.732	21435
880.859	21770
880.986	21473
881.112	21530
881.239	21355
881.366	21249
881.493	21104
881.619	21146
881.746	21161
881.872	21112
881.999	21161
882.125	20986
882.252	21180
882.378	21028
882.505	21214
882.631	20941
882.757	20834
882.883	20948
883.01	20720
883.136	20636
883.262	20674
883.388	20606
883.514	20743
883.64	20697
883.766	20564
883.892	20549
884.018	20473
884.143	20864
884.269	20883
884.395	20457
884.52	20484
884.646	20415
884.772	20336
884.897	20419
885.023	20396
885.148	20571
885.274	20568
885.399	20545
885.524	20419
885.65	20370
885.775	20522
885.9	20438
886.025	20507
886.15	20492
886.275	20362
886.4	20252
886.525	20381
886.65	20381
886.775	20355
886.9	20530
887.025	20594
887.149	20370
887.274	20195
887.399	20320
887.523	20142
887.648	20187
887.773	20100
887.897	20263
888.021	20229
888.146	20195
888.27	20294
888.395	20286
888.519	20320
888.643	20317
888.767	20195
888.891	20153
889.015	20046
889.139	20119
889.263	19970
889.387	20138
889.511	20199
889.635	20138
889.759	20088
889.883	20115
890.006	20115
890.13	20100
890.254	19864
890.377	19887
890.501	19788
890.624	19666
890.748	19830
890.871	19715
890.995	19525
891.118	19502
891.241	19609
891.364	19674
891.488	19742
891.611	19639
891.734	19613
891.857	19559
891.98	19597
892.103	19616
892.226	19575
892.349	19525
892.471	19369
892.594	19464
892.717	19616
892.839	19480
892.962	19616
893.085	19567
893.207	19514
893.33	19495
893.452	19396
893.575	19548
893.697	19483
893.819	19651
893.941	19708
894.064	19734
894.186	19495
894.308	19464
894.43	19571
894.552	19681
894.674	19544
894.796	19472
894.918	19552
895.04	19510
895.161	19529
895.283	19487
895.405	19582
895.526	19468
895.648	19586
895.769	19578
895.891	19457
896.012	19544
896.134	19552
896.255	19544
896.376	19514
896.498	19563
896.619	19563
896.74	19510
896.861	19578
896.982	19925
897.103	20024
897.224	19868
897.345	19780
897.466	19647
897.587	19849
897.708	19986
897.828	19784
897.949	19734
898.07	19575
898.19	19609
898.311	19681
898.431	19818
898.552	19826
898.672	19780
898.792	19818
898.913	19597
899.033	19655
899.153	19696
899.273	19533
899.393	19483
899.513	19548
899.633	19685
899.753	19518
899.873	19335
899.993	19518
900.113	19464
900.232	19415
900.352	19453
900.472	19293
900.591	19255
900.711	19411
900.83	19266
900.95	19396
901.069	19266
901.189	19065
901.308	19008
901.427	18795
901.546	18897
901.665	18985
901.784	18916
901.904	18764
902.023	18703
902.141	18445
902.26	18437
902.379	18525
902.498	18513
902.617	18399
902.735	18346
902.854	18460
902.973	18289
903.091	18057
903.21	17973
903.328	18076
903.446	18015
903.565	17923
903.683	17961
903.801	17874
903.919	17893
904.038	17805
904.156	17699
904.274	17748
904.392	17627
904.51	17752
904.627	17672
904.745	17604
904.863	17676
904.981	17478
905.098	17360
905.216	17395
905.334	17368
905.451	17334
905.569	17277
905.686	17410
905.803	17223
905.921	17178
906.038	17170
906.155	17174
906.272	17018
906.389	17014
906.506	16949
906.623	16854
906.74	16938
906.857	16862
906.974	16748
907.091	16938
907.208	17029
907.324	16949
907.441	16679
907.557	16580
907.674	16645
907.79	16516
907.907	16561
908.023	16500
908.139	16485
908.256	16611
908.372	16424
908.488	16424
908.604	16382
908.72	16291
908.836	16333
908.952	16246
909.068	16249
909.184	16447
909.3	16287
909.415	16367
909.531	16265
909.647	16147
909.762	16048
909.878	16078
909.993	16086
910.108	16074
910.224	15930
910.339	15964
910.454	15915
910.57	15816
910.685	15808
910.8	16040
910.915	16017
911.03	15850
911.145	15720
911.259	15587
911.374	15637
911.489	15633
911.604	15454
911.718	15416
911.833	15302
911.947	15169
912.062	15157
912.176	15450
912.291	15355
912.405	15310
912.519	15450
912.633	15553
912.748	15435
912.862	15268
912.976	15260
913.09	15093
913.204	15310
913.318	15199
913.431	15256
913.545	15317
913.659	15275
913.772	15116
913.886	15104
914	15081
914.113	15157
914.226	15150
914.34	15123
914.453	14838
914.566	15066
914.68	14918
914.793	14819
914.906	14743
915.019	14640
915.132	14556
915.245	14602
915.358	14617
915.47	14587
915.583	14549
915.696	14636
915.809	14735
915.921	14807
916.034	14610
916.146	14488
916.259	14583
916.371	14674
916.483	14552
916.595	14541
916.708	14537
916.82	14473
916.932	14461
917.044	14476
917.156	14408
917.268	14446
917.38	14305
917.491	14271
917.603	14377
917.715	14385
917.826	14431
917.938	14240
918.049	14164
918.161	14252
918.272	14355
918.384	14317
918.495	14278
918.606	14054
918.717	14035
918.828	14149
918.939	14126
919.05	14039
919.161	14024
919.272	13852
919.383	13982
919.494	14123
919.604	14366
919.715	14157
919.826	13989
919.936	14092
920.047	14214
920.157	14111
920.267	14218
920.378	14111
920.488	14065
920.598	14248
920.708	14358
920.818	14176
920.928	14275
921.038	14275
921.148	14317
921.258	14031
921.368	13871
921.477	13837
921.587	13803
921.697	13712
921.806	13909
921.916	13696
922.025	13544
922.134	13495
922.244	13472
922.353	13533
922.462	13350
922.571	13293
922.68	13187
922.789	13179
922.898	13164
923.007	13084
923.116	13122
923.224	13008
923.333	13126
923.442	13012
923.55	12943
923.659	12970
923.767	13050
923.876	12924
923.984	12981
924.092	12905
924.201	12897
924.309	12882
924.417	12935
924.525	12768
924.633	12848
924.741	13655
924.849	12639
924.956	12768
925.064	12566
925.172	12540
925.279	12532
925.387	12623
925.494	12578
925.602	12658
925.709	12578
925.816	12513
925.924	12582
926.031	12627
926.138	12521
926.245	12631
926.352	12441
926.459	12570
926.566	12547
926.673	12429
926.779	12357
926.886	12285
926.993	12178
927.099	12152
927.206	12045
927.312	12087
927.419	12216
927.525	12190
927.631	12171
927.737	11961
927.843	11999
927.95	11927
928.056	11931
928.162	11999
928.267	12038
928.373	12673
928.479	12049
928.585	11752
928.69	11954
928.796	12007
928.901	11950
929.007	11695
929.112	11889
929.218	11874
929.323	11752
929.428	11699
929.533	11794
929.638	11653
929.743	11668
929.848	11726
929.953	11646
930.058	11619
930.163	11429
930.267	11349
930.372	11478
930.477	11429
930.581	11547
930.685	11459
930.79	11299
930.894	11318
930.998	11261
931.103	11318
931.207	11079
931.311	11018
931.415	10866
931.519	10675
931.623	10664
