Data from test_V78500241_2760.txt Node
Date: Fri Mar 25 15:29:04 CST 2022
User: usil
Spectrometer: V785-0024
Trigger mode: 0
Integration Time (sec): 4.000000E-1
Scans to average: 1
Nonlinearity correction enabled: false
Boxcar width: 0
Storing dark spectrum: false
XAxis mode: Wavelengths
Number of Pixels in Spectrum: 1024
>>>>>Begin Spectral Data<<<<<
801.071	26937
801.214	26746
801.356	26606
801.499	26663
801.641	26518
801.783	26488
801.926	26488
802.068	26431
802.211	26427
802.353	26305
802.496	26214
802.638	26100
802.78	26275
802.923	26031
803.065	26088
803.208	26077
803.35	26157
803.492	26248
803.635	26275
803.777	26134
803.919	26370
804.061	26598
804.204	26282
804.346	26244
804.488	26267
804.63	26404
804.773	26218
804.915	26191
805.057	26286
805.199	26145
805.341	26275
805.483	26377
805.626	26499
805.768	26153
805.91	26229
806.052	26503
806.194	26282
806.336	26560
806.478	26278
806.62	26347
806.762	26495
806.904	26537
807.046	26899
807.188	26857
807.33	26781
807.472	26845
807.614	26674
807.756	26716
807.898	26640
808.04	26434
808.182	26552
808.324	26552
808.465	26754
808.607	26800
808.749	26998
808.891	27024
809.033	27218
809.174	26994
809.316	27047
809.458	26982
809.6	27081
809.741	27089
809.883	27123
810.025	27226
810.166	27275
810.308	27325
810.45	27252
810.591	27291
810.733	26887
810.875	26845
811.016	26727
811.158	26781
811.299	27188
811.441	27032
811.582	27165
811.724	26883
811.865	26735
812.007	26826
812.148	26906
812.29	26925
812.431	26933
812.573	27268
812.714	27275
812.855	27435
812.997	27644
813.138	27713
813.279	27568
813.421	27443
813.562	27272
813.703	27329
813.845	27184
813.986	26762
814.127	26648
814.268	26541
814.41	26735
814.551	26507
814.692	26689
814.833	26632
814.974	26492
815.115	26663
815.256	26526
815.397	26492
815.539	26282
815.68	26374
815.821	26336
815.962	26404
816.103	26252
816.244	26206
816.385	26073
816.526	26050
816.666	25970
816.807	25879
816.948	25887
817.089	26008
817.23	25780
817.371	25727
817.512	25921
817.653	25597
817.793	25731
817.934	25807
818.075	25909
818.216	25837
818.356	25628
818.497	25807
818.638	25616
818.778	25719
818.919	25632
819.06	25689
819.2	25712
819.341	25909
819.481	25791
819.622	25921
819.762	26195
819.903	26111
820.043	26046
820.184	25928
820.324	25860
820.465	25982
820.605	25959
820.746	25955
820.886	25772
821.026	25925
821.167	25860
821.307	25963
821.447	25856
821.588	25727
821.728	25506
821.868	25506
822.008	25289
822.149	25304
822.289	25240
822.429	25076
822.569	24863
822.709	25004
822.849	24787
822.99	24901
823.13	24882
823.27	24840
823.41	24536
823.55	24433
823.69	24585
823.83	24646
823.97	24582
824.11	24403
824.25	24452
824.389	24502
824.529	24380
824.669	24429
824.809	24551
824.949	24517
825.089	24426
825.228	24460
825.368	24403
825.508	24228
825.648	24205
825.787	24235
825.927	24342
826.067	24251
826.206	24273
826.346	24365
826.485	24311
826.625	24155
826.765	24384
826.904	24384
827.044	24251
827.183	24018
827.323	23866
827.462	24030
827.601	23920
827.741	24007
827.88	24045
828.02	23946
828.159	23935
828.298	24053
828.437	23992
828.577	23984
828.716	23958
828.855	23741
828.994	23699
829.134	23737
829.273	23771
829.412	23726
829.551	23775
829.69	23786
829.829	23703
829.968	23672
830.107	23672
830.246	23710
830.385	23680
830.524	23661
830.663	23505
830.802	23414
830.941	23280
831.08	23235
831.219	23254
831.357	23356
831.496	23402
831.635	23239
831.774	23121
831.913	23170
832.051	22999
832.19	22972
832.329	23113
832.467	23064
832.606	22927
832.744	22809
832.883	22999
833.022	22961
833.16	22995
833.299	22953
833.437	22980
833.576	23025
833.714	22904
833.852	23132
833.991	23105
834.129	23258
834.267	23197
834.406	23014
834.544	22968
834.682	23003
834.821	23022
834.959	23102
835.097	22881
835.235	23048
835.373	23086
835.511	22968
835.65	22881
835.788	22854
835.926	22869
836.064	22782
836.202	22694
836.34	22911
836.478	22927
836.615	22908
836.753	22968
836.891	22987
837.029	23018
837.167	22774
837.305	22919
837.443	22725
837.58	22721
837.718	22805
837.856	22892
837.993	22637
838.131	22569
838.269	22607
838.406	22744
838.544	22607
838.681	22344
838.819	22265
838.956	22360
839.094	22204
839.231	22280
839.369	22382
839.506	22607
839.643	22497
839.781	22246
839.918	22306
840.055	22219
840.193	22120
840.33	22162
840.467	22177
840.604	22314
840.742	22405
840.879	21975
841.016	22204
841.153	22017
841.29	22261
841.427	22139
841.564	22230
841.701	22158
841.838	22055
841.975	22067
842.112	22116
842.249	22150
842.385	21975
842.522	22086
842.659	22010
842.796	21937
842.933	21953
843.069	21865
843.206	21941
843.343	21903
843.479	21987
843.616	21888
843.752	21724
843.889	21812
844.025	21911
844.162	21648
844.298	21831
844.435	21648
844.571	21797
844.708	21850
844.844	21869
844.98	21804
845.117	21812
845.253	21603
845.389	21557
845.525	21679
845.661	21504
845.798	21515
845.934	21564
846.07	21348
846.206	21553
846.342	21637
846.478	21557
846.614	21355
846.75	21100
846.886	21203
847.022	21310
847.158	21351
847.294	21203
847.429	21291
847.565	21173
847.701	21447
847.837	21020
847.972	20975
848.108	21001
848.244	21116
848.379	20838
848.515	20781
848.65	20815
848.786	20819
848.921	20788
849.057	20895
849.192	20769
849.328	20887
849.463	20849
849.598	20777
849.734	20708
849.869	20648
850.004	20594
850.14	20640
850.275	20590
850.41	20503
850.545	20434
850.68	20461
850.815	20492
850.95	20545
851.085	20545
851.22	20659
851.355	20530
851.49	20598
851.625	20419
851.76	20571
851.895	20461
852.03	20526
852.165	20442
852.299	20636
852.434	20507
852.569	20594
852.703	20587
852.838	20617
852.973	20682
853.107	20632
853.242	20507
853.376	20431
853.511	20183
853.645	20362
853.78	20575
853.914	20385
854.048	20427
854.183	20339
854.317	20400
854.451	20541
854.585	20393
854.72	20328
854.854	20499
854.988	20271
855.122	20438
855.256	20267
855.39	20396
855.524	20427
855.658	20495
855.792	20408
855.926	20381
856.06	20431
856.194	20469
856.327	20377
856.461	20286
856.595	20332
856.729	20332
856.862	20492
856.996	20396
857.13	20431
857.263	20381
857.397	20419
857.53	20434
857.664	20461
857.797	20404
857.931	20431
858.064	20465
858.197	20541
858.331	20366
858.464	20370
858.597	20221
858.731	20343
858.864	20313
858.997	20328
859.13	20431
859.263	20339
859.396	20396
859.529	20370
859.662	20366
859.795	20320
859.928	20374
860.061	20442
860.194	20583
860.327	20377
860.46	20389
860.592	20495
860.725	20568
860.858	20465
860.99	20473
861.123	20259
861.256	20442
861.388	20393
861.521	20807
861.653	20214
861.786	20153
861.918	20157
862.05	20313
862.183	20313
862.315	20324
862.447	20298
862.58	20324
862.712	20058
862.844	20069
862.976	20233
863.108	20161
863.24	20526
863.372	20008
863.504	20062
863.636	20248
863.768	20092
863.9	20119
864.032	19986
864.164	20077
864.296	20001
864.428	20122
864.559	20119
864.691	20195
864.823	20138
864.954	20096
865.086	20054
865.217	20035
865.349	19902
865.48	19959
865.612	20115
865.743	20130
865.875	19917
866.006	19944
866.137	20073
866.269	20020
866.4	19959
866.531	19989
866.662	19784
866.793	19955
866.924	19883
867.055	19989
867.186	19849
867.317	19928
867.448	19818
867.579	19845
867.71	19955
867.841	19902
867.972	19959
868.103	19879
868.233	19906
868.364	20012
868.495	20119
868.625	20153
868.756	20210
868.886	20126
869.017	20161
869.147	20202
869.278	20290
869.408	20111
869.539	20225
869.669	20244
869.799	20218
869.929	20358
870.06	20267
870.19	20530
870.32	20473
870.45	20522
870.58	20549
870.71	20678
870.84	20686
870.97	20617
871.1	20526
871.23	20785
871.36	20758
871.489	20750
871.619	20807
871.749	20785
871.879	20857
872.008	20990
872.138	20849
872.267	20765
872.397	20708
872.526	20488
872.656	20697
872.785	20644
872.915	20899
873.044	20868
873.173	20868
873.303	20998
873.432	20906
873.561	20838
873.69	20819
873.819	20902
873.948	20830
874.077	20712
874.206	20853
874.335	20826
874.464	20880
874.593	21051
874.722	20967
874.851	21093
874.979	21070
875.108	20982
875.237	20986
875.365	20906
875.494	21032
875.623	21131
875.751	21036
875.88	21138
876.008	21169
876.136	21207
876.265	21450
876.393	21622
876.521	21545
876.65	21629
876.778	21454
876.906	21428
877.034	21272
877.162	21348
877.29	21374
877.418	21378
877.546	21332
877.674	21408
877.802	21447
877.93	21344
878.058	21325
878.185	21180
878.313	21405
878.441	21348
878.568	21249
878.696	21249
878.824	21416
878.951	21500
879.079	21583
879.206	21709
879.333	21557
879.461	21466
879.588	21435
879.715	21488
879.842	21553
879.97	21412
880.097	21173
880.224	21214
880.351	21332
880.478	21310
880.605	21169
880.732	21203
880.859	21450
880.986	21279
881.112	21150
881.239	21062
881.366	20937
881.493	20853
881.619	20921
881.746	20861
881.872	20864
881.999	20773
882.125	20659
882.252	20941
882.378	20769
882.505	20849
882.631	20606
882.757	20492
882.883	20705
883.01	20492
883.136	20450
883.262	20374
883.388	20332
883.514	20469
883.64	20545
883.766	20400
883.892	20214
884.018	20332
884.143	20583
884.269	20568
884.395	20218
884.52	20142
884.646	20161
884.772	20050
884.897	20084
885.023	20077
885.148	20294
885.274	20221
885.399	20263
885.524	20180
885.65	20153
885.775	20172
885.9	20164
886.025	20320
886.15	20180
886.275	20100
886.4	20069
886.525	20218
886.65	20183
886.775	20065
886.9	20275
887.025	20469
887.149	20134
887.274	19997
887.399	19887
887.523	19974
887.648	20031
887.773	19856
887.897	20027
888.021	19974
888.146	19864
888.27	20058
888.395	19993
888.519	19959
888.643	20020
888.767	19932
888.891	19860
889.015	19753
889.139	19856
889.263	19685
889.387	19761
889.511	19944
889.635	19780
889.759	19693
889.883	19742
890.006	19830
890.13	19734
890.254	19738
890.377	19624
890.501	19495
890.624	19594
890.748	19487
890.871	19457
890.995	19274
891.118	19217
891.241	19419
891.364	19384
891.488	19468
891.611	19358
891.734	19407
891.857	19487
891.98	19312
892.103	19339
892.226	19225
892.349	19362
892.471	19072
892.594	19354
892.717	19373
892.839	19266
892.962	19282
893.085	19365
893.207	19388
893.33	19213
893.452	19194
893.575	19232
893.697	19297
893.819	19441
893.941	19449
894.064	19464
894.186	19259
894.308	19228
894.43	19301
894.552	19384
894.674	19369
894.796	19190
894.918	19228
895.04	19289
895.161	19346
895.283	19308
895.405	19183
895.526	19225
895.648	19331
895.769	19346
895.891	19457
896.012	19304
896.134	19480
896.255	19263
896.376	19278
896.498	19255
896.619	19274
896.74	19259
896.861	19259
896.982	19620
897.103	19852
897.224	19457
897.345	19586
897.466	19540
897.587	19449
897.708	19719
897.828	19529
897.949	19487
898.07	19312
898.19	19544
898.311	19514
898.431	19396
898.552	19457
898.672	19723
898.792	19601
898.913	19586
899.033	19445
899.153	19388
899.273	19126
899.393	19247
899.513	19247
899.633	19225
899.753	19263
899.873	19221
899.993	19263
900.113	19171
900.232	19301
900.352	19244
900.472	19183
900.591	19015
900.711	19122
900.83	19031
900.95	19069
901.069	19129
901.189	19008
901.308	18783
901.427	18658
901.546	18684
901.665	18658
901.784	18684
901.904	18616
902.023	18437
902.141	18315
902.26	18190
902.379	18254
902.498	18148
902.617	18072
902.735	18079
902.854	18129
902.973	18015
903.091	17809
903.21	17874
903.328	17817
903.446	17733
903.565	17695
903.683	17771
903.801	17623
903.919	17573
904.038	17691
904.156	17532
904.274	17539
904.392	17524
904.51	17414
904.627	17341
904.745	17452
904.863	17520
904.981	17132
905.098	17143
905.216	17067
905.334	17303
905.451	17098
905.569	17083
905.686	17178
905.803	17098
905.921	16946
906.038	16946
906.155	16892
906.272	16763
906.389	16748
906.506	16607
906.623	16698
906.74	16679
906.857	16542
906.974	16527
907.091	16664
907.208	16839
907.324	16694
907.441	16561
907.557	16455
907.674	16390
907.79	16291
907.907	16344
908.023	16409
908.139	16432
908.256	16344
908.372	16333
908.488	16310
908.604	16143
908.72	16059
908.836	16116
908.952	16109
909.068	16131
909.184	16082
909.3	16093
909.415	16177
909.531	16093
909.647	15884
909.762	15732
909.878	15880
909.993	15812
910.108	15846
910.224	15774
910.339	15827
910.454	15648
910.57	15625
910.685	15587
910.8	15831
910.915	15717
911.03	15610
911.145	15492
911.259	15507
911.374	15504
911.489	15367
911.604	15332
911.718	15207
911.833	15256
911.947	15112
912.062	15081
912.176	15233
912.291	15344
912.405	15268
912.519	15416
912.633	15386
912.748	15192
912.862	15176
912.976	15070
913.09	14948
913.204	15043
913.318	15055
913.431	15138
913.545	15062
913.659	15135
913.772	15039
913.886	14800
914	14811
914.113	14929
914.226	14944
914.34	14933
914.453	14590
914.566	14765
914.68	14701
914.793	14663
914.906	14537
915.019	14457
915.132	14419
915.245	14465
915.358	14438
915.47	14404
915.583	14415
915.696	14427
915.809	14560
915.921	14701
916.034	14324
916.146	14419
916.259	14343
916.371	14495
916.483	14404
916.595	14256
916.708	14374
916.82	14313
916.932	14206
917.044	14275
917.156	14263
917.268	14164
917.38	14138
917.491	14077
917.603	14107
917.715	14195
917.826	14240
917.938	14012
918.049	13967
918.161	14126
918.272	14153
918.384	14244
918.495	14123
918.606	13894
918.717	13898
918.828	13940
918.939	13913
919.05	13860
919.161	13811
919.272	13734
919.383	13700
919.494	13906
919.604	14123
919.715	13936
919.826	13795
919.936	13826
920.047	13871
920.157	13913
920.267	14065
920.378	13906
920.488	13856
920.598	13989
920.708	14153
920.818	14088
920.928	14073
921.038	14130
921.148	14073
921.258	13814
921.368	13750
921.477	13552
921.587	13563
921.697	13506
921.806	13620
921.916	13575
922.025	13293
922.134	13346
922.244	13221
922.353	13339
922.462	13107
922.571	13129
922.68	12890
922.789	12859
922.898	12924
923.007	12806
923.116	12996
923.224	12962
923.333	12867
923.442	12722
923.55	12772
923.659	12829
923.767	12897
923.876	12654
923.984	12753
924.092	12601
924.201	12730
924.309	12673
924.417	12578
924.525	12597
924.633	12551
924.741	13506
924.849	12399
924.956	12483
925.064	12391
925.172	12319
925.279	12376
925.387	12414
925.494	12334
925.602	12490
925.709	12532
925.816	12258
925.924	12327
926.031	12311
926.138	12357
926.245	12357
926.352	12266
926.459	12422
926.566	12429
926.673	12281
926.779	12239
926.886	12186
926.993	11927
927.099	12011
927.206	11920
927.312	11984
927.419	11988
927.525	11958
927.631	12015
927.737	11855
927.843	11809
927.95	11691
928.056	11790
928.162	11851
928.267	11817
928.373	12544
928.479	11931
928.585	11657
928.69	11733
928.796	11840
928.901	11657
929.007	11543
929.112	11604
929.218	11623
929.323	11566
929.428	11623
929.533	11691
929.638	11440
929.743	11554
929.848	11630
929.953	11493
930.058	11417
930.163	11216
930.267	11284
930.372	11360
930.477	11170
930.581	11448
930.685	11269
930.79	11143
930.894	11208
930.998	11151
931.103	11227
931.207	10809
931.311	10828
931.415	10672
931.519	10580
931.623	10577
