Data from test_V78500241_2087.txt Node
Date: Fri Mar 25 15:24:23 CST 2022
User: usil
Spectrometer: V785-0024
Trigger mode: 0
Integration Time (sec): 4.000000E-1
Scans to average: 1
Nonlinearity correction enabled: false
Boxcar width: 0
Storing dark spectrum: false
XAxis mode: Wavelengths
Number of Pixels in Spectrum: 1024
>>>>>Begin Spectral Data<<<<<
801.071	27899
801.214	27797
801.356	27462
801.499	27496
801.641	27351
801.783	27462
801.926	27424
802.068	27424
802.211	27264
802.353	27260
802.496	27188
802.638	27028
802.78	26948
802.923	26944
803.065	26967
803.208	26868
803.35	26994
803.492	27214
803.635	27211
803.777	27028
803.919	27226
804.061	27511
804.204	27268
804.346	27188
804.488	27207
804.63	27222
804.773	27112
804.915	27207
805.057	27477
805.199	27161
805.341	27245
805.483	27492
805.626	27275
805.768	27283
805.91	27378
806.052	27313
806.194	27214
806.336	27492
806.478	27447
806.62	27211
806.762	27481
806.904	27481
807.046	27781
807.188	27827
807.33	27895
807.472	27819
807.614	27724
807.756	27831
807.898	27641
808.04	27564
808.182	27633
808.324	27701
808.465	27850
808.607	27876
808.749	27831
808.891	28025
809.033	28090
809.174	28067
809.316	27842
809.458	27911
809.6	27941
809.741	27991
809.883	27918
810.025	28226
810.166	28242
810.308	28219
810.45	28074
810.591	28215
810.733	27994
810.875	27876
811.016	27835
811.158	27724
811.299	27914
811.441	28105
811.582	28139
811.724	27865
811.865	27892
812.007	27800
812.148	27979
812.29	27953
812.431	28116
812.573	28215
812.714	28333
812.855	28363
812.997	28557
813.138	28736
813.279	28607
813.421	28424
813.562	28417
813.703	28238
813.845	28200
813.986	27918
814.127	27762
814.268	27485
814.41	27542
814.551	27667
814.692	27641
814.833	27580
814.974	27671
815.115	27701
815.256	27534
815.397	27576
815.539	27447
815.68	27367
815.821	27424
815.962	27450
816.103	27348
816.244	27302
816.385	27195
816.526	27096
816.666	26998
816.807	26948
816.948	27039
817.089	27017
817.23	26982
817.371	27013
817.512	26990
817.653	26914
817.793	26944
817.934	26933
818.075	26857
818.216	27024
818.356	27043
818.497	26914
818.638	26708
818.778	26727
818.919	26651
819.06	26716
819.2	26906
819.341	27009
819.481	26979
819.622	27123
819.762	27241
819.903	27169
820.043	27108
820.184	26986
820.324	26956
820.465	27051
820.605	26914
820.746	27051
820.886	26933
821.026	27036
821.167	27024
821.307	27192
821.447	26994
821.588	26804
821.728	26758
821.868	26606
822.008	26495
822.149	26240
822.289	26438
822.429	26020
822.569	26187
822.709	26096
822.849	25944
822.99	25966
823.13	25849
823.27	25856
823.41	25609
823.55	25643
823.69	25750
823.83	25765
823.97	25597
824.11	25388
824.25	25499
824.389	25624
824.529	25578
824.669	25582
824.809	25552
824.949	25525
825.089	25666
825.228	25548
825.368	25407
825.508	25236
825.648	25396
825.787	25476
825.927	25426
826.067	25377
826.206	25263
826.346	25426
826.485	25464
826.625	25403
826.765	25525
826.904	25396
827.044	25198
827.183	25183
827.323	25126
827.462	25297
827.601	25152
827.741	25168
827.88	25187
828.02	25000
828.159	25084
828.298	25160
828.437	25228
828.577	25114
828.716	25324
828.855	25053
828.994	24738
829.134	24935
829.273	24897
829.412	24833
829.551	24856
829.69	24890
829.829	24916
829.968	24962
830.107	24871
830.246	24829
830.385	24779
830.524	24726
830.663	24700
830.802	24623
830.941	24570
831.08	24525
831.219	24597
831.357	24547
831.496	24726
831.635	24467
831.774	24486
831.913	24422
832.051	24121
832.19	24152
832.329	24273
832.467	24213
832.606	24136
832.744	24125
832.883	23988
833.022	24121
833.16	24171
833.299	24334
833.437	24194
833.576	24209
833.714	24129
833.852	24315
833.991	24197
834.129	24300
834.267	24148
834.406	24140
834.544	24201
834.682	24163
834.821	24114
834.959	24270
835.097	24140
835.235	24194
835.373	24186
835.511	24186
835.65	24121
835.788	23912
835.926	23901
836.064	23798
836.202	23904
836.34	23977
836.478	24205
836.615	24125
836.753	24007
836.891	23980
837.029	23923
837.167	23912
837.305	23904
837.443	23923
837.58	23794
837.718	24003
837.856	23775
837.993	23764
838.131	23851
838.269	23752
838.406	23687
838.544	23695
838.681	23501
838.819	23433
838.956	23318
839.094	23315
839.231	23417
839.369	23520
839.506	23722
839.643	23638
839.781	23376
839.918	23250
840.055	23391
840.193	23410
840.33	23296
840.467	23326
840.604	23311
840.742	23421
840.879	23064
841.016	23147
841.153	23155
841.29	23200
841.427	23162
841.564	23269
841.701	23250
841.838	23113
841.975	23132
842.112	23212
842.249	22957
842.385	22961
842.522	23239
842.659	23025
842.796	22976
842.933	23162
843.069	23041
843.206	22934
843.343	23098
843.479	23044
843.616	22968
843.752	22797
843.889	22885
844.025	22995
844.162	22809
844.298	22831
844.435	22653
844.571	22687
844.708	22809
844.844	23006
844.98	22786
845.117	22835
845.253	22717
845.389	22672
845.525	22656
845.661	22683
845.798	22474
845.934	22596
846.07	22466
846.206	22527
846.342	22596
846.478	22459
846.614	22272
846.75	22204
846.886	22257
847.022	22272
847.158	22276
847.294	22265
847.429	22226
847.565	22143
847.701	22428
847.837	22010
847.972	21930
848.108	22021
848.244	22105
848.379	21876
848.515	21892
848.65	21861
848.786	21850
848.921	21800
849.057	21915
849.192	21991
849.328	21808
849.463	21785
849.598	21747
849.734	21656
849.869	21561
850.004	21660
850.14	21610
850.275	21625
850.41	21561
850.545	21618
850.68	21545
850.815	21530
850.95	21641
851.085	21736
851.22	21724
851.355	21587
851.49	21603
851.625	21526
851.76	21515
851.895	21595
852.03	21492
852.165	21580
852.299	21629
852.434	21644
852.569	21511
852.703	21599
852.838	21519
852.973	21694
853.107	21717
853.242	21462
853.376	21485
853.511	21279
853.645	21416
853.78	21549
853.914	21332
854.048	21405
854.183	21363
854.317	21397
854.451	21462
854.585	21405
854.72	21466
854.854	21477
854.988	21294
855.122	21367
855.256	21287
855.39	21367
855.524	21367
855.658	21526
855.792	21408
855.926	21325
856.06	21428
856.194	21488
856.327	21329
856.461	21283
856.595	21310
856.729	21355
856.862	21439
856.996	21412
857.13	21439
857.263	21545
857.397	21393
857.53	21287
857.664	21477
857.797	21428
857.931	21485
858.064	21458
858.197	21572
858.331	21332
858.464	21355
858.597	21389
858.731	21393
858.864	21313
858.997	21260
859.13	21397
859.263	21416
859.396	21542
859.529	21211
859.662	21408
859.795	21287
859.928	21424
860.061	21454
860.194	21561
860.327	21473
860.46	21431
860.592	21618
860.725	21618
860.858	21545
860.99	21435
861.123	21393
861.256	21420
861.388	21401
861.521	22116
861.653	21294
861.786	21138
861.918	21211
862.05	21241
862.183	21355
862.315	21317
862.447	21412
862.58	21310
862.712	21096
862.844	21066
862.976	21211
863.108	21241
863.24	21633
863.372	21043
863.504	21214
863.636	21112
863.768	21218
863.9	21036
864.032	21093
864.164	21077
864.296	21169
864.428	21230
864.559	21123
864.691	21127
864.823	21089
864.954	21192
865.086	21123
865.217	21013
865.349	20906
865.48	21009
865.612	21070
865.743	21066
865.875	21039
866.006	21024
866.137	21093
866.269	20960
866.4	20982
866.531	20910
866.662	20868
866.793	20796
866.924	20971
867.055	21032
867.186	20979
867.317	20906
867.448	20872
867.579	20838
867.71	20883
867.841	20746
867.972	20872
868.103	20845
868.233	21047
868.364	20948
868.495	21093
868.625	21123
868.756	21355
868.886	21100
869.017	21192
869.147	21203
869.278	21272
869.408	21165
869.539	21161
869.669	21211
869.799	21203
869.929	21249
870.06	21302
870.19	21397
870.32	21477
870.45	21530
870.58	21633
870.71	21629
870.84	21766
870.97	21507
871.1	21587
871.23	21823
871.36	21713
871.489	21663
871.619	21766
871.749	21800
871.879	21823
872.008	21827
872.138	21785
872.267	21720
872.397	21698
872.526	21663
872.656	21705
872.785	21553
872.915	21808
873.044	21838
873.173	21827
873.303	21835
873.432	21835
873.561	21907
873.69	21732
873.819	21774
873.948	21797
874.077	21781
874.206	21694
874.335	21819
874.464	21876
874.593	21998
874.722	22006
874.851	21934
874.979	21979
875.108	22055
875.237	21975
875.365	21972
875.494	22002
875.623	21983
875.751	22006
875.88	22109
876.008	22329
876.136	22325
876.265	22485
876.393	22440
876.521	22577
876.65	22405
876.778	22500
876.906	22310
877.034	22363
877.162	22356
877.29	22337
877.418	22375
877.546	22432
877.674	22344
877.802	22360
877.93	22363
878.058	22287
878.185	22261
878.313	22314
878.441	22322
878.568	22147
878.696	22356
878.824	22459
878.951	22424
879.079	22538
879.206	22702
879.333	22493
879.461	22337
879.588	22424
879.715	22432
879.842	22603
879.97	22398
880.097	22158
880.224	22124
880.351	22223
880.478	22230
880.605	22169
880.732	22276
880.859	22421
880.986	22246
881.112	22272
881.239	22097
881.366	22013
881.493	21789
881.619	21842
881.746	21743
881.872	21766
881.999	21675
882.125	21652
882.252	21724
882.378	21743
882.505	21732
882.631	21519
882.757	21507
882.883	21477
883.01	21454
883.136	21317
883.262	21283
883.388	21355
883.514	21363
883.64	21416
883.766	21393
883.892	21313
884.018	21321
884.143	21408
884.269	21466
884.395	21066
884.52	21028
884.646	21135
884.772	20933
884.897	20941
885.023	21028
885.148	21218
885.274	21310
885.399	21272
885.524	21036
885.65	21161
885.775	21036
885.9	21036
886.025	21241
886.15	21169
886.275	21104
886.4	21093
886.525	21074
886.65	21020
886.775	20914
886.9	21180
887.025	21336
887.149	21043
887.274	20914
887.399	20804
887.523	20807
887.648	20769
887.773	20792
887.897	20952
888.021	20883
888.146	20796
888.27	20967
888.395	20948
888.519	20887
888.643	20952
888.767	20887
888.891	20823
889.015	20701
889.139	20823
889.263	20648
889.387	20670
889.511	20952
889.635	20792
889.759	20522
889.883	20583
890.006	20629
890.13	20735
890.254	20530
890.377	20621
890.501	20415
890.624	20355
890.748	20450
890.871	20195
890.995	20252
891.118	20176
891.241	20290
891.364	20244
891.488	20377
891.611	20301
891.734	20172
891.857	20275
891.98	20248
892.103	20229
892.226	20282
892.349	20138
892.471	20043
892.594	20130
892.717	19997
892.839	20111
892.962	20187
893.085	20172
893.207	20050
893.33	19909
893.452	20016
893.575	20126
893.697	20065
893.819	20313
893.941	20434
894.064	20267
894.186	20111
894.308	20180
894.43	20199
894.552	20240
894.674	20237
894.796	20107
894.918	20084
895.04	20134
895.161	20237
895.283	20122
895.405	20058
895.526	20172
895.648	20195
895.769	20199
895.891	20176
896.012	20130
896.134	20100
896.255	20107
896.376	20134
896.498	20149
896.619	20130
896.74	20168
896.861	20199
896.982	20499
897.103	20549
897.224	20358
897.345	20240
897.466	20202
897.587	20290
897.708	20469
897.828	20419
897.949	20256
898.07	20145
898.19	20263
898.311	20404
898.431	20244
898.552	20301
898.672	20415
898.792	20343
898.913	20339
899.033	20214
899.153	20278
899.273	20039
899.393	20039
899.513	20043
899.633	20138
899.753	20065
899.873	20008
899.993	20149
900.113	20107
900.232	19989
900.352	19982
900.472	19906
900.591	19818
900.711	19906
900.83	19727
900.95	20039
901.069	19879
901.189	19715
901.308	19483
901.427	19483
901.546	19396
901.665	19403
901.784	19487
901.904	19415
902.023	19282
902.141	19027
902.26	18973
902.379	19042
902.498	18939
902.617	19031
902.735	19103
902.854	18996
902.973	18882
903.091	18669
903.21	18692
903.328	18627
903.446	18578
903.565	18456
903.683	18475
903.801	18357
903.919	18376
904.038	18399
904.156	18186
904.274	18266
904.392	18273
904.51	18136
904.627	18235
904.745	18300
904.863	18292
904.981	17950
905.098	17847
905.216	17946
905.334	17984
905.451	17931
905.569	17855
905.686	17824
905.803	17874
905.921	17703
906.038	17805
906.155	17718
906.272	17726
906.389	17615
906.506	17436
906.623	17433
906.74	17330
906.857	17299
906.974	17311
907.091	17383
907.208	17596
907.324	17532
907.441	17258
907.557	17174
907.674	17178
907.79	17159
907.907	17128
908.023	17162
908.139	17189
908.256	16991
908.372	17022
908.488	16987
908.604	16881
908.72	16801
908.836	16812
908.952	16904
909.068	16965
909.184	16987
909.3	16797
909.415	16866
909.531	16892
909.647	16535
909.762	16573
909.878	16489
909.993	16497
910.108	16569
910.224	16588
910.339	16516
910.454	16447
910.57	16333
910.685	16352
910.8	16535
910.915	16466
911.03	16303
911.145	16207
911.259	16177
911.374	16147
911.489	16109
911.604	16169
911.718	15994
911.833	15911
911.947	15823
912.062	15698
912.176	15831
912.291	15972
912.405	15816
912.519	16051
912.633	16032
912.748	15945
912.862	15873
912.976	15698
913.09	15614
913.204	15648
913.318	15736
913.431	15781
913.545	15857
913.659	15865
913.772	15739
913.886	15629
914	15496
914.113	15523
914.226	15701
914.34	15591
914.453	15351
914.566	15519
914.68	15412
914.793	15298
914.906	15211
915.019	15051
915.132	15066
915.245	15039
915.358	15135
915.47	15203
915.583	15085
915.696	15173
915.809	15237
915.921	15302
916.034	15077
916.146	15112
916.259	14967
916.371	15020
916.483	14979
916.595	14918
916.708	15047
916.82	14963
916.932	14918
917.044	14925
917.156	14910
917.268	14857
917.38	14705
917.491	14785
917.603	14632
917.715	14864
917.826	14887
917.938	14659
918.049	14689
918.161	14720
918.272	14826
918.384	14739
918.495	14701
918.606	14625
918.717	14381
918.828	14697
918.939	14556
919.05	14434
919.161	14552
919.272	14366
919.383	14336
919.494	14594
919.604	14598
919.715	14507
919.826	14396
919.936	14400
920.047	14568
920.157	14617
920.267	14610
920.378	14488
920.488	14492
920.598	14617
920.708	14891
920.818	14476
920.928	14625
921.038	14842
921.148	14693
921.258	14404
921.368	14298
921.477	14252
921.587	14305
921.697	14111
921.806	14199
921.916	13967
922.025	13967
922.134	13967
922.244	13845
922.353	13849
922.462	13757
922.571	13734
922.68	13483
922.789	13464
922.898	13575
923.007	13525
923.116	13472
923.224	13472
923.333	13377
923.442	13346
923.55	13400
923.659	13384
923.767	13392
923.876	13278
923.984	13320
924.092	13183
924.201	13240
924.309	13327
924.417	13278
924.525	13183
924.633	13190
924.741	13970
924.849	13072
924.956	13099
925.064	12977
925.172	12920
925.279	12932
925.387	12993
925.494	12996
925.602	12981
925.709	12947
925.816	12779
925.924	12863
926.031	12875
926.138	12867
926.245	12951
926.352	12692
926.459	12856
926.566	12970
926.673	12867
926.779	12719
926.886	12650
926.993	12551
927.099	12486
927.206	12509
927.312	12422
927.419	12563
927.525	12475
927.631	12582
927.737	12418
927.843	12365
927.95	12300
928.056	12281
928.162	12346
928.267	12338
928.373	12973
928.479	12319
928.585	12148
928.69	12209
928.796	12251
928.901	12125
929.007	12019
929.112	12182
929.218	12163
929.323	11977
929.428	12087
929.533	12190
929.638	11893
929.743	11977
929.848	12068
929.953	11939
930.058	11901
930.163	11718
930.267	11760
930.372	11866
930.477	11676
930.581	11950
930.685	11748
930.79	11573
930.894	11608
930.998	11611
931.103	11771
931.207	11376
931.311	11356
931.415	11193
931.519	11060
931.623	11014
