Data from test_V78500241_2654.txt Node
Date: Fri Mar 25 15:28:20 CST 2022
User: usil
Spectrometer: V785-0024
Trigger mode: 0
Integration Time (sec): 4.000000E-1
Scans to average: 1
Nonlinearity correction enabled: false
Boxcar width: 0
Storing dark spectrum: false
XAxis mode: Wavelengths
Number of Pixels in Spectrum: 1024
>>>>>Begin Spectral Data<<<<<
801.071	27203
801.214	27013
801.356	26800
801.499	26743
801.641	26697
801.783	26640
801.926	26640
802.068	26514
802.211	26655
802.353	26564
802.496	26324
802.638	26240
802.78	26244
802.923	26183
803.065	26240
803.208	26259
803.35	26191
803.492	26412
803.635	26453
803.777	26343
803.919	26450
804.061	26670
804.204	26396
804.346	26309
804.488	26149
804.63	26476
804.773	26301
804.915	26461
805.057	26370
805.199	26351
805.341	26579
805.483	26453
805.626	26530
805.768	26400
805.91	26541
806.052	26514
806.194	26328
806.336	26541
806.478	26564
806.62	26412
806.762	26648
806.904	26739
807.046	27001
807.188	26960
807.33	26876
807.472	26967
807.614	26811
807.756	26804
807.898	26921
808.04	26731
808.182	26590
808.324	26796
808.465	26830
808.607	26899
808.749	27074
808.891	27291
809.033	27165
809.174	27237
809.316	26979
809.458	27207
809.6	27233
809.741	27272
809.883	27184
810.025	27272
810.166	27264
810.308	27408
810.45	27310
810.591	27294
810.733	27123
810.875	27154
811.016	26998
811.158	27066
811.299	27047
811.441	27256
811.582	27256
811.724	27009
811.865	27009
812.007	27066
812.148	27112
812.29	27161
812.431	27355
812.573	27374
812.714	27386
812.855	27682
812.997	27595
813.138	27876
813.279	27774
813.421	27663
813.562	27439
813.703	27466
813.845	27245
813.986	26948
814.127	26902
814.268	26655
814.41	26830
814.551	26754
814.692	26701
814.833	26724
814.974	26682
815.115	26777
815.256	26693
815.397	26731
815.539	26625
815.68	26560
815.821	26446
815.962	26522
816.103	26571
816.244	26400
816.385	26309
816.526	26248
816.666	26103
816.807	26039
816.948	26008
817.089	26134
817.23	25902
817.371	25982
817.512	25932
817.653	25879
817.793	25898
817.934	26096
818.075	26050
818.216	25940
818.356	25944
818.497	25959
818.638	25712
818.778	25708
818.919	25662
819.06	25712
819.2	25818
819.341	26065
819.481	26024
819.622	26088
819.762	26313
819.903	26237
820.043	26191
820.184	26126
820.324	26168
820.465	26172
820.605	26096
820.746	26069
820.886	25955
821.026	26092
821.167	26031
821.307	26119
821.447	25875
821.588	25887
821.728	25871
821.868	25597
822.008	25506
822.149	25597
822.289	25476
822.429	25266
822.569	25164
822.709	25168
822.849	24985
822.99	25099
823.13	24951
823.27	24947
823.41	24840
823.55	24798
823.69	24886
823.83	24779
823.97	24719
824.11	24719
824.25	24540
824.389	24532
824.529	24711
824.669	24597
824.809	24635
824.949	24722
825.089	24505
825.228	24738
825.368	24475
825.508	24616
825.648	24395
825.787	24479
825.927	24452
826.067	24532
826.206	24498
826.346	24540
826.485	24369
826.625	24475
826.765	24532
826.904	24437
827.044	24270
827.183	24311
827.323	24224
827.462	24273
827.601	24178
827.741	24140
827.88	24323
828.02	23973
828.159	24194
828.298	24110
828.437	24155
828.577	24041
828.716	24182
828.855	23988
828.994	23824
829.134	23939
829.273	24007
829.412	23851
829.551	23760
829.69	23783
829.829	23824
829.968	23923
830.107	23961
830.246	23988
830.385	23859
830.524	23923
830.663	23627
830.802	23653
830.941	23467
831.08	23421
831.219	23562
831.357	23455
831.496	23756
831.635	23482
831.774	23417
831.913	23421
832.051	23284
832.19	23303
832.329	23273
832.467	23136
832.606	23170
832.744	23064
832.883	23117
833.022	23159
833.16	23193
833.299	23284
833.437	23128
833.576	23284
833.714	23273
833.852	23227
833.991	23467
834.129	23356
834.267	23398
834.406	23220
834.544	23326
834.682	23296
834.821	23231
834.959	23455
835.097	23223
835.235	23280
835.373	23170
835.511	23288
835.65	23239
835.788	23124
835.926	22877
836.064	22908
836.202	22885
836.34	23075
836.478	23071
836.615	23136
836.753	23151
836.891	23064
837.029	23147
837.167	23132
837.305	23117
837.443	22991
837.58	22896
837.718	23006
837.856	23003
837.993	22869
838.131	22957
838.269	22927
838.406	22824
838.544	22755
838.681	22554
838.819	22519
838.956	22478
839.094	22382
839.231	22443
839.369	22550
839.506	22866
839.643	22706
839.781	22390
839.918	22337
840.055	22382
840.193	22424
840.33	22405
840.467	22405
840.604	22424
840.742	22611
840.879	22253
841.016	22344
841.153	22268
841.29	22440
841.427	22295
841.564	22451
841.701	22322
841.838	22291
841.975	22211
842.112	22470
842.249	22265
842.385	22295
842.522	22375
842.659	22147
842.796	22128
842.933	22074
843.069	22078
843.206	22086
843.343	22188
843.479	22101
843.616	22025
843.752	22044
843.889	21979
844.025	21960
844.162	21876
844.298	21937
844.435	21979
844.571	21922
844.708	21895
844.844	22055
844.98	22048
845.117	21968
845.253	21838
845.389	21766
845.525	21720
845.661	21698
845.798	21785
845.934	21656
846.07	21553
846.206	21732
846.342	21679
846.478	21576
846.614	21420
846.75	21313
846.886	21443
847.022	21466
847.158	21393
847.294	21359
847.429	21504
847.565	21264
847.701	21698
847.837	21085
847.972	21096
848.108	21131
848.244	21085
848.379	20979
848.515	20906
848.65	21001
848.786	20925
848.921	21024
849.057	21077
849.192	21055
849.328	21074
849.463	20967
849.598	21039
849.734	20819
849.869	20861
850.004	20750
850.14	20746
850.275	20686
850.41	20503
850.545	20705
850.68	20815
850.815	20689
850.95	20644
851.085	20963
851.22	20887
851.355	20750
851.49	20785
851.625	20579
851.76	20819
851.895	20708
852.03	20621
852.165	20769
852.299	20883
852.434	20792
852.569	20834
852.703	20750
852.838	20811
852.973	20914
853.107	20838
853.242	20731
853.376	20602
853.511	20438
853.645	20461
853.78	20686
853.914	20609
854.048	20556
854.183	20476
854.317	20495
854.451	20754
854.585	20602
854.72	20583
854.854	20533
854.988	20301
855.122	20530
855.256	20488
855.39	20454
855.524	20678
855.658	20556
855.792	20545
855.926	20526
856.06	20708
856.194	20568
856.327	20480
856.461	20583
856.595	20617
856.729	20579
856.862	20667
856.996	20674
857.13	20583
857.263	20720
857.397	20590
857.53	20480
857.664	20587
857.797	20663
857.931	20689
858.064	20674
858.197	20636
858.331	20469
858.464	20454
858.597	20408
858.731	20587
858.864	20507
858.997	20533
859.13	20549
859.263	20545
859.396	20640
859.529	20575
859.662	20408
859.795	20511
859.928	20552
860.061	20670
860.194	20720
860.327	20651
860.46	20575
860.592	20651
860.725	20746
860.858	20655
860.99	20613
861.123	20404
861.256	20480
861.388	20571
861.521	21096
861.653	20465
861.786	20320
861.918	20370
862.05	20423
862.183	20415
862.315	20499
862.447	20488
862.58	20526
862.712	20259
862.844	20305
862.976	20214
863.108	20404
863.24	20826
863.372	20195
863.504	20210
863.636	20290
863.768	20259
863.9	20377
864.032	20180
864.164	20130
864.296	20301
864.428	20355
864.559	20286
864.691	20442
864.823	20336
864.954	20374
865.086	20347
865.217	20157
865.349	20130
865.48	20180
865.612	20206
865.743	20278
865.875	20187
866.006	20202
866.137	20275
866.269	20138
866.4	20107
866.531	20142
866.662	20035
866.793	20031
866.924	20164
867.055	20195
867.186	20050
867.317	20138
867.448	20035
867.579	20130
867.71	20031
867.841	19963
867.972	20134
868.103	20111
868.233	20012
868.364	20275
868.495	20267
868.625	20396
868.756	20305
868.886	20332
869.017	20339
869.147	20377
869.278	20374
869.408	20461
869.539	20309
869.669	20511
869.799	20347
869.929	20507
870.06	20385
870.19	20651
870.32	20720
870.45	20667
870.58	20754
870.71	20815
870.84	20842
870.97	20762
871.1	20849
871.23	20937
871.36	20975
871.489	20823
871.619	20868
871.749	21009
871.879	21116
872.008	21066
872.138	21039
872.267	21005
872.397	20914
872.526	20735
872.656	20906
872.785	20815
872.915	20948
873.044	21020
873.173	20971
873.303	21028
873.432	21043
873.561	21074
873.69	21028
873.819	21062
873.948	21005
874.077	20998
874.206	21020
874.335	21062
874.464	21127
874.593	21279
874.722	21135
874.851	21142
874.979	21230
875.108	21298
875.237	21268
875.365	21108
875.494	21199
875.623	21363
875.751	21154
875.88	21336
876.008	21386
876.136	21355
876.265	21614
876.393	21724
876.521	21880
876.65	21736
876.778	21641
876.906	21599
877.034	21580
877.162	21553
877.29	21477
877.418	21667
877.546	21652
877.674	21587
877.802	21625
877.93	21462
878.058	21583
878.185	21450
878.313	21542
878.441	21542
878.568	21401
878.696	21454
878.824	21599
878.951	21694
879.079	21762
879.206	21819
879.333	21728
879.461	21682
879.588	21618
879.715	21778
879.842	21895
879.97	21557
880.097	21412
880.224	21374
880.351	21355
880.478	21473
880.605	21294
880.732	21428
880.859	21656
880.986	21454
881.112	21458
881.239	21279
881.366	21028
881.493	21085
881.619	21013
881.746	20952
881.872	21005
881.999	21077
882.125	20876
882.252	20956
882.378	20906
882.505	21112
882.631	20857
882.757	20758
882.883	20765
883.01	20705
883.136	20655
883.262	20480
883.388	20682
883.514	20712
883.64	20735
883.766	20678
883.892	20469
884.018	20457
884.143	20678
884.269	20731
884.395	20469
884.52	20259
884.646	20377
884.772	20301
884.897	20191
885.023	20419
885.148	20324
885.274	20465
885.399	20511
885.524	20408
885.65	20461
885.775	20343
885.9	20415
886.025	20427
886.15	20511
886.275	20271
886.4	20294
886.525	20214
886.65	20187
886.775	20240
886.9	20488
887.025	20476
887.149	20332
887.274	20202
887.399	20115
887.523	20119
887.648	20005
887.773	19894
887.897	20180
888.021	20103
888.146	20065
888.27	20084
888.395	20183
888.519	20199
888.643	20187
888.767	20199
888.891	19967
889.015	19963
889.139	19955
889.263	19898
889.387	20100
889.511	20157
889.635	20088
889.759	19883
889.883	19883
890.006	19986
890.13	20027
890.254	19833
890.377	19852
890.501	19677
890.624	19647
890.748	19719
890.871	19594
890.995	19445
891.118	19499
891.241	19506
891.364	19506
891.488	19761
891.611	19533
891.734	19483
891.857	19544
891.98	19613
892.103	19658
892.226	19601
892.349	19464
892.471	19285
892.594	19430
892.717	19510
892.839	19415
892.962	19476
893.085	19544
893.207	19343
893.33	19266
893.452	19308
893.575	19567
893.697	19377
893.819	19594
893.941	19601
894.064	19647
894.186	19384
894.308	19320
894.43	19491
894.552	19594
894.674	19434
894.796	19362
894.918	19480
895.04	19460
895.161	19586
895.283	19468
895.405	19403
895.526	19457
895.648	19407
895.769	19499
895.891	19422
896.012	19563
896.134	19472
896.255	19441
896.376	19453
896.498	19445
896.619	19499
896.74	19575
896.861	19514
896.982	19818
897.103	19974
897.224	19757
897.345	19757
897.466	19499
897.587	19567
897.708	19723
897.828	19620
897.949	19601
898.07	19563
898.19	19540
898.311	19670
898.431	19666
898.552	19616
898.672	19772
898.792	19651
898.913	19696
899.033	19689
899.153	19403
899.273	19403
899.393	19457
899.513	19388
899.633	19506
899.753	19419
899.873	19476
899.993	19430
900.113	19316
900.232	19483
900.352	19441
900.472	19293
900.591	19213
900.711	19247
900.83	19194
900.95	19358
901.069	19373
901.189	19156
901.308	18817
901.427	18890
901.546	18817
901.665	18848
901.784	18825
901.904	18741
902.023	18597
902.141	18437
902.26	18315
902.379	18452
902.498	18353
902.617	18254
902.735	18323
902.854	18262
902.973	18273
903.091	17961
903.21	18038
903.328	18007
903.446	17916
903.565	17741
903.683	17897
903.801	17798
903.919	17737
904.038	17733
904.156	17680
904.274	17676
904.392	17497
904.51	17604
904.627	17520
904.745	17627
904.863	17577
904.981	17372
905.098	17307
905.216	17204
905.334	17318
905.451	17269
905.569	17200
905.686	17220
905.803	17265
905.921	17109
906.038	17197
906.155	17060
906.272	17045
906.389	16968
906.506	16767
906.623	16866
906.74	16854
906.857	16835
906.974	16744
907.091	16873
907.208	16869
907.324	16854
907.441	16771
907.557	16649
907.674	16531
907.79	16519
907.907	16443
908.023	16607
908.139	16550
908.256	16508
908.372	16451
908.488	16352
908.604	16249
908.72	16265
908.836	16230
908.952	16188
909.068	16322
909.184	16375
909.3	16306
909.415	16371
909.531	16261
909.647	15964
909.762	16025
909.878	15930
909.993	15945
910.108	15892
910.224	15911
910.339	15911
910.454	15930
910.57	15622
910.685	15751
910.8	15846
910.915	15922
911.03	15854
911.145	15724
911.259	15599
911.374	15671
911.489	15572
911.604	15458
911.718	15268
911.833	15298
911.947	15386
912.062	15176
912.176	15325
912.291	15393
912.405	15351
912.519	15523
912.633	15519
912.748	15424
912.862	15291
912.976	15123
913.09	15028
913.204	15093
913.318	15150
913.431	15207
913.545	15184
913.659	15184
913.772	15146
913.886	14979
914	14971
914.113	15017
914.226	14990
914.34	15081
914.453	14834
914.566	15051
914.68	14868
914.793	14853
914.906	14705
915.019	14632
915.132	14533
915.245	14533
915.358	14648
915.47	14575
915.583	14583
915.696	14629
915.809	14708
915.921	14724
916.034	14503
916.146	14480
916.259	14492
916.371	14549
916.483	14568
916.595	14366
916.708	14461
916.82	14404
916.932	14370
917.044	14278
917.156	14275
917.268	14225
917.38	14259
917.491	14164
917.603	14210
917.715	14332
917.826	14355
917.938	14164
918.049	14145
918.161	14103
918.272	14385
918.384	14381
918.495	14161
918.606	14012
918.717	13955
918.828	14027
918.939	14073
919.05	13909
919.161	14001
919.272	13837
919.383	13890
919.494	14012
919.604	14244
919.715	14062
919.826	13841
919.936	13932
920.047	14062
920.157	14050
920.267	14233
920.378	14065
920.488	13974
920.598	14161
920.708	14225
920.818	14081
920.928	14100
921.038	14355
921.148	14282
921.258	14081
921.368	13879
921.477	13830
921.587	13795
921.697	13590
921.806	13807
921.916	13563
922.025	13392
922.134	13377
922.244	13411
922.353	13445
922.462	13282
922.571	13308
922.68	13080
922.789	13027
922.898	13149
923.007	12993
923.116	13107
923.224	12993
923.333	13118
923.442	12863
923.55	12875
923.659	12913
923.767	13034
923.876	12890
923.984	12901
924.092	12635
924.201	12825
924.309	12810
924.417	12779
924.525	12707
924.633	12738
924.741	13674
924.849	12536
924.956	12673
925.064	12471
925.172	12509
925.279	12426
925.387	12544
925.494	12544
925.602	12574
925.709	12490
925.816	12342
925.924	12384
926.031	12570
926.138	12433
926.245	12532
926.352	12384
926.459	12521
926.566	12475
926.673	12342
926.779	12292
926.886	12342
926.993	12155
927.099	12060
927.206	11965
927.312	11992
927.419	12095
927.525	11996
927.631	12091
927.737	11874
927.843	12015
927.95	11832
928.056	11851
928.162	11897
928.267	11999
928.373	12441
928.479	11920
928.585	11646
928.69	11802
928.796	12015
928.901	11760
929.007	11657
929.112	11786
929.218	11699
929.323	11680
929.428	11573
929.533	11790
929.638	11535
929.743	11585
929.848	11646
929.953	11604
930.058	11516
930.163	11311
930.267	11284
930.372	11452
930.477	11337
930.581	11493
930.685	11433
930.79	11185
930.894	11181
930.998	11128
931.103	11292
931.207	10900
931.311	10869
931.415	10847
931.519	10664
931.623	10577
