Data from test_V78500241_3072.txt Node
Date: Fri Mar 25 15:31:15 CST 2022
User: usil
Spectrometer: V785-0024
Trigger mode: 0
Integration Time (sec): 4.000000E-1
Scans to average: 1
Nonlinearity correction enabled: false
Boxcar width: 0
Storing dark spectrum: false
XAxis mode: Wavelengths
Number of Pixels in Spectrum: 1024
>>>>>Begin Spectral Data<<<<<
801.071	27454
801.214	27157
801.356	27017
801.499	27032
801.641	26785
801.783	26807
801.926	26864
802.068	26762
802.211	26815
802.353	26727
802.496	26442
802.638	26552
802.78	26419
802.923	26244
803.065	26412
803.208	26290
803.35	26377
803.492	26568
803.635	26514
803.777	26438
803.919	26609
804.061	26891
804.204	26716
804.346	26575
804.488	26484
804.63	26514
804.773	26465
804.915	26621
805.057	26788
805.199	26571
805.341	26716
805.483	26708
805.626	26739
805.768	26640
805.91	26629
806.052	26819
806.194	26549
806.336	26792
806.478	26746
806.62	26598
806.762	26830
806.904	26895
807.046	27108
807.188	27131
807.33	27096
807.472	27203
807.614	27043
807.756	27165
807.898	27001
808.04	26944
808.182	26769
808.324	26967
808.465	27017
808.607	27298
808.749	27355
808.891	27374
809.033	27412
809.174	27298
809.316	27329
809.458	27340
809.6	27241
809.741	27553
809.883	27447
810.025	27633
810.166	27469
810.308	27618
810.45	27462
810.591	27523
810.733	27256
810.875	27237
811.016	27283
811.158	27230
811.299	27427
811.441	27450
811.582	27427
811.724	27192
811.865	27241
812.007	27218
812.148	27214
812.29	27424
812.431	27450
812.573	27709
812.714	27717
812.855	27724
812.997	27865
813.138	27899
813.279	27899
813.421	27759
813.562	27701
813.703	27637
813.845	27542
813.986	27256
814.127	27005
814.268	26929
814.41	26956
814.551	26861
814.692	26971
814.833	26895
814.974	26933
815.115	26967
815.256	26864
815.397	26895
815.539	26823
815.68	26830
815.821	26651
815.962	26868
816.103	26724
816.244	26533
816.385	26453
816.526	26579
816.666	26275
816.807	26244
816.948	26218
817.089	26339
817.23	26225
817.371	26263
817.512	26058
817.653	26176
817.793	26077
817.934	26195
818.075	26240
818.216	26103
818.356	26084
818.497	26073
818.638	26016
818.778	25932
818.919	25898
819.06	26065
819.2	26119
819.341	26259
819.481	26183
819.622	26389
819.762	26617
819.903	26446
820.043	26374
820.184	26138
820.324	26358
820.465	26431
820.605	26324
820.746	26221
820.886	26126
821.026	26115
821.167	26324
821.307	26237
821.447	26153
821.588	26142
821.728	25966
821.868	25757
822.008	25723
822.149	25685
822.289	25571
822.429	25346
822.569	25434
822.709	25415
822.849	25362
822.99	25171
823.13	25217
823.27	25168
823.41	25088
823.55	25004
823.69	25004
823.83	25038
823.97	24958
824.11	24791
824.25	24814
824.389	24646
824.529	24814
824.669	24821
824.809	24852
824.949	24802
825.089	24840
825.228	24795
825.368	24547
825.508	24658
825.648	24627
825.787	24760
825.927	24696
826.067	24631
826.206	24684
826.346	24856
826.485	24681
826.625	24677
826.765	24753
826.904	24719
827.044	24365
827.183	24513
827.323	24315
827.462	24338
827.601	24388
827.741	24403
827.88	24251
828.02	24292
828.159	24285
828.298	24547
828.437	24452
828.577	24319
828.716	24445
828.855	24216
828.994	24216
829.134	24159
829.273	24155
829.412	24030
829.551	24026
829.69	24060
829.829	24102
829.968	24220
830.107	24178
830.246	24136
830.385	24057
830.524	24072
830.663	23923
830.802	23874
830.941	23661
831.08	23684
831.219	23745
831.357	23809
831.496	23946
831.635	23722
831.774	23657
831.913	23554
832.051	23547
832.19	23531
832.329	23512
832.467	23425
832.606	23406
832.744	23406
832.883	23459
833.022	23185
833.16	23421
833.299	23501
833.437	23326
833.576	23395
833.714	23520
833.852	23417
833.991	23547
834.129	23665
834.267	23630
834.406	23573
834.544	23402
834.682	23459
834.821	23417
834.959	23653
835.097	23478
835.235	23547
835.373	23356
835.511	23421
835.65	23296
835.788	23311
835.926	23128
836.064	23025
836.202	23102
836.34	23280
836.478	23315
836.615	23330
836.753	23360
836.891	23280
837.029	23311
837.167	23242
837.305	23265
837.443	23117
837.58	23162
837.718	23231
837.856	23174
837.993	23056
838.131	23296
838.269	22987
838.406	23151
838.544	22938
838.681	22797
838.819	22759
838.956	22660
839.094	22706
839.231	22713
839.369	22885
839.506	23048
839.643	22847
839.781	22664
839.918	22542
840.055	22615
840.193	22531
840.33	22542
840.467	22554
840.604	22557
840.742	22797
840.879	22455
841.016	22531
841.153	22432
841.29	22618
841.427	22500
841.564	22569
841.701	22557
841.838	22554
841.975	22344
842.112	22478
842.249	22459
842.385	22344
842.522	22569
842.659	22386
842.796	22398
842.933	22276
843.069	22265
843.206	22272
843.343	22303
843.479	22356
843.616	22405
843.752	22124
843.889	22124
844.025	22261
844.162	22109
844.298	22276
844.435	21972
844.571	22013
844.708	22173
844.844	22166
844.98	22242
845.117	22207
845.253	22055
845.389	21861
845.525	22105
845.661	21854
845.798	21819
845.934	21838
846.07	21739
846.206	21873
846.342	21926
846.478	21736
846.614	21553
846.75	21599
846.886	21641
847.022	21637
847.158	21500
847.294	21641
847.429	21625
847.565	21675
847.701	21755
847.837	21256
847.972	21340
848.108	21306
848.244	21302
848.379	21176
848.515	21043
848.65	21131
848.786	21203
848.921	21138
849.057	21230
849.192	21222
849.328	21138
849.463	21157
849.598	21100
849.734	20933
849.869	21047
850.004	20925
850.14	20883
850.275	21017
850.41	20910
850.545	20838
850.68	20952
850.815	20914
850.95	20933
851.085	21001
851.22	20944
851.355	20876
851.49	20921
851.625	20925
851.76	20845
851.895	20937
852.03	20887
852.165	20963
852.299	20960
852.434	21009
852.569	20937
852.703	20788
852.838	21032
852.973	21001
853.107	21017
853.242	20842
853.376	20689
853.511	20727
853.645	20804
853.78	20830
853.914	20830
854.048	20716
854.183	20758
854.317	20785
854.451	20967
854.585	20830
854.72	20701
854.854	20739
854.988	20899
855.122	20811
855.256	20655
855.39	20705
855.524	20845
855.658	20864
855.792	20724
855.926	20762
856.06	20663
856.194	20804
856.327	20735
856.461	20587
856.595	20594
856.729	20769
856.862	20804
856.996	20754
857.13	20674
857.263	20758
857.397	20853
857.53	20632
857.664	20705
857.797	20785
857.931	20830
858.064	20773
858.197	20891
858.331	20705
858.464	20743
858.597	20667
858.731	20788
858.864	20815
858.997	20720
859.13	20667
859.263	20785
859.396	20758
859.529	20621
859.662	20648
859.795	20689
859.928	20739
860.061	20849
860.194	21017
860.327	20800
860.46	20750
860.592	20937
860.725	20902
860.858	20773
860.99	20735
861.123	20773
861.256	20750
861.388	20705
861.521	21150
861.653	20598
861.786	20461
861.918	20659
862.05	20629
862.183	20602
862.315	20609
862.447	20800
862.58	20537
862.712	20412
862.844	20473
862.976	20465
863.108	20621
863.24	20724
863.372	20511
863.504	20484
863.636	20469
863.768	20423
863.9	20552
864.032	20381
864.164	20358
864.296	20446
864.428	20537
864.559	20518
864.691	20693
864.823	20461
864.954	20393
865.086	20385
865.217	20332
865.349	20317
865.48	20370
865.612	20457
865.743	20495
865.875	20336
866.006	20347
866.137	20431
866.269	20347
866.4	20351
866.531	20328
866.662	20355
866.793	20252
866.924	20317
867.055	20370
867.186	20389
867.317	20332
867.448	20107
867.579	20252
867.71	20301
867.841	20134
867.972	20328
868.103	20389
868.233	20267
868.364	20355
868.495	20343
868.625	20514
868.756	20625
868.886	20511
869.017	20530
869.147	20708
869.278	20644
869.408	20606
869.539	20670
869.669	20530
869.799	20636
869.929	20720
870.06	20575
870.19	20864
870.32	20769
870.45	20937
870.58	20880
870.71	21005
870.84	21047
870.97	21013
871.1	20883
871.23	21070
871.36	21096
871.489	21001
871.619	21108
871.749	21138
871.879	21169
872.008	21264
872.138	21233
872.267	21169
872.397	20952
872.526	20868
872.656	20948
872.785	20925
872.915	21150
873.044	21332
873.173	21256
873.303	21195
873.432	21169
873.561	21321
873.69	21188
873.819	21176
873.948	21184
874.077	21165
874.206	21157
874.335	21199
874.464	21214
874.593	21321
874.722	21287
874.851	21458
874.979	21492
875.108	21534
875.237	21393
875.365	21317
875.494	21450
875.623	21492
875.751	21408
875.88	21481
876.008	21545
876.136	21675
876.265	21827
876.393	21842
876.521	22021
876.65	22044
876.778	21827
876.906	21717
877.034	21808
877.162	21755
877.29	21854
877.418	21698
877.546	21838
877.674	21869
877.802	21747
877.93	21694
878.058	21789
878.185	21622
878.313	21705
878.441	21789
878.568	21519
878.696	21728
878.824	21755
878.951	21823
879.079	21899
879.206	22036
879.333	21838
879.461	21709
879.588	21850
879.715	22013
879.842	22002
879.97	21759
880.097	21641
880.224	21644
880.351	21652
880.478	21595
880.605	21583
880.732	21614
880.859	21846
880.986	21538
881.112	21603
881.239	21583
881.366	21317
881.493	21123
881.619	21199
881.746	21165
881.872	21138
881.999	21089
882.125	21112
882.252	21150
882.378	21184
882.505	21104
882.631	20929
882.757	20933
882.883	21051
883.01	20876
883.136	20819
883.262	20697
883.388	20670
883.514	20830
883.64	20876
883.766	20853
883.892	20583
884.018	20659
884.143	20743
884.269	20868
884.395	20594
884.52	20469
884.646	20545
884.772	20454
884.897	20389
885.023	20556
885.148	20667
885.274	20689
885.399	20594
885.524	20419
885.65	20583
885.775	20552
885.9	20560
886.025	20594
886.15	20625
886.275	20518
886.4	20431
886.525	20533
886.65	20522
886.775	20415
886.9	20568
887.025	20842
887.149	20431
887.274	20358
887.399	20214
887.523	20275
887.648	20328
887.773	20119
887.897	20286
888.021	20377
888.146	20164
888.27	20511
888.395	20336
888.519	20259
888.643	20210
888.767	20294
888.891	20119
889.015	20130
889.139	20161
889.263	20073
889.387	20134
889.511	20336
889.635	20282
889.759	20092
889.883	20043
890.006	20119
890.13	20138
890.254	19955
890.377	20001
890.501	19894
890.624	19750
890.748	19906
890.871	19868
890.995	19597
891.118	19552
891.241	19719
891.364	19632
891.488	19780
891.611	19696
891.734	19620
891.857	19727
891.98	19624
892.103	19826
892.226	19674
892.349	19628
892.471	19476
892.594	19662
892.717	19616
892.839	19548
892.962	19590
893.085	19651
893.207	19670
893.33	19392
893.452	19438
893.575	19567
893.697	19674
893.819	19563
893.941	19670
894.064	19693
894.186	19613
894.308	19548
894.43	19681
894.552	19674
894.674	19658
894.796	19460
894.918	19609
895.04	19552
895.161	19757
895.283	19639
895.405	19521
895.526	19567
895.648	19590
895.769	19594
895.891	19506
896.012	19613
896.134	19628
896.255	19616
896.376	19658
896.498	19601
896.619	19616
896.74	19666
896.861	19616
896.982	19997
897.103	20073
897.224	19955
897.345	19689
897.466	19689
897.587	19772
897.708	19967
897.828	19772
897.949	19830
898.07	19727
898.19	19989
898.311	19917
898.431	19708
898.552	19769
898.672	19921
898.792	19944
898.913	19772
899.033	19696
899.153	19685
899.273	19483
899.393	19510
899.513	19506
899.633	19639
899.753	19620
899.873	19483
899.993	19552
900.113	19563
900.232	19571
900.352	19525
900.472	19381
900.591	19388
900.711	19400
900.83	19365
900.95	19445
901.069	19426
901.189	19236
901.308	19015
901.427	18916
901.546	18894
901.665	18863
901.784	19015
901.904	18890
902.023	18817
902.141	18456
902.26	18509
902.379	18639
902.498	18483
902.617	18513
902.735	18467
902.854	18429
902.973	18410
903.091	18076
903.21	18174
903.328	18281
903.446	18038
903.565	17954
903.683	17992
903.801	17958
903.919	17965
904.038	17870
904.156	17707
904.274	17855
904.392	17710
904.51	17756
904.627	17783
904.745	17691
904.863	17733
904.981	17532
905.098	17486
905.216	17372
905.334	17501
905.451	17391
905.569	17417
905.686	17490
905.803	17402
905.921	17296
906.038	17250
906.155	17204
906.272	17056
906.389	17174
906.506	16995
906.623	16953
906.74	17003
906.857	16889
906.974	16896
907.091	16957
907.208	17162
907.324	16923
907.441	16858
907.557	16771
907.674	16630
907.79	16584
907.907	16634
908.023	16675
908.139	16702
908.256	16603
908.372	16664
908.488	16535
908.604	16428
908.72	16382
908.836	16462
908.952	16386
909.068	16462
909.184	16493
909.3	16268
909.415	16386
909.531	16276
909.647	16131
909.762	16101
909.878	16029
909.993	16093
910.108	16086
910.224	15994
910.339	16063
910.454	15926
910.57	15926
910.685	15892
910.8	16029
910.915	16063
911.03	15998
911.145	15759
911.259	15629
911.374	15720
911.489	15591
911.604	15545
911.718	15431
911.833	15355
911.947	15359
912.062	15313
912.176	15454
912.291	15500
912.405	15431
912.519	15667
912.633	15671
912.748	15496
912.862	15469
912.976	15260
913.09	15108
913.204	15173
913.318	15359
913.431	15310
913.545	15260
913.659	15447
913.772	15344
913.886	15123
914	15074
914.113	15097
914.226	15195
914.34	15207
914.453	14975
914.566	15188
914.68	14960
914.793	14956
914.906	14781
915.019	14746
915.132	14670
915.245	14613
915.358	14788
915.47	14762
915.583	14621
915.696	14720
915.809	14773
915.921	14781
916.034	14663
916.146	14556
916.259	14625
916.371	14731
916.483	14541
916.595	14545
916.708	14571
916.82	14549
916.932	14556
917.044	14533
917.156	14415
917.268	14358
917.38	14461
917.491	14366
917.603	14347
917.715	14370
917.826	14438
917.938	14278
918.049	14248
918.161	14298
918.272	14579
918.384	14408
918.495	14324
918.606	14138
918.717	14100
918.828	14206
918.939	14088
919.05	13978
919.161	14050
919.272	13902
919.383	13986
919.494	14149
919.604	14385
919.715	14195
919.826	13959
919.936	14115
920.047	14168
920.157	14176
920.267	14336
920.378	14119
920.488	14043
920.598	14313
920.708	14328
920.818	14290
920.928	14233
921.038	14393
921.148	14309
921.258	14069
921.368	14077
921.477	13845
921.587	13856
921.697	13769
921.806	13868
921.916	13753
922.025	13518
922.134	13533
922.244	13514
922.353	13540
922.462	13426
922.571	13419
922.68	13118
922.789	13179
922.898	13103
923.007	13046
923.116	13244
923.224	13076
923.333	12993
923.442	13069
923.55	12989
923.659	12989
923.767	12981
923.876	12924
923.984	12993
924.092	12882
924.201	12848
924.309	12894
924.417	12871
924.525	12840
924.633	12886
924.741	13799
924.849	12662
924.956	12734
925.064	12555
925.172	12604
925.279	12601
925.387	12620
925.494	12589
925.602	12650
925.709	12688
925.816	12479
925.924	12574
926.031	12608
926.138	12566
926.245	12616
926.352	12486
926.459	12597
926.566	12547
926.673	12376
926.779	12357
926.886	12319
926.993	12266
927.099	12159
927.206	12125
927.312	12087
927.419	12201
927.525	12091
927.631	12121
927.737	12060
927.843	11912
927.95	11832
928.056	12022
928.162	11954
928.267	12003
928.373	12662
928.479	12041
928.585	11866
928.69	11954
928.796	12053
928.901	11836
929.007	11672
929.112	11893
929.218	11752
929.323	11866
929.428	11672
929.533	11931
929.638	11657
929.743	11649
929.848	11642
929.953	11680
930.058	11634
930.163	11353
930.267	11490
930.372	11577
930.477	11398
930.581	11695
930.685	11478
930.79	11258
930.894	11284
930.998	11337
931.103	11459
931.207	11060
931.311	11052
931.415	10904
931.519	10744
931.623	10736
