Data from test_V78500241_3057.txt Node
Date: Fri Mar 25 15:31:08 CST 2022
User: usil
Spectrometer: V785-0024
Trigger mode: 0
Integration Time (sec): 4.000000E-1
Scans to average: 1
Nonlinearity correction enabled: false
Boxcar width: 0
Storing dark spectrum: false
XAxis mode: Wavelengths
Number of Pixels in Spectrum: 1024
>>>>>Begin Spectral Data<<<<<
801.071	27351
801.214	27154
801.356	27157
801.499	26842
801.641	26902
801.783	26857
801.926	26940
802.068	26754
802.211	26739
802.353	26731
802.496	26522
802.638	26644
802.78	26442
802.923	26381
803.065	26366
803.208	26488
803.35	26621
803.492	26518
803.635	26587
803.777	26514
803.919	26606
804.061	26979
804.204	26670
804.346	26541
804.488	26526
804.63	26613
804.773	26533
804.915	26640
805.057	26701
805.199	26686
805.341	26514
805.483	26762
805.626	26746
805.768	26598
805.91	26727
806.052	26788
806.194	26617
806.336	26891
806.478	26701
806.62	26648
806.762	26720
806.904	27020
807.046	27222
807.188	27176
807.33	27127
807.472	27085
807.614	27039
807.756	27096
807.898	27017
808.04	26929
808.182	26872
808.324	26975
808.465	27096
808.607	27154
808.749	27310
808.891	27367
809.033	27504
809.174	27287
809.316	27283
809.458	27378
809.6	27237
809.741	27405
809.883	27397
810.025	27568
810.166	27599
810.308	27671
810.45	27644
810.591	27530
810.733	27370
810.875	27416
811.016	27294
811.158	27180
811.299	27488
811.441	27427
811.582	27496
811.724	27291
811.865	27237
812.007	27241
812.148	27169
812.29	27416
812.431	27351
812.573	27629
812.714	27743
812.855	27808
812.997	27838
813.138	28010
813.279	27968
813.421	27880
813.562	27576
813.703	27667
813.845	27420
813.986	27192
814.127	27131
814.268	26937
814.41	26872
814.551	26979
814.692	26979
814.833	26910
814.974	26830
815.115	27138
815.256	26762
815.397	26845
815.539	26823
815.68	26735
815.821	26708
815.962	26819
816.103	26712
816.244	26587
816.385	26541
816.526	26434
816.666	26275
816.807	26119
816.948	26355
817.089	26214
817.23	26218
817.371	26107
817.512	26214
817.653	26191
817.793	26221
817.934	26183
818.075	26210
818.216	26214
818.356	26263
818.497	26081
818.638	25868
818.778	25898
818.919	25966
819.06	25921
819.2	26172
819.341	26271
819.481	26084
819.622	26313
819.762	26537
819.903	26457
820.043	26351
820.184	26374
820.324	26362
820.465	26324
820.605	26385
820.746	26161
820.886	26320
821.026	26282
821.167	26244
821.307	26309
821.447	26191
821.588	26161
821.728	25959
821.868	25860
822.008	25677
822.149	25651
822.289	25685
822.429	25293
822.569	25354
822.709	25362
822.849	25171
822.99	25126
823.13	25126
823.27	25141
823.41	25046
823.55	24882
823.69	25110
823.83	24977
823.97	24935
824.11	24810
824.25	24703
824.389	24897
824.529	24943
824.669	24677
824.809	24875
824.949	24757
825.089	24958
825.228	24772
825.368	24734
825.508	24707
825.648	24760
825.787	24639
825.927	24916
826.067	24608
826.206	24696
826.346	24677
826.485	24844
826.625	24665
826.765	24745
826.904	24734
827.044	24521
827.183	24452
827.323	24570
827.462	24399
827.601	24445
827.741	24395
827.88	24384
828.02	24376
828.159	24399
828.298	24346
828.437	24403
828.577	24213
828.716	24536
828.855	24247
828.994	24178
829.134	24129
829.273	24045
829.412	24091
829.551	23931
829.69	23992
829.829	24038
829.968	24171
830.107	24197
830.246	24049
830.385	24007
830.524	24011
830.663	23927
830.802	23809
830.941	23627
831.08	23573
831.219	23687
831.357	23638
831.496	23859
831.635	23661
831.774	23592
831.913	23585
832.051	23455
832.19	23379
832.329	23531
832.467	23330
832.606	23242
832.744	23345
832.883	23337
833.022	23353
833.16	23429
833.299	23353
833.437	23345
833.576	23459
833.714	23296
833.852	23448
833.991	23524
834.129	23596
834.267	23429
834.406	23463
834.544	23493
834.682	23410
834.821	23406
834.959	23547
835.097	23417
835.235	23531
835.373	23379
835.511	23356
835.65	23254
835.788	23376
835.926	23178
836.064	23018
836.202	23212
836.34	23246
836.478	23307
836.615	23254
836.753	23292
836.891	23334
837.029	23254
837.167	23235
837.305	23128
837.443	23140
837.58	23220
837.718	23105
837.856	23181
837.993	23102
838.131	23220
838.269	23048
838.406	23079
838.544	22915
838.681	22656
838.819	22790
838.956	22672
839.094	22622
839.231	22752
839.369	22816
839.506	23010
839.643	22923
839.781	22599
839.918	22592
840.055	22504
840.193	22577
840.33	22523
840.467	22603
840.604	22550
840.742	22816
840.879	22470
841.016	22413
841.153	22394
841.29	22653
841.427	22504
841.564	22500
841.701	22504
841.838	22504
841.975	22394
842.112	22402
842.249	22413
842.385	22360
842.522	22512
842.659	22386
842.796	22185
842.933	22253
843.069	22276
843.206	22299
843.343	22356
843.479	22261
843.616	22348
843.752	22013
843.889	22086
844.025	22196
844.162	21968
844.298	22173
844.435	22097
844.571	22063
844.708	22131
844.844	22128
844.98	22219
845.117	22135
845.253	21975
845.389	21964
845.525	21941
845.661	21949
845.798	21812
845.934	21759
846.07	21800
846.206	21808
846.342	21907
846.478	21736
846.614	21496
846.75	21408
846.886	21545
847.022	21587
847.158	21511
847.294	21614
847.429	21450
847.565	21351
847.701	21694
847.837	21329
847.972	21245
848.108	21405
848.244	21317
848.379	21039
848.515	20975
848.65	21081
848.786	21123
848.921	21165
849.057	21226
849.192	21241
849.328	21074
849.463	21089
849.598	20948
849.734	21043
849.869	20971
850.004	20823
850.14	20853
850.275	20815
850.41	20724
850.545	20754
850.68	20830
850.815	20963
850.95	20830
851.085	20998
851.22	20963
851.355	20990
851.49	20773
851.625	20857
851.76	20842
851.895	20758
852.03	20807
852.165	20883
852.299	20990
852.434	20853
852.569	20944
852.703	20842
852.838	20849
852.973	20887
853.107	20918
853.242	20773
853.376	20716
853.511	20648
853.645	20636
853.78	20743
853.914	20606
854.048	20682
854.183	20693
854.317	20727
854.451	20819
854.585	20731
854.72	20670
854.854	20762
854.988	20720
855.122	20701
855.256	20590
855.39	20663
855.524	20750
855.658	20754
855.792	20678
855.926	20781
856.06	20727
856.194	20762
856.327	20705
856.461	20667
856.595	20678
856.729	20655
856.862	20724
856.996	20682
857.13	20792
857.263	20792
857.397	20773
857.53	20705
857.664	20773
857.797	20727
857.931	20796
858.064	20598
858.197	20781
858.331	20746
858.464	20629
858.597	20552
858.731	20648
858.864	20590
858.997	20663
859.13	20872
859.263	20765
859.396	20777
859.529	20663
859.662	20682
859.795	20556
859.928	20807
860.061	20804
860.194	20845
860.327	20724
860.46	20541
860.592	20815
860.725	20777
860.858	20811
860.99	20689
861.123	20724
861.256	20621
861.388	20705
861.521	21199
861.653	20564
861.786	20484
861.918	20670
862.05	20629
862.183	20446
862.315	20693
862.447	20697
862.58	20613
862.712	20362
862.844	20377
862.976	20606
863.108	20419
863.24	20906
863.372	20305
863.504	20419
863.636	20507
863.768	20457
863.9	20446
864.032	20286
864.164	20301
864.296	20427
864.428	20450
864.559	20598
864.691	20442
864.823	20351
864.954	20366
865.086	20393
865.217	20294
865.349	20298
865.48	20259
865.612	20244
865.743	20434
865.875	20259
866.006	20320
866.137	20294
866.269	20355
866.4	20286
866.531	20290
866.662	20092
866.793	20218
866.924	20256
867.055	20275
867.186	20259
867.317	20161
867.448	20157
867.579	20271
867.71	20206
867.841	20153
867.972	20237
868.103	20248
868.233	20267
868.364	20343
868.495	20393
868.625	20545
868.756	20503
868.886	20389
869.017	20473
869.147	20533
869.278	20598
869.408	20560
869.539	20511
869.669	20549
869.799	20514
869.929	20613
870.06	20545
870.19	20773
870.32	20686
870.45	20804
870.58	20819
870.71	20948
870.84	20975
870.97	21017
871.1	20887
871.23	21085
871.36	21089
871.489	21020
871.619	20967
871.749	21093
871.879	21116
872.008	21218
872.138	21116
872.267	21074
872.397	20857
872.526	20883
872.656	21036
872.785	20929
872.915	21116
873.044	21214
873.173	21116
873.303	21150
873.432	21169
873.561	21218
873.69	21154
873.819	21043
873.948	21176
874.077	21138
874.206	21157
874.335	21047
874.464	21237
874.593	21340
874.722	21237
874.851	21363
874.979	21485
875.108	21378
875.237	21256
875.365	21245
875.494	21294
875.623	21291
875.751	21317
875.88	21344
876.008	21526
876.136	21523
876.265	21774
876.393	21808
876.521	21724
876.65	21854
876.778	21751
876.906	21618
877.034	21633
877.162	21618
877.29	21644
877.418	21667
877.546	21865
877.674	21618
877.802	21728
877.93	21698
878.058	21648
878.185	21614
878.313	21656
878.441	21686
878.568	21603
878.696	21557
878.824	21865
878.951	21755
879.079	21953
879.206	22112
879.333	21884
879.461	21766
879.588	21797
879.715	21800
879.842	21911
879.97	21831
880.097	21572
880.224	21568
880.351	21610
880.478	21713
880.605	21496
880.732	21591
880.859	21804
880.986	21504
881.112	21656
881.239	21439
881.366	21412
881.493	21264
881.619	21165
881.746	21146
881.872	21230
881.999	21032
882.125	21032
882.252	21131
882.378	21116
882.505	21165
882.631	20986
882.757	20845
882.883	20891
883.01	20861
883.136	20727
883.262	20644
883.388	20632
883.514	20834
883.64	20754
883.766	20689
883.892	20629
884.018	20613
884.143	20720
884.269	20883
884.395	20473
884.52	20568
884.646	20549
884.772	20374
884.897	20347
885.023	20598
885.148	20564
885.274	20625
885.399	20560
885.524	20556
885.65	20533
885.775	20438
885.9	20400
886.025	20530
886.15	20511
886.275	20461
886.4	20328
886.525	20351
886.65	20446
886.775	20499
886.9	20625
887.025	20765
887.149	20469
887.274	20298
887.399	20240
887.523	20351
887.648	20103
887.773	20107
887.897	20259
888.021	20290
888.146	20294
888.27	20336
888.395	20259
888.519	20317
888.643	20328
888.767	20278
888.891	20088
889.015	20027
889.139	20065
889.263	20054
889.387	20187
889.511	20419
889.635	20199
889.759	20062
889.883	20115
890.006	20088
890.13	20134
890.254	19909
890.377	19936
890.501	19875
890.624	19849
890.748	19898
890.871	19776
890.995	19670
891.118	19590
891.241	19769
891.364	19666
891.488	19837
891.611	19655
891.734	19719
891.857	19693
891.98	19719
892.103	19681
892.226	19689
892.349	19586
892.471	19422
892.594	19632
892.717	19491
892.839	19540
892.962	19575
893.085	19662
893.207	19544
893.33	19460
893.452	19403
893.575	19537
893.697	19525
893.819	19666
893.941	19822
894.064	19651
894.186	19556
894.308	19548
894.43	19635
894.552	19712
894.674	19715
894.796	19514
894.918	19510
895.04	19552
895.161	19639
895.283	19586
895.405	19464
895.526	19499
895.648	19518
895.769	19605
895.891	19506
896.012	19586
896.134	19605
896.255	19601
896.376	19540
896.498	19578
896.619	19647
896.74	19537
896.861	19712
896.982	19894
897.103	20039
897.224	19837
897.345	19731
897.466	19620
897.587	19811
897.708	19860
897.828	19875
897.949	19696
898.07	19651
898.19	19677
898.311	19890
898.431	19746
898.552	19871
898.672	19845
898.792	19963
898.913	19757
899.033	19677
899.153	19575
899.273	19540
899.393	19453
899.513	19693
899.633	19506
899.753	19582
899.873	19426
899.993	19575
900.113	19453
900.232	19537
900.352	19388
900.472	19445
900.591	19301
900.711	19304
900.83	19316
900.95	19407
901.069	19491
901.189	19282
901.308	18993
901.427	19008
901.546	18973
901.665	18913
901.784	18852
901.904	18810
902.023	18726
902.141	18532
902.26	18475
902.379	18555
902.498	18460
902.617	18391
902.735	18490
902.854	18506
902.973	18369
903.091	18091
903.21	18049
903.328	18186
903.446	18045
903.565	17908
903.683	17954
903.801	17779
903.919	17920
904.038	17859
904.156	17775
904.274	17794
904.392	17767
904.51	17745
904.627	17642
904.745	17794
904.863	17634
904.981	17455
905.098	17337
905.216	17360
905.334	17330
905.451	17421
905.569	17273
905.686	17455
905.803	17387
905.921	17231
906.038	17318
906.155	17124
906.272	17090
906.389	17090
906.506	16854
906.623	16889
906.74	16873
906.857	16858
906.974	16854
907.091	17014
907.208	17018
907.324	16957
907.441	16767
907.557	16668
907.674	16694
907.79	16561
907.907	16546
908.023	16698
908.139	16580
908.256	16531
908.372	16573
908.488	16569
908.604	16440
908.72	16276
908.836	16360
908.952	16398
909.068	16310
909.184	16352
909.3	16375
909.415	16333
909.531	16421
909.647	16105
909.762	15953
909.878	16074
909.993	16032
910.108	15987
910.224	15934
910.339	16109
910.454	15899
910.57	15781
910.685	15857
910.8	16071
910.915	16071
911.03	15937
911.145	15694
911.259	15660
911.374	15774
911.489	15618
911.604	15538
911.718	15386
911.833	15428
911.947	15378
912.062	15310
912.176	15435
912.291	15420
912.405	15397
912.519	15637
912.633	15587
912.748	15469
912.862	15336
912.976	15150
913.09	15112
913.204	15192
913.318	15188
913.431	15302
913.545	15302
913.659	15245
913.772	15237
913.886	15089
914	15024
914.113	15119
914.226	15195
914.34	15009
914.453	14918
914.566	15066
914.68	14971
914.793	14811
914.906	14746
915.019	14750
915.132	14644
915.245	14674
915.358	14701
915.47	14697
915.583	14667
915.696	14701
915.809	14788
915.921	14758
916.034	14537
916.146	14587
916.259	14533
916.371	14689
916.483	14636
916.595	14629
916.708	14583
916.82	14552
916.932	14389
917.044	14393
917.156	14423
917.268	14362
917.38	14419
917.491	14351
917.603	14393
917.715	14377
917.826	14454
917.938	14278
918.049	14256
918.161	14271
918.272	14385
918.384	14412
918.495	14301
918.606	14130
918.717	14123
918.828	14111
918.939	14142
919.05	14062
919.161	14073
919.272	13921
919.383	13913
919.494	14157
919.604	14347
919.715	14088
919.826	14005
919.936	14035
920.047	14149
920.157	14024
920.267	14256
920.378	14096
920.488	13993
920.598	14142
920.708	14415
920.818	14225
920.928	14111
921.038	14393
921.148	14271
921.258	14024
921.368	13925
921.477	13822
921.587	13811
921.697	13666
921.806	13928
921.916	13685
922.025	13605
922.134	13445
922.244	13438
922.353	13495
922.462	13324
922.571	13381
922.68	13175
922.789	13198
922.898	13099
923.007	13061
923.116	13137
923.224	13110
923.333	13084
923.442	13019
923.55	12890
923.659	13038
923.767	13107
923.876	12901
923.984	13015
924.092	12856
924.201	12928
924.309	12829
924.417	12875
924.525	12798
924.633	12814
924.741	13712
924.849	12597
924.956	12825
925.064	12620
925.172	12490
925.279	12570
925.387	12570
925.494	12623
925.602	12662
925.709	12574
925.816	12540
925.924	12551
926.031	12585
926.138	12540
926.245	12574
926.352	12422
926.459	12490
926.566	12544
926.673	12536
926.779	12323
926.886	12350
926.993	12129
927.099	12182
927.206	12049
927.312	12053
927.419	12121
927.525	12190
927.631	12239
927.737	12026
927.843	12060
927.95	11817
928.056	11969
928.162	11984
928.267	11999
928.373	12669
928.479	12049
928.585	11798
928.69	11954
928.796	11908
928.901	11836
929.007	11756
929.112	11866
929.218	11733
929.323	11726
929.428	11688
929.533	11790
929.638	11729
929.743	11695
929.848	11649
929.953	11657
930.058	11570
930.163	11360
930.267	11387
930.372	11509
930.477	11326
930.581	11558
930.685	11459
930.79	11360
930.894	11284
930.998	11246
931.103	11398
931.207	11041
931.311	10980
931.415	10957
931.519	10653
931.623	10706
