Data from test_V78500241_826.txt Node
Date: Fri Mar 25 15:15:36 CST 2022
User: usil
Spectrometer: V785-0024
Trigger mode: 0
Integration Time (sec): 4.000000E-1
Scans to average: 1
Nonlinearity correction enabled: false
Boxcar width: 0
Storing dark spectrum: false
XAxis mode: Wavelengths
Number of Pixels in Spectrum: 1024
>>>>>Begin Spectral Data<<<<<
801.071	28386
801.214	28287
801.356	28032
801.499	27972
801.641	27755
801.783	27812
801.926	27774
802.068	27819
802.211	27686
802.353	27618
802.496	27473
802.638	27424
802.78	27545
802.923	27492
803.065	27473
803.208	27412
803.35	27591
803.492	27644
803.635	27747
803.777	27618
803.919	27698
804.061	27968
804.204	27816
804.346	27572
804.488	27644
804.63	27770
804.773	27648
804.915	27823
805.057	27854
805.199	27785
805.341	27789
805.483	27914
805.626	27819
805.768	27652
805.91	27930
806.052	27914
806.194	27743
806.336	28135
806.478	28051
806.62	27918
806.762	28166
806.904	28063
807.046	28333
807.188	28329
807.33	28375
807.472	28344
807.614	28188
807.756	28352
807.898	28238
808.04	28070
808.182	28158
808.324	28226
808.465	28169
808.607	28394
808.749	28478
808.891	28561
809.033	28618
809.174	28615
809.316	28546
809.458	28691
809.6	28531
809.741	28736
809.883	28641
810.025	28881
810.166	28900
810.308	28839
810.45	28679
810.591	28824
810.733	28580
810.875	28615
811.016	28531
811.158	28557
811.299	28675
811.441	28713
811.582	28797
811.724	28554
811.865	28580
812.007	28519
812.148	28554
812.29	28668
812.431	28622
812.573	29064
812.714	29041
812.855	29143
812.997	29208
813.138	29356
813.279	29136
813.421	29311
813.562	29185
813.703	28915
813.845	28873
813.986	28550
814.127	28432
814.268	28386
814.41	28375
814.551	28360
814.692	28569
814.833	28367
814.974	28246
815.115	28424
815.256	28154
815.397	28177
815.539	28173
815.68	28067
815.821	28196
815.962	28135
816.103	28196
816.244	28078
816.385	27972
816.526	27789
816.666	27793
816.807	27743
816.948	27743
817.089	27781
817.23	27789
817.371	27610
817.512	27580
817.653	27622
817.793	27583
817.934	27610
818.075	27618
818.216	27519
818.356	27561
818.497	27477
818.638	27348
818.778	27393
818.919	27382
819.06	27420
819.2	27549
819.341	27564
819.481	27739
819.622	27728
819.762	28002
819.903	27850
820.043	27865
820.184	27686
820.324	27728
820.465	27789
820.605	27770
820.746	27789
820.886	27603
821.026	27561
821.167	27724
821.307	27739
821.447	27610
821.588	27469
821.728	27420
821.868	27378
822.008	27138
822.149	27058
822.289	26986
822.429	26750
822.569	26826
822.709	26724
822.849	26541
822.99	26583
823.13	26629
823.27	26590
823.41	26503
823.55	26328
823.69	26286
823.83	26427
823.97	26446
824.11	26267
824.25	26214
824.389	26077
824.529	26271
824.669	26149
824.809	26366
824.949	26290
825.089	26286
825.228	26199
825.368	26225
825.508	26157
825.648	26103
825.787	26077
825.927	26271
826.067	26065
826.206	26058
826.346	26103
826.485	26206
826.625	26119
826.765	26187
826.904	26206
827.044	26001
827.183	25753
827.323	25837
827.462	25860
827.601	25879
827.741	25784
827.88	25791
828.02	25871
828.159	25826
828.298	26043
828.437	25963
828.577	25811
828.716	25982
828.855	25890
828.994	25582
829.134	25613
829.273	25586
829.412	25460
829.551	25422
829.69	25426
829.829	25601
829.968	25609
830.107	25616
830.246	25483
830.385	25502
830.524	25381
830.663	25236
830.802	25278
830.941	25225
831.08	25141
831.219	25126
831.357	25168
831.496	25400
831.635	25289
831.774	25038
831.913	24970
832.051	24951
832.19	24935
832.329	25027
832.467	24897
832.606	24833
832.744	24654
832.883	24928
833.022	24844
833.16	24837
833.299	24989
833.437	24776
833.576	24947
833.714	24871
833.852	24966
833.991	24905
834.129	24825
834.267	24840
834.406	24962
834.544	24951
834.682	24875
834.821	24863
834.959	25004
835.097	24722
835.235	24901
835.373	24913
835.511	24901
835.65	24856
835.788	24760
835.926	24578
836.064	24540
836.202	24536
836.34	24738
836.478	24829
836.615	24719
836.753	24764
836.891	24791
837.029	24707
837.167	24555
837.305	24555
837.443	24536
837.58	24532
837.718	24494
837.856	24650
837.993	24555
838.131	24410
838.269	24365
838.406	24448
838.544	24407
838.681	24068
838.819	24129
838.956	24098
839.094	23901
839.231	24152
839.369	24155
839.506	24456
839.643	24235
839.781	23901
839.918	23847
840.055	24049
840.193	23961
840.33	23855
840.467	24083
840.604	23946
840.742	24171
840.879	23756
841.016	23756
841.153	23722
841.29	23988
841.427	23855
841.564	23802
841.701	23973
841.838	23893
841.975	23824
842.112	23764
842.249	23786
842.385	23611
842.522	23855
842.659	23676
842.796	23748
842.933	23653
843.069	23657
843.206	23589
843.343	23783
843.479	23798
843.616	23638
843.752	23524
843.889	23429
844.025	23592
844.162	23474
844.298	23474
844.435	23535
844.571	23493
844.708	23490
844.844	23611
844.98	23505
845.117	23543
845.253	23402
845.389	23261
845.525	23296
845.661	23212
845.798	23105
845.934	23334
846.07	23174
846.206	23189
846.342	23265
846.478	23239
846.614	22987
846.75	22900
846.886	22889
847.022	22991
847.158	22991
847.294	22850
847.429	22869
847.565	22881
847.701	23155
847.837	22660
847.972	22641
848.108	22664
848.244	22675
848.379	22497
848.515	22527
848.65	22603
848.786	22596
848.921	22508
849.057	22641
849.192	22596
849.328	22603
849.463	22516
849.598	22523
849.734	22379
849.869	22348
850.004	22200
850.14	22322
850.275	22322
850.41	22158
850.545	22226
850.68	22173
850.815	22341
850.95	22219
851.085	22478
851.22	22341
851.355	22188
851.49	22276
851.625	22196
851.76	22249
851.895	22078
852.03	22173
852.165	22310
852.299	22280
852.434	22207
852.569	22348
852.703	22265
852.838	22310
852.973	22295
853.107	22325
853.242	22128
853.376	22124
853.511	21994
853.645	22036
853.78	22128
853.914	22086
854.048	21945
854.183	21975
854.317	22048
854.451	22310
854.585	22093
854.72	22032
854.854	22234
854.988	22116
855.122	21994
855.256	21922
855.39	22021
855.524	22158
855.658	22150
855.792	22051
855.926	22131
856.06	22074
856.194	22200
856.327	21907
856.461	21956
856.595	21956
856.729	22074
856.862	22044
856.996	22158
857.13	22082
857.263	22154
857.397	22074
857.53	21953
857.664	22166
857.797	22188
857.931	22135
858.064	22139
858.197	22105
858.331	22070
858.464	22021
858.597	21945
858.731	22158
858.864	21953
858.997	22036
859.13	22093
859.263	22120
859.396	22200
859.529	22090
859.662	22067
859.795	21876
859.928	21991
860.061	22246
860.194	22192
860.327	22131
860.46	21991
860.592	22196
860.725	22242
860.858	22249
860.99	22090
861.123	21915
861.256	22063
861.388	22040
861.521	22672
861.653	21956
861.786	21800
861.918	21804
862.05	21972
862.183	21994
862.315	22166
862.447	22036
862.58	21979
862.712	21774
862.844	21808
862.976	21915
863.108	21774
863.24	22093
863.372	21679
863.504	21701
863.636	21686
863.768	21720
863.9	21690
864.032	21622
864.164	21781
864.296	21835
864.428	21857
864.559	21717
864.691	21975
864.823	21568
864.954	21717
865.086	21751
865.217	21698
865.349	21625
865.48	21679
865.612	21739
865.743	21789
865.875	21705
866.006	21625
866.137	21576
866.269	21732
866.4	21580
866.531	21614
866.662	21492
866.793	21698
866.924	21701
867.055	21568
867.186	21614
867.317	21492
867.448	21424
867.579	21561
867.71	21420
867.841	21431
867.972	21587
868.103	21519
868.233	21542
868.364	21534
868.495	21698
868.625	21861
868.756	21949
868.886	21675
869.017	21755
869.147	21781
869.278	21911
869.408	21770
869.539	21876
869.669	21945
869.799	21854
869.929	21869
870.06	21800
870.19	22173
870.32	22067
870.45	22238
870.58	22185
870.71	22246
870.84	22306
870.97	22257
871.1	22135
871.23	22314
871.36	22474
871.489	22257
871.619	22352
871.749	22379
871.879	22337
872.008	22668
872.138	22478
872.267	22500
872.397	22242
872.526	22158
872.656	22280
872.785	22303
872.915	22375
873.044	22436
873.173	22371
873.303	22447
873.432	22443
873.561	22565
873.69	22382
873.819	22470
873.948	22386
874.077	22325
874.206	22291
874.335	22337
874.464	22474
874.593	22641
874.722	22618
874.851	22675
874.979	22550
875.108	22736
875.237	22565
875.365	22417
875.494	22615
875.623	22733
875.751	22577
875.88	22649
876.008	22835
876.136	22862
876.265	22961
876.393	23109
876.521	23162
876.65	23128
876.778	23162
876.906	22733
877.034	23010
877.162	23052
877.29	22980
877.418	22866
877.546	22972
877.674	22892
877.802	23022
877.93	23010
878.058	22904
878.185	22854
878.313	22904
878.441	22953
878.568	22759
878.696	22953
878.824	22984
878.951	23022
879.079	23273
879.206	23296
879.333	23174
879.461	22999
879.588	22995
879.715	23128
879.842	23273
879.97	22999
880.097	22793
880.224	22687
880.351	22911
880.478	22911
880.605	22763
880.732	22824
880.859	22995
880.986	22816
881.112	22740
881.239	22759
881.366	22546
881.493	22390
881.619	22242
881.746	22447
881.872	22398
881.999	22402
882.125	22287
882.252	22356
882.378	22303
882.505	22459
882.631	22257
882.757	21964
882.883	22135
883.01	22070
883.136	22021
883.262	22040
883.388	21949
883.514	22150
883.64	22010
883.766	22006
883.892	21747
884.018	21869
884.143	21983
884.269	22040
884.395	21800
884.52	21545
884.646	21743
884.772	21549
884.897	21564
885.023	21789
885.148	21728
885.274	21800
885.399	21660
885.524	21686
885.65	21663
885.775	21701
885.9	21667
886.025	21854
886.15	21781
886.275	21656
886.4	21656
886.525	21595
886.65	21675
886.775	21625
886.9	21816
887.025	21774
887.149	21637
887.274	21401
887.399	21469
887.523	21420
887.648	21435
887.773	21382
887.897	21500
888.021	21553
888.146	21355
888.27	21428
888.395	21526
888.519	21363
888.643	21401
888.767	21408
888.891	21420
889.015	21237
889.139	21351
889.263	21169
889.387	21256
889.511	21530
889.635	21492
889.759	21203
889.883	21214
890.006	21348
890.13	21386
890.254	21203
890.377	21096
890.501	20914
890.624	20994
890.748	21058
890.871	20891
890.995	20735
891.118	20754
891.241	20754
891.364	20746
891.488	20842
891.611	20746
891.734	20667
891.857	20929
891.98	20857
892.103	20853
892.226	20762
892.349	20686
892.471	20609
892.594	20686
892.717	20762
892.839	20598
892.962	20724
893.085	20769
893.207	20667
893.33	20724
893.452	20587
893.575	20777
893.697	20640
893.819	20807
893.941	20891
894.064	20880
894.186	20613
894.308	20583
894.43	20746
894.552	20796
894.674	20686
894.796	20450
894.918	20613
895.04	20609
895.161	20739
895.283	20617
895.405	20621
895.526	20735
895.648	20629
895.769	20564
895.891	20777
896.012	20758
896.134	20834
896.255	20651
896.376	20773
896.498	20705
896.619	20705
896.74	20629
896.861	20674
896.982	21005
897.103	21157
897.224	20952
897.345	20758
897.466	20857
897.587	20864
897.708	20994
897.828	20944
897.949	20811
898.07	20788
898.19	20933
898.311	20895
898.431	20765
898.552	20800
898.672	20986
898.792	20883
898.913	20921
899.033	20640
899.153	20670
899.273	20495
899.393	20590
899.513	20636
899.633	20667
899.753	20598
899.873	20545
899.993	20575
900.113	20545
900.232	20655
900.352	20488
900.472	20431
900.591	20347
900.711	20362
900.83	20286
900.95	20476
901.069	20446
901.189	20336
901.308	19982
901.427	19936
901.546	19997
901.665	19978
901.784	19959
901.904	19807
902.023	19753
902.141	19559
902.26	19460
902.379	19529
902.498	19487
902.617	19312
902.735	19483
902.854	19449
902.973	19358
903.091	19259
903.21	19076
903.328	19129
903.446	19012
903.565	18871
903.683	18970
903.801	18779
903.919	18909
904.038	18871
904.156	18692
904.274	18821
904.392	18677
904.51	18734
904.627	18665
904.745	18719
904.863	18787
904.981	18532
905.098	18384
905.216	18213
905.334	18372
905.451	18376
905.569	18342
905.686	18395
905.803	18395
905.921	18163
906.038	18258
906.155	18277
906.272	18098
906.389	18038
906.506	17889
906.623	17916
906.74	17901
906.857	17828
906.974	17710
907.091	17904
907.208	18072
907.324	17969
907.441	17790
907.557	17680
907.674	17592
907.79	17592
907.907	17589
908.023	17532
908.139	17566
908.256	17570
908.372	17467
908.488	17627
908.604	17349
908.72	17284
908.836	17406
908.952	17292
909.068	17376
909.184	17379
909.3	17349
909.415	17368
909.531	17341
909.647	17094
909.762	17155
909.878	17037
909.993	17022
910.108	16953
910.224	16934
910.339	16995
910.454	16881
910.57	16782
910.685	16831
910.8	17060
910.915	16976
911.03	16900
911.145	16611
911.259	16710
911.374	16641
911.489	16481
911.604	16402
911.718	16325
911.833	16253
911.947	16265
912.062	16211
912.176	16394
912.291	16280
912.405	16386
912.519	16558
912.633	16474
912.748	16299
912.862	16306
912.976	16188
913.09	16025
913.204	16135
913.318	16124
913.431	16154
913.545	16246
913.659	16211
913.772	16139
913.886	16029
914	15926
914.113	16105
914.226	16071
914.34	15972
914.453	15838
914.566	15941
914.68	15835
914.793	15766
914.906	15618
915.019	15599
915.132	15618
915.245	15564
915.358	15572
915.47	15538
915.583	15591
915.696	15576
915.809	15622
915.921	15709
916.034	15439
916.146	15485
916.259	15485
916.371	15542
916.483	15515
916.595	15332
916.708	15439
916.82	15302
916.932	15382
917.044	15310
917.156	15287
917.268	15146
917.38	15245
917.491	15116
917.603	15131
917.715	15287
917.826	15233
917.938	15032
918.049	14998
918.161	15157
918.272	15207
918.384	15287
918.495	15119
918.606	14819
918.717	14982
918.828	14967
918.939	15001
919.05	14868
919.161	14921
919.272	14716
919.383	14830
919.494	14883
919.604	15119
919.715	14979
919.826	14811
919.936	14781
920.047	14910
920.157	14891
920.267	15085
920.378	14990
920.488	14876
920.598	15005
920.708	15184
920.818	14960
920.928	15093
921.038	15192
921.148	15135
921.258	14785
921.368	14743
921.477	14552
921.587	14526
921.697	14545
921.806	14663
921.916	14511
922.025	14328
922.134	14233
922.244	14145
922.353	14309
922.462	14176
922.571	14142
922.68	13940
922.789	13883
922.898	13894
923.007	13772
923.116	13887
923.224	13898
923.333	13902
923.442	13769
923.55	13651
923.659	13753
923.767	13765
923.876	13655
923.984	13731
924.092	13616
924.201	13616
924.309	13696
924.417	13601
924.525	13620
924.633	13586
924.741	14317
924.849	13369
924.956	13518
925.064	13396
925.172	13228
925.279	13263
925.387	13346
925.494	13293
925.602	13362
925.709	13396
925.816	13179
925.924	13190
926.031	13270
926.138	13259
926.245	13263
926.352	13099
926.459	13217
926.566	13308
926.673	13118
926.779	13137
926.886	13065
926.993	12882
927.099	12817
927.206	12814
927.312	12787
927.419	12856
927.525	12776
927.631	12916
927.737	12639
927.843	12703
927.95	12566
928.056	12662
928.162	12684
928.267	12654
928.373	13263
928.479	12726
928.585	12471
928.69	12570
928.796	12593
928.901	12517
929.007	12422
929.112	12547
929.218	12490
929.323	12414
929.428	12456
929.533	12467
929.638	12315
929.743	12224
929.848	12414
929.953	12327
930.058	12117
930.163	12171
930.267	12129
930.372	12190
930.477	12030
930.581	12197
930.685	12060
930.79	11984
930.894	11980
930.998	11882
931.103	12026
931.207	11661
931.311	11611
931.415	11570
931.519	11315
931.623	11326
