Data from test_V78500241_341.txt Node
Date: Fri Mar 25 15:12:14 CST 2022
User: usil
Spectrometer: V785-0024
Trigger mode: 0
Integration Time (sec): 4.000000E-1
Scans to average: 1
Nonlinearity correction enabled: false
Boxcar width: 0
Storing dark spectrum: false
XAxis mode: Wavelengths
Number of Pixels in Spectrum: 1024
>>>>>Begin Spectral Data<<<<<
801.071	27047
801.214	26990
801.356	26701
801.499	26701
801.641	26686
801.783	26568
801.926	26636
802.068	26693
802.211	26549
802.353	26469
802.496	26332
802.638	26286
802.78	26298
802.923	26176
803.065	26012
803.208	26183
803.35	26202
803.492	26317
803.635	26495
803.777	26328
803.919	26385
804.061	26724
804.204	26393
804.346	26294
804.488	26320
804.63	26461
804.773	26259
804.915	26374
805.057	26480
805.199	26294
805.341	26427
805.483	26389
805.626	26358
805.768	26377
805.91	26438
806.052	26564
806.194	26503
806.336	26701
806.478	26355
806.62	26461
806.762	26579
806.904	26773
807.046	26906
807.188	26921
807.33	26940
807.472	26906
807.614	26777
807.756	26899
807.898	26720
808.04	26659
808.182	26644
808.324	26678
808.465	26708
808.607	26807
808.749	27131
808.891	27226
809.033	27294
809.174	27096
809.316	27093
809.458	27070
809.6	26998
809.741	27127
809.883	27256
810.025	27306
810.166	27329
810.308	27264
810.45	27393
810.591	27207
810.733	26967
810.875	26960
811.016	26956
811.158	26868
811.299	27222
811.441	27039
811.582	27104
811.724	27055
811.865	26902
812.007	26914
812.148	27028
812.29	27032
812.431	27294
812.573	27344
812.714	27511
812.855	27663
812.997	27652
813.138	27835
813.279	27709
813.421	27629
813.562	27447
813.703	27427
813.845	27378
813.986	26960
814.127	26606
814.268	26682
814.41	26613
814.551	26678
814.692	26891
814.833	26670
814.974	26712
815.115	26708
815.256	26541
815.397	26602
815.539	26488
815.68	26514
815.821	26568
815.962	26438
816.103	26537
816.244	26427
816.385	26275
816.526	26172
816.666	26027
816.807	26050
816.948	26027
817.089	25986
817.23	25955
817.371	25917
817.512	26077
817.653	25978
817.793	25898
817.934	25989
818.075	26031
818.216	25868
818.356	25925
818.497	25780
818.638	25715
818.778	25582
818.919	25689
819.06	25643
819.2	26016
819.341	25799
819.481	25932
819.622	26130
819.762	26358
819.903	26233
820.043	26172
820.184	26058
820.324	26111
820.465	26081
820.605	26107
820.746	25993
820.886	25894
821.026	25970
821.167	26119
821.307	26031
821.447	25997
821.588	25921
821.728	25643
821.868	25491
822.008	25479
822.149	25510
822.289	25411
822.429	25145
822.569	25095
822.709	25061
822.849	24932
822.99	24772
823.13	24913
823.27	24913
823.41	24798
823.55	24654
823.69	24844
823.83	24749
823.97	24791
824.11	24528
824.25	24711
824.389	24601
824.529	24684
824.669	24509
824.809	24719
824.949	24525
825.089	24623
825.228	24696
825.368	24380
825.508	24464
825.648	24376
825.787	24448
825.927	24460
826.067	24365
826.206	24410
826.346	24441
826.485	24456
826.625	24410
826.765	24578
826.904	24414
827.044	24152
827.183	24045
827.323	24068
827.462	24201
827.601	24083
827.741	24114
827.88	24216
828.02	24098
828.159	24125
828.298	24125
828.437	24136
828.577	24030
828.716	24114
828.855	24045
828.994	23866
829.134	23870
829.273	23996
829.412	23756
829.551	23866
829.69	23718
829.829	23908
829.968	23950
830.107	23741
830.246	23836
830.385	23824
830.524	23691
830.663	23566
830.802	23543
830.941	23459
831.08	23406
831.219	23512
831.357	23623
831.496	23703
831.635	23509
831.774	23429
831.913	23296
832.051	23258
832.19	23299
832.329	23239
832.467	23113
832.606	23128
832.744	23223
832.883	23193
833.022	23109
833.16	23280
833.299	23170
833.437	23242
833.576	23239
833.714	23269
833.852	23208
833.991	23227
834.129	23246
834.267	23254
834.406	23162
834.544	23105
834.682	23117
834.821	23044
834.959	23440
835.097	23086
835.235	23246
835.373	23242
835.511	23204
835.65	23029
835.788	23048
835.926	23014
836.064	22995
836.202	22911
836.34	23113
836.478	23208
836.615	23022
836.753	23018
836.891	23014
837.029	23109
837.167	22980
837.305	22987
837.443	22934
837.58	22691
837.718	22938
837.856	22961
837.993	22828
838.131	22786
838.269	22744
838.406	22854
838.544	22733
838.681	22599
838.819	22637
838.956	22424
839.094	22394
839.231	22451
839.369	22596
839.506	22820
839.643	22634
839.781	22417
839.918	22318
840.055	22402
840.193	22375
840.33	22265
840.467	22443
840.604	22322
840.742	22557
840.879	22154
841.016	22242
841.153	22230
841.29	22451
841.427	22337
841.564	22500
841.701	22284
841.838	22173
841.975	22143
842.112	22166
842.249	22097
842.385	22101
842.522	22424
842.659	22204
842.796	22109
842.933	22063
843.069	22093
843.206	22044
843.343	22143
843.479	22029
843.616	22048
843.752	21865
843.889	21850
844.025	22048
844.162	21846
844.298	21876
844.435	21869
844.571	21717
844.708	21884
844.844	22032
844.98	21991
845.117	21975
845.253	21865
845.389	21774
845.525	21732
845.661	21644
845.798	21519
845.934	21648
846.07	21576
846.206	21679
846.342	21656
846.478	21576
846.614	21355
846.75	21188
846.886	21416
847.022	21466
847.158	21416
847.294	21306
847.429	21424
847.565	21321
847.701	21595
847.837	21138
847.972	21051
848.108	21108
848.244	21252
848.379	20944
848.515	20963
848.65	20872
848.786	20872
848.921	20967
849.057	21089
849.192	20990
849.328	20960
849.463	21017
849.598	20937
849.734	20853
849.869	20804
850.004	20800
850.14	20815
850.275	20689
850.41	20670
850.545	20617
850.68	20617
850.815	20667
850.95	20609
851.085	20727
851.22	20830
851.355	20727
851.49	20712
851.625	20686
851.76	20629
851.895	20522
852.03	20533
852.165	20663
852.299	20697
852.434	20819
852.569	20750
852.703	20746
852.838	20739
852.973	20750
853.107	20781
853.242	20629
853.376	20495
853.511	20381
853.645	20579
853.78	20606
853.914	20511
854.048	20514
854.183	20507
854.317	20587
854.451	20625
854.585	20476
854.72	20442
854.854	20640
854.988	20457
855.122	20488
855.256	20530
855.39	20450
855.524	20545
855.658	20404
855.792	20579
855.926	20613
856.06	20560
856.194	20598
856.327	20488
856.461	20590
856.595	20385
856.729	20442
856.862	20533
856.996	20613
857.13	20564
857.263	20606
857.397	20663
857.53	20476
857.664	20609
857.797	20579
857.931	20537
858.064	20579
858.197	20655
858.331	20442
858.464	20598
858.597	20545
858.731	20552
858.864	20499
858.997	20552
859.13	20514
859.263	20617
859.396	20549
859.529	20457
859.662	20499
859.795	20507
859.928	20556
860.061	20648
860.194	20609
860.327	20514
860.46	20579
860.592	20636
860.725	20712
860.858	20594
860.99	20480
861.123	20366
861.256	20526
861.388	20648
861.521	21142
861.653	20362
861.786	20423
861.918	20362
862.05	20480
862.183	20495
862.315	20495
862.447	20571
862.58	20434
862.712	20240
862.844	20065
862.976	20446
863.108	20237
863.24	20648
863.372	20149
863.504	20176
863.636	20298
863.768	20244
863.9	20138
864.032	20050
864.164	20202
864.296	20320
864.428	20362
864.559	20278
864.691	20271
864.823	20256
864.954	20221
865.086	20199
865.217	20206
865.349	20138
865.48	20138
865.612	20278
865.743	20263
865.875	20256
866.006	20225
866.137	20168
866.269	20157
866.4	20126
866.531	20149
866.662	20035
866.793	20058
866.924	20050
867.055	20008
867.186	19974
867.317	20005
867.448	20062
867.579	20107
867.71	19997
867.841	19928
867.972	20161
868.103	20115
868.233	20046
868.364	20180
868.495	20039
868.625	20347
868.756	20526
868.886	20218
869.017	20473
869.147	20412
869.278	20412
869.408	20400
869.539	20381
869.669	20473
869.799	20362
869.929	20571
870.06	20377
870.19	20682
870.32	20739
870.45	20648
870.58	20788
870.71	20925
870.84	20720
870.97	20712
871.1	20746
871.23	21020
871.36	21013
871.489	20830
871.619	20975
871.749	20918
871.879	21017
872.008	21028
872.138	20963
872.267	20849
872.397	20857
872.526	20735
872.656	20735
872.785	20842
872.915	20895
873.044	20952
873.173	20990
873.303	21009
873.432	21062
873.561	21013
873.69	20971
873.819	21024
873.948	21096
874.077	20994
874.206	20971
874.335	21032
874.464	21013
874.593	21161
874.722	21112
874.851	21298
874.979	21249
875.108	21222
875.237	21184
875.365	21081
875.494	21096
875.623	21252
875.751	21070
875.88	21245
876.008	21359
876.136	21473
876.265	21595
876.393	21717
876.521	21644
876.65	21568
876.778	21663
876.906	21625
877.034	21488
877.162	21477
877.29	21485
877.418	21568
877.546	21519
877.674	21530
877.802	21614
877.93	21644
878.058	21644
878.185	21443
878.313	21416
878.441	21553
878.568	21424
878.696	21561
878.824	21557
878.951	21694
879.079	21759
879.206	21812
879.333	21709
879.461	21572
879.588	21774
879.715	21679
879.842	21736
879.97	21462
880.097	21424
880.224	21367
880.351	21454
880.478	21439
880.605	21336
880.732	21443
880.859	21625
880.986	21447
881.112	21443
881.239	21310
881.366	21081
881.493	20963
881.619	20994
881.746	21062
881.872	20979
881.999	21032
882.125	20914
882.252	20941
882.378	20823
882.505	21085
882.631	20788
882.757	20800
882.883	20758
883.01	20720
883.136	20644
883.262	20480
883.388	20522
883.514	20568
883.64	20697
883.766	20560
883.892	20469
884.018	20560
884.143	20587
884.269	20800
884.395	20457
884.52	20313
884.646	20313
884.772	20313
884.897	20240
885.023	20351
885.148	20473
885.274	20427
885.399	20492
885.524	20339
885.65	20313
885.775	20484
885.9	20343
886.025	20358
886.15	20355
886.275	20317
886.4	20240
886.525	20225
886.65	20271
886.775	20225
886.9	20476
887.025	20587
887.149	20271
887.274	20103
887.399	20122
887.523	20092
887.648	20027
887.773	20005
887.897	20164
888.021	20062
888.146	19963
888.27	20164
888.395	20195
888.519	20149
888.643	20115
888.767	20191
888.891	20107
889.015	19917
889.139	19959
889.263	19845
889.387	20073
889.511	20206
889.635	20008
889.759	19909
889.883	19925
890.006	19925
890.13	19871
890.254	19780
890.377	19833
890.501	19601
890.624	19605
890.748	19704
890.871	19533
890.995	19453
891.118	19358
891.241	19499
891.364	19468
891.488	19567
891.611	19453
891.734	19464
891.857	19548
891.98	19430
892.103	19567
892.226	19552
892.349	19472
892.471	19247
892.594	19415
892.717	19476
892.839	19373
892.962	19453
893.085	19518
893.207	19411
893.33	19251
893.452	19221
893.575	19422
893.697	19449
893.819	19643
893.941	19567
894.064	19472
894.186	19251
894.308	19247
894.43	19533
894.552	19578
894.674	19354
894.796	19285
894.918	19460
895.04	19369
895.161	19403
895.283	19354
895.405	19339
895.526	19422
895.648	19289
895.769	19491
895.891	19384
896.012	19472
896.134	19449
896.255	19468
896.376	19392
896.498	19407
896.619	19514
896.74	19445
896.861	19491
896.982	19666
897.103	19860
897.224	19632
897.345	19704
897.466	19533
897.587	19613
897.708	19780
897.828	19632
897.949	19571
898.07	19559
898.19	19468
898.311	19799
898.431	19582
898.552	19647
898.672	19662
898.792	19731
898.913	19647
899.033	19449
899.153	19499
899.273	19304
899.393	19354
899.513	19434
899.633	19377
899.753	19324
899.873	19316
899.993	19396
900.113	19320
900.232	19350
900.352	19320
900.472	19266
900.591	19194
900.711	19221
900.83	19042
900.95	19274
901.069	19236
901.189	19156
901.308	18840
901.427	18665
901.546	18814
901.665	18753
901.784	18825
901.904	18688
902.023	18433
902.141	18376
902.26	18376
902.379	18353
902.498	18254
902.617	18144
902.735	18388
902.854	18239
902.973	18186
903.091	17988
903.21	17908
903.328	17946
903.446	17885
903.565	17775
903.683	17710
903.801	17623
903.919	17684
904.038	17676
904.156	17608
904.274	17520
904.392	17611
904.51	17581
904.627	17535
904.745	17562
904.863	17539
904.981	17330
905.098	17197
905.216	17258
905.334	17292
905.451	17250
905.569	17227
905.686	17280
905.803	17299
905.921	16987
906.038	17132
906.155	17086
906.272	16896
906.389	16938
906.506	16767
906.623	16847
906.74	16694
906.857	16672
906.974	16805
907.091	16748
907.208	16972
907.324	16873
907.441	16618
907.557	16497
907.674	16554
907.79	16363
907.907	16474
908.023	16474
908.139	16504
908.256	16367
908.372	16436
908.488	16424
908.604	16249
908.72	16200
908.836	16272
908.952	16120
909.068	16284
909.184	16352
909.3	16257
909.415	16173
909.531	16226
909.647	15918
909.762	16078
909.878	15888
909.993	16006
910.108	16006
910.224	15903
910.339	15831
910.454	15819
910.57	15770
910.685	15652
910.8	15915
910.915	15892
911.03	15675
911.145	15595
911.259	15587
911.374	15595
911.489	15519
911.604	15351
911.718	15268
911.833	15374
911.947	15157
912.062	15150
912.176	15317
912.291	15176
912.405	15222
912.519	15458
912.633	15363
912.748	15401
912.862	15294
912.976	15077
913.09	14887
913.204	15142
913.318	15070
913.431	15203
913.545	15272
913.659	15218
913.772	15150
913.886	14956
914	14956
914.113	15047
914.226	14998
914.34	15032
914.453	14880
914.566	15009
914.68	14800
914.793	14819
914.906	14621
915.019	14575
915.132	14533
915.245	14495
915.358	14640
915.47	14625
915.583	14556
915.696	14602
915.809	14556
915.921	14636
916.034	14431
916.146	14366
916.259	14358
916.371	14530
916.483	14495
916.595	14336
916.708	14522
916.82	14370
916.932	14313
917.044	14431
917.156	14347
917.268	14195
917.38	14282
917.491	14157
917.603	14142
917.715	14244
917.826	14381
917.938	14172
918.049	14134
918.161	14081
918.272	14298
918.384	14271
918.495	14206
918.606	14058
918.717	13906
918.828	14024
918.939	13978
919.05	13917
919.161	14027
919.272	13803
919.383	13902
919.494	14062
919.604	14210
919.715	14031
919.826	13921
919.936	13947
920.047	14039
920.157	13955
920.267	14130
920.378	13982
920.488	13997
920.598	14168
920.708	14214
920.818	14126
920.928	14050
921.038	14256
921.148	14164
921.258	13959
921.368	13772
921.477	13746
921.587	13674
921.697	13578
921.806	13746
921.916	13563
922.025	13297
922.134	13324
922.244	13316
922.353	13400
922.462	13263
922.571	13156
922.68	13107
922.789	13012
922.898	13076
923.007	12989
923.116	13031
923.224	12947
923.333	12867
923.442	12856
923.55	12856
923.659	12867
923.767	12882
923.876	12825
923.984	12814
924.092	12631
924.201	12753
924.309	12760
924.417	12779
924.525	12715
924.633	12753
924.741	13445
924.849	12517
924.956	12631
925.064	12585
925.172	12369
925.279	12494
925.387	12517
925.494	12528
925.602	12544
925.709	12551
925.816	12426
925.924	12460
926.031	12490
926.138	12410
926.245	12483
926.352	12346
926.459	12551
926.566	12555
926.673	12319
926.779	12178
926.886	12281
926.993	12114
927.099	12064
927.206	11988
927.312	12068
927.419	12072
927.525	12011
927.631	12102
927.737	11965
927.843	11863
927.95	11809
928.056	11901
928.162	11866
928.267	11961
928.373	12498
928.479	12053
928.585	11699
928.69	11866
928.796	11863
928.901	11722
929.007	11684
929.112	11798
929.218	11748
929.323	11688
929.428	11657
929.533	11688
929.638	11493
929.743	11554
929.848	11524
929.953	11657
930.058	11554
930.163	11284
930.267	11311
930.372	11490
930.477	11307
930.581	11524
930.685	11391
930.79	11223
930.894	11311
930.998	11185
931.103	11307
931.207	11010
931.311	10911
931.415	10763
931.519	10558
931.623	10622
