Data from test_V78500241_672.txt Node
Date: Fri Mar 25 15:14:32 CST 2022
User: usil
Spectrometer: V785-0024
Trigger mode: 0
Integration Time (sec): 4.000000E-1
Scans to average: 1
Nonlinearity correction enabled: false
Boxcar width: 0
Storing dark spectrum: false
XAxis mode: Wavelengths
Number of Pixels in Spectrum: 1024
>>>>>Begin Spectral Data<<<<<
801.071	27987
801.214	27941
801.356	27625
801.499	27652
801.641	27496
801.783	27713
801.926	27473
802.068	27637
802.211	27473
802.353	27408
802.496	27245
802.638	27249
802.78	27268
802.923	27207
803.065	27302
803.208	27241
803.35	27233
803.492	27298
803.635	27447
803.777	27302
803.919	27363
804.061	27526
804.204	27526
804.346	27340
804.488	27245
804.63	27329
804.773	27157
804.915	27393
805.057	27519
805.199	27435
805.341	27564
805.483	27595
805.626	27496
805.768	27443
805.91	27469
806.052	27458
806.194	27595
806.336	27755
806.478	27591
806.62	27530
806.762	27667
806.904	27701
807.046	28105
807.188	27865
807.33	27903
807.472	27937
807.614	27846
807.756	27918
807.898	27903
808.04	27800
808.182	27728
808.324	27778
808.465	28086
808.607	27918
808.749	28109
808.891	28246
809.033	28265
809.174	28204
809.316	28230
809.458	28166
809.6	28261
809.741	28318
809.883	28348
810.025	28413
810.166	28626
810.308	28421
810.45	28474
810.591	28314
810.733	28177
810.875	28238
811.016	28120
811.158	28078
811.299	28325
811.441	28287
811.582	28421
811.724	28162
811.865	28265
812.007	28219
812.148	28242
812.29	28276
812.431	28352
812.573	28596
812.714	28698
812.855	28790
812.997	28740
813.138	29003
813.279	28873
813.421	28824
813.562	28869
813.703	28740
813.845	28634
813.986	28192
814.127	27918
814.268	27960
814.41	27945
814.551	27884
814.692	27975
814.833	27846
814.974	27846
815.115	27861
815.256	27800
815.397	27774
815.539	27823
815.68	27705
815.821	27652
815.962	27667
816.103	27709
816.244	27614
816.385	27492
816.526	27416
816.666	27291
816.807	27154
816.948	27291
817.089	27272
817.23	27226
817.371	27332
817.512	27154
817.653	27218
817.793	27138
817.934	27192
818.075	27226
818.216	27283
818.356	27214
818.497	27093
818.638	27051
818.778	26921
818.919	27157
819.06	26986
819.2	27146
819.341	27241
819.481	27096
819.622	27340
819.762	27587
819.903	27488
820.043	27317
820.184	27256
820.324	27249
820.465	27462
820.605	27382
820.746	27340
820.886	27226
821.026	27412
821.167	27237
821.307	27336
821.447	27252
821.588	27142
821.728	26914
821.868	26792
822.008	26708
822.149	26537
822.289	26663
822.429	26381
822.569	26442
822.709	26362
822.849	26138
822.99	26100
823.13	26237
823.27	26195
823.41	26001
823.55	25902
823.69	26065
823.83	26008
823.97	25928
824.11	25845
824.25	25765
824.389	25906
824.529	25925
824.669	25879
824.809	25902
824.949	25898
825.089	25947
825.228	25856
825.368	25727
825.508	25628
825.648	25677
825.787	25791
825.927	25818
826.067	25830
826.206	25693
826.346	25799
826.485	25700
826.625	25719
826.765	25925
826.904	25670
827.044	25594
827.183	25510
827.323	25438
827.462	25578
827.601	25453
827.741	25419
827.88	25491
828.02	25350
828.159	25381
828.298	25438
828.437	25415
828.577	25301
828.716	25559
828.855	25206
828.994	25137
829.134	25171
829.273	25240
829.412	25103
829.551	25031
829.69	25065
829.829	25213
829.968	25145
830.107	25152
830.246	25114
830.385	25118
830.524	25038
830.663	24973
830.802	24966
830.941	24760
831.08	24745
831.219	24810
831.357	24833
831.496	24981
831.635	24791
831.774	24677
831.913	24707
832.051	24464
832.19	24486
832.329	24582
832.467	24418
832.606	24460
832.744	24235
832.883	24407
833.022	24365
833.16	24479
833.299	24384
833.437	24551
833.576	24536
833.714	24414
833.852	24528
833.991	24498
834.129	24616
834.267	24540
834.406	24433
834.544	24597
834.682	24551
834.821	24429
834.959	24627
835.097	24388
835.235	24517
835.373	24433
835.511	24464
835.65	24216
835.788	24289
835.926	24155
836.064	24041
836.202	24194
836.34	24300
836.478	24414
836.615	24281
836.753	24292
836.891	24452
837.029	24311
837.167	24300
837.305	24289
837.443	24155
837.58	24205
837.718	24209
837.856	24095
837.993	24076
838.131	23961
838.269	23988
838.406	24114
838.544	23931
838.681	23764
838.819	23794
838.956	23562
839.094	23543
839.231	23764
839.369	23855
839.506	23996
839.643	23802
839.781	23657
839.918	23531
840.055	23528
840.193	23695
840.33	23558
840.467	23646
840.604	23646
840.742	23809
840.879	23284
841.016	23509
841.153	23448
841.29	23676
841.427	23493
841.564	23459
841.701	23547
841.838	23398
841.975	23334
842.112	23391
842.249	23299
842.385	23216
842.522	23505
842.659	23277
842.796	23178
842.933	23337
843.069	23296
843.206	23223
843.343	23436
843.479	23334
843.616	23364
843.752	23044
843.889	23083
844.025	23299
844.162	23181
844.298	23170
844.435	22972
844.571	23064
844.708	23079
844.844	23181
844.98	23239
845.117	23128
845.253	23037
845.389	22946
845.525	23025
845.661	22866
845.798	22831
845.934	22957
846.07	22809
846.206	22854
846.342	22847
846.478	22824
846.614	22698
846.75	22611
846.886	22538
847.022	22561
847.158	22618
847.294	22599
847.429	22535
847.565	22592
847.701	22721
847.837	22318
847.972	22211
848.108	22344
848.244	22287
848.379	22135
848.515	22246
848.65	22090
848.786	22249
848.921	22215
849.057	22246
849.192	22219
849.328	22249
849.463	22158
849.598	22040
849.734	22048
849.869	21968
850.004	21922
850.14	21975
850.275	21884
850.41	21766
850.545	21842
850.68	21785
850.815	21926
850.95	21918
851.085	22124
851.22	21972
851.355	21899
851.49	21934
851.625	21854
851.76	21751
851.895	21838
852.03	21682
852.165	21781
852.299	21911
852.434	21964
852.569	21915
852.703	21865
852.838	21846
852.973	21991
853.107	21975
853.242	21861
853.376	21800
853.511	21682
853.645	21701
853.78	21724
853.914	21682
854.048	21698
854.183	21629
854.317	21774
854.451	21854
854.585	21709
854.72	21633
854.854	21739
854.988	21663
855.122	21728
855.256	21534
855.39	21629
855.524	21766
855.658	21732
855.792	21656
855.926	21774
856.06	21736
856.194	21808
856.327	21732
856.461	21656
856.595	21679
856.729	21717
856.862	21835
856.996	21717
857.13	21713
857.263	21895
857.397	21800
857.53	21717
857.664	21800
857.797	21766
857.931	21709
858.064	21682
858.197	21873
858.331	21762
858.464	21728
858.597	21610
858.731	21713
858.864	21755
858.997	21652
859.13	21709
859.263	21652
859.396	21732
859.529	21675
859.662	21808
859.795	21720
859.928	21625
860.061	21876
860.194	21842
860.327	21778
860.46	21766
860.592	21827
860.725	21911
860.858	21846
860.99	21576
861.123	21625
861.256	21663
861.388	21732
861.521	22394
861.653	21690
861.786	21523
861.918	21648
862.05	21458
862.183	21637
862.315	21606
862.447	21694
862.58	21660
862.712	21416
862.844	21416
862.976	21496
863.108	21386
863.24	21865
863.372	21279
863.504	21492
863.636	21389
863.768	21439
863.9	21439
864.032	21443
864.164	21424
864.296	21355
864.428	21462
864.559	21473
864.691	21405
864.823	21435
864.954	21416
865.086	21382
865.217	21306
865.349	21298
865.48	21298
865.612	21374
865.743	21412
865.875	21237
866.006	21237
866.137	21340
866.269	21252
866.4	21374
866.531	21108
866.662	21173
866.793	21233
866.924	21336
867.055	21222
867.186	21317
867.317	21222
867.448	21218
867.579	21233
867.71	21161
867.841	21135
867.972	21214
868.103	21211
868.233	21233
868.364	21298
868.495	21344
868.625	21473
868.756	21595
868.886	21325
869.017	21294
869.147	21557
869.278	21606
869.408	21435
869.539	21504
869.669	21660
869.799	21568
869.929	21530
870.06	21564
870.19	21778
870.32	21762
870.45	21793
870.58	21899
870.71	21964
870.84	21975
870.97	21876
871.1	21915
871.23	22078
871.36	22002
871.489	22006
871.619	22078
871.749	22116
871.879	22017
872.008	22078
872.138	22021
872.267	21956
872.397	21873
872.526	21964
872.656	21964
872.785	21895
872.915	21998
873.044	22173
873.173	22032
873.303	22105
873.432	22200
873.561	22070
873.69	22139
873.819	22025
873.948	22147
874.077	22128
874.206	21983
874.335	22055
874.464	22303
874.593	22253
874.722	22325
874.851	22287
874.979	22356
875.108	22409
875.237	22322
875.365	22158
875.494	22333
875.623	22409
875.751	22242
875.88	22344
876.008	22352
876.136	22584
876.265	22702
876.393	22816
876.521	22687
876.65	22828
876.778	22637
876.906	22675
877.034	22607
877.162	22653
877.29	22557
877.418	22630
877.546	22596
877.674	22653
877.802	22664
877.93	22733
878.058	22603
878.185	22531
878.313	22485
878.441	22527
878.568	22447
878.696	22706
878.824	22660
878.951	22683
879.079	22831
879.206	22934
879.333	22850
879.461	22653
879.588	22755
879.715	22706
879.842	22835
879.97	22675
880.097	22462
880.224	22481
880.351	22447
880.478	22615
880.605	22253
880.732	22535
880.859	22599
880.986	22516
881.112	22481
881.239	22249
881.366	22314
881.493	22192
881.619	21994
881.746	22010
881.872	22013
881.999	21934
882.125	21911
882.252	21979
882.378	22135
882.505	22147
882.631	21869
882.757	21800
882.883	21762
883.01	21694
883.136	21717
883.262	21568
883.388	21603
883.514	21728
883.64	21812
883.766	21660
883.892	21591
884.018	21561
884.143	21720
884.269	21629
884.395	21359
884.52	21374
884.646	21382
884.772	21272
884.897	21230
885.023	21462
885.148	21466
885.274	21424
885.399	21370
885.524	21275
885.65	21386
885.775	21355
885.9	21382
886.025	21504
886.15	21329
886.275	21389
886.4	21272
886.525	21340
886.65	21325
886.775	21192
886.9	21393
887.025	21469
887.149	21477
887.274	21173
887.399	21055
887.523	21150
887.648	21066
887.773	20971
887.897	21199
888.021	21256
888.146	21108
888.27	21260
888.395	21283
888.519	21195
888.643	21203
888.767	21184
888.891	21081
889.015	20948
889.139	20918
889.263	20960
889.387	21195
889.511	21184
889.635	21066
889.759	20895
889.883	20883
890.006	20899
890.13	20933
890.254	20830
890.377	20826
890.501	20807
890.624	20765
890.748	20819
890.871	20602
890.995	20522
891.118	20423
891.241	20400
891.364	20438
891.488	20716
891.611	20552
891.734	20438
891.857	20511
891.98	20488
892.103	20484
892.226	20454
892.349	20454
892.471	20271
892.594	20412
892.717	20480
892.839	20503
892.962	20450
893.085	20434
893.207	20366
893.33	20282
893.452	20282
893.575	20336
893.697	20286
893.819	20400
893.941	20549
894.064	20568
894.186	20336
894.308	20301
894.43	20423
894.552	20545
894.674	20362
894.796	20267
894.918	20347
895.04	20503
895.161	20396
895.283	20393
895.405	20278
895.526	20351
895.648	20389
895.769	20419
895.891	20503
896.012	20446
896.134	20438
896.255	20377
896.376	20408
896.498	20400
896.619	20473
896.74	20450
896.861	20385
896.982	20754
897.103	20804
897.224	20606
897.345	20644
897.466	20514
897.587	20545
897.708	20754
897.828	20670
897.949	20568
898.07	20347
898.19	20469
898.311	20663
898.431	20454
898.552	20541
898.672	20659
898.792	20609
898.913	20560
899.033	20465
899.153	20419
899.273	20286
899.393	20374
899.513	20404
899.633	20233
899.753	20362
899.873	20237
899.993	20374
900.113	20252
900.232	20324
900.352	20157
900.472	20214
900.591	20111
900.711	20142
900.83	20046
900.95	20206
901.069	20176
901.189	20088
901.308	19788
901.427	19616
901.546	19635
901.665	19738
901.784	19662
901.904	19510
902.023	19480
902.141	19152
902.26	19236
902.379	19282
902.498	19114
902.617	19053
902.735	19190
902.854	19156
902.973	19164
903.091	18962
903.21	18825
903.328	18886
903.446	18757
903.565	18711
903.683	18616
903.801	18574
903.919	18730
904.038	18582
904.156	18410
904.274	18502
904.392	18350
904.51	18369
904.627	18464
904.745	18483
904.863	18486
904.981	18148
905.098	18121
905.216	18102
905.334	18133
905.451	18152
905.569	18102
905.686	18213
905.803	18095
905.921	18049
906.038	18045
906.155	17878
906.272	17798
906.389	17828
906.506	17615
906.623	17710
906.74	17680
906.857	17528
906.974	17455
907.091	17718
907.208	17813
907.324	17551
907.441	17543
907.557	17421
907.674	17543
907.79	17315
907.907	17379
908.023	17421
908.139	17448
908.256	17200
908.372	17265
908.488	17318
908.604	17010
908.72	17086
908.836	17159
908.952	17083
909.068	17105
909.184	17311
909.3	17132
909.415	17220
909.531	17090
909.647	16790
909.762	16698
909.878	16778
909.993	16736
910.108	16733
910.224	16683
910.339	16698
910.454	16683
910.57	16550
910.685	16535
910.8	16713
910.915	16740
911.03	16569
911.145	16428
911.259	16375
911.374	16390
911.489	16306
911.604	16322
911.718	16188
911.833	16215
911.947	15960
912.062	15915
912.176	16086
912.291	16093
912.405	15983
912.519	16333
912.633	16333
912.748	16158
912.862	16029
912.976	15907
913.09	15842
913.204	15781
913.318	15994
913.431	16063
913.545	15934
913.659	16044
913.772	15808
913.886	15778
914	15732
914.113	15747
914.226	15816
914.34	15865
914.453	15686
914.566	15755
914.68	15663
914.793	15519
914.906	15492
915.019	15306
915.132	15310
915.245	15359
915.358	15317
915.47	15519
915.583	15321
915.696	15363
915.809	15500
915.921	15424
916.034	15264
916.146	15260
916.259	15218
916.371	15431
916.483	15344
916.595	15169
916.708	15165
916.82	15157
916.932	15222
917.044	15104
917.156	15135
917.268	15013
917.38	15013
917.491	14963
917.603	14986
917.715	15093
917.826	15104
917.938	14979
918.049	14826
918.161	15005
918.272	15154
918.384	15039
918.495	14838
918.606	14765
918.717	14640
918.828	14864
918.939	14899
919.05	14644
919.161	14785
919.272	14507
919.383	14598
919.494	14781
919.604	14868
919.715	14762
919.826	14594
919.936	14651
920.047	14781
920.157	14758
920.267	14937
920.378	14617
920.488	14754
920.598	14804
920.708	14941
920.818	14823
920.928	14914
921.038	14868
921.148	14979
921.258	14781
921.368	14530
921.477	14526
921.587	14423
921.697	14431
921.806	14454
921.916	14313
922.025	14145
922.134	14088
922.244	14035
922.353	14187
922.462	13967
922.571	13864
922.68	13772
922.789	13742
922.898	13791
923.007	13666
923.116	13803
923.224	13715
923.333	13734
923.442	13533
923.55	13525
923.659	13559
923.767	13567
923.876	13514
923.984	13537
924.092	13491
924.201	13464
924.309	13487
924.417	13407
924.525	13354
924.633	13384
924.741	14218
924.849	13266
924.956	13365
925.064	13156
925.172	13091
925.279	13031
925.387	13088
925.494	13179
925.602	13247
925.709	13198
925.816	13088
925.924	13000
926.031	13232
926.138	13099
926.245	13137
926.352	12993
926.459	13076
926.566	13160
926.673	12954
926.779	12932
926.886	12913
926.993	12779
927.099	12711
927.206	12654
927.312	12662
927.419	12627
927.525	12559
927.631	12650
927.737	12585
927.843	12585
927.95	12399
928.056	12502
928.162	12566
928.267	12585
928.373	13152
928.479	12528
928.585	12407
928.69	12384
928.796	12471
928.901	12319
929.007	12289
929.112	12342
929.218	12361
929.323	12247
929.428	12251
929.533	12346
929.638	12163
929.743	12209
929.848	12266
929.953	12220
930.058	12060
930.163	11935
930.267	12022
930.372	12019
930.477	11840
930.581	12091
930.685	12026
930.79	11714
930.894	11745
930.998	11752
931.103	11939
931.207	11524
931.311	11501
931.415	11364
931.519	11223
931.623	11216
