Data from test_V78500241_2011.txt Node
Date: Fri Mar 25 15:23:51 CST 2022
User: usil
Spectrometer: V785-0024
Trigger mode: 0
Integration Time (sec): 4.000000E-1
Scans to average: 1
Nonlinearity correction enabled: false
Boxcar width: 0
Storing dark spectrum: false
XAxis mode: Wavelengths
Number of Pixels in Spectrum: 1024
>>>>>Begin Spectral Data<<<<<
801.071	27774
801.214	27778
801.356	27454
801.499	27336
801.641	27435
801.783	27256
801.926	27359
802.068	27443
802.211	27412
802.353	27081
802.496	27062
802.638	27028
802.78	27058
802.923	26891
803.065	26811
803.208	26807
803.35	27138
803.492	27070
803.635	27233
803.777	27161
803.919	27138
804.061	27408
804.204	27199
804.346	27089
804.488	27146
804.63	27184
804.773	27066
804.915	27176
805.057	27291
805.199	27081
805.341	27173
805.483	27272
805.626	27233
805.768	26998
805.91	27302
806.052	27351
806.194	27306
806.336	27424
806.478	27294
806.62	27184
806.762	27469
806.904	27667
807.046	27831
807.188	27755
807.33	27717
807.472	27816
807.614	27724
807.756	27629
807.898	27431
808.04	27488
808.182	27625
808.324	27553
808.465	27606
808.607	27663
808.749	27991
808.891	27972
809.033	27998
809.174	27918
809.316	28158
809.458	27819
809.6	27975
809.741	28036
809.883	28059
810.025	28154
810.166	28303
810.308	28135
810.45	28143
810.591	28063
810.733	27945
810.875	27698
811.016	27797
811.158	27705
811.299	27972
811.441	28051
811.582	28090
811.724	27956
811.865	27960
812.007	27945
812.148	28002
812.29	27899
812.431	28135
812.573	28291
812.714	28344
812.855	28337
812.997	28546
813.138	28649
813.279	28588
813.421	28352
813.562	28367
813.703	28196
813.845	28211
813.986	27831
814.127	27648
814.268	27545
814.41	27500
814.551	27519
814.692	27599
814.833	27481
814.974	27523
815.115	27633
815.256	27370
815.397	27599
815.539	27542
815.68	27443
815.821	27317
815.962	27325
816.103	27431
816.244	27291
816.385	27104
816.526	27127
816.666	26940
816.807	26788
816.948	26952
817.089	26948
817.23	26933
817.371	26788
817.512	26727
817.653	26804
817.793	26807
817.934	26895
818.075	26940
818.216	26849
818.356	26800
818.497	26754
818.638	26621
818.778	26686
818.919	26518
819.06	26579
819.2	26834
819.341	26853
819.481	26838
819.622	26883
819.762	27195
819.903	27005
820.043	27142
820.184	27051
820.324	26891
820.465	27028
820.605	26937
820.746	27013
820.886	26826
821.026	26986
821.167	26899
821.307	26956
821.447	26918
821.588	26632
821.728	26625
821.868	26579
822.008	26495
822.149	26267
822.289	26324
822.429	26142
822.569	25928
822.709	26065
822.849	25803
822.99	25788
823.13	25734
823.27	25814
823.41	25738
823.55	25575
823.69	25685
823.83	25666
823.97	25601
824.11	25373
824.25	25491
824.389	25483
824.529	25620
824.669	25434
824.809	25693
824.949	25601
825.089	25685
825.228	25582
825.368	25365
825.508	25453
825.648	25426
825.787	25365
825.927	25514
826.067	25396
826.206	25316
826.346	25400
826.485	25430
826.625	25400
826.765	25575
826.904	25297
827.044	25187
827.183	25190
827.323	25160
827.462	25289
827.601	25145
827.741	25099
827.88	25168
828.02	24973
828.159	25034
828.298	25179
828.437	25145
828.577	24878
828.716	25118
828.855	25000
828.994	24833
829.134	24757
829.273	24886
829.412	24646
829.551	24669
829.69	24825
829.829	24886
829.968	24939
830.107	24821
830.246	24757
830.385	24745
830.524	24620
830.663	24681
830.802	24559
830.941	24300
831.08	24365
831.219	24540
831.357	24441
831.496	24597
831.635	24410
831.774	24426
831.913	24285
832.051	24125
832.19	24190
832.329	24121
832.467	24060
832.606	24178
832.744	24049
832.883	24011
833.022	24007
833.16	24114
833.299	24125
833.437	24155
833.576	24087
833.714	24114
833.852	24205
833.991	24167
834.129	24285
834.267	24140
834.406	24254
834.544	24159
834.682	24060
834.821	24159
834.959	24243
835.097	24125
835.235	24182
835.373	24117
835.511	24057
835.65	23977
835.788	24057
835.926	23969
836.064	23821
836.202	23813
836.34	23958
836.478	24091
836.615	24007
836.753	24068
836.891	24091
837.029	24102
837.167	23958
837.305	23961
837.443	23771
837.58	23832
837.718	23927
837.856	23855
837.993	23783
838.131	23722
838.269	23665
838.406	23752
838.544	23764
838.681	23490
838.819	23474
838.956	23364
839.094	23185
839.231	23376
839.369	23383
839.506	23638
839.643	23615
839.781	23402
839.918	23216
840.055	23166
840.193	23322
840.33	23200
840.467	23269
840.604	23288
840.742	23452
840.879	23041
841.016	23231
841.153	23037
841.29	23307
841.427	23102
841.564	23242
841.701	23147
841.838	23239
841.975	23010
842.112	22968
842.249	22824
842.385	22999
842.522	23162
842.659	22961
842.796	22987
842.933	22911
843.069	22847
843.206	22839
843.343	23044
843.479	22908
843.616	22938
843.752	22801
843.889	22812
844.025	22839
844.162	22736
844.298	22904
844.435	22824
844.571	22607
844.708	22790
844.844	22850
844.98	22892
845.117	22786
845.253	22790
845.389	22512
845.525	22649
845.661	22588
845.798	22478
845.934	22417
846.07	22314
846.206	22512
846.342	22580
846.478	22436
846.614	22215
846.75	22169
846.886	22287
847.022	22200
847.158	22230
847.294	22234
847.429	22276
847.565	22215
847.701	22474
847.837	22059
847.972	21915
848.108	21983
848.244	22032
848.379	21888
848.515	21800
848.65	21762
848.786	21785
848.921	21736
849.057	21831
849.192	21793
849.328	21876
849.463	21823
849.598	21652
849.734	21667
849.869	21606
850.004	21515
850.14	21564
850.275	21564
850.41	21523
850.545	21485
850.68	21424
850.815	21739
850.95	21492
851.085	21603
851.22	21774
851.355	21534
851.49	21507
851.625	21583
851.76	21526
851.895	21294
852.03	21561
852.165	21534
852.299	21591
852.434	21576
852.569	21576
852.703	21580
852.838	21469
852.973	21774
853.107	21739
853.242	21466
853.376	21462
853.511	21329
853.645	21313
853.78	21348
853.914	21298
854.048	21386
854.183	21268
854.317	21268
854.451	21485
854.585	21233
854.72	21412
854.854	21477
854.988	21332
855.122	21408
855.256	21264
855.39	21336
855.524	21481
855.658	21420
855.792	21230
855.926	21477
856.06	21439
856.194	21439
856.327	21389
856.461	21203
856.595	21363
856.729	21336
856.862	21447
856.996	21431
857.13	21420
857.263	21469
857.397	21424
857.53	21317
857.664	21374
857.797	21477
857.931	21408
858.064	21405
858.197	21485
858.331	21310
858.464	21287
858.597	21173
858.731	21256
858.864	21336
858.997	21310
859.13	21363
859.263	21336
859.396	21450
859.529	21420
859.662	21268
859.795	21336
859.928	21359
860.061	21435
860.194	21523
860.327	21348
860.46	21416
860.592	21534
860.725	21557
860.858	21435
860.99	21321
861.123	21237
861.256	21393
861.388	21370
861.521	22051
861.653	21173
861.786	21222
861.918	21199
862.05	21268
862.183	21241
862.315	21260
862.447	21298
862.58	21218
862.712	21249
862.844	20986
862.976	21180
863.108	21100
863.24	21595
863.372	21009
863.504	21051
863.636	21028
863.768	21135
863.9	21127
864.032	20975
864.164	20975
864.296	21154
864.428	21085
864.559	21074
864.691	21157
864.823	21096
864.954	21028
865.086	21024
865.217	20895
865.349	20914
865.48	21047
865.612	20960
865.743	21123
865.875	20944
866.006	20925
866.137	20933
866.269	20994
866.4	20921
866.531	20849
866.662	20815
866.793	20853
866.924	20933
867.055	20944
867.186	21017
867.317	20853
867.448	20769
867.579	20937
867.71	20861
867.841	20838
867.972	20960
868.103	20986
868.233	20952
868.364	21001
868.495	21005
868.625	21081
868.756	21306
868.886	21100
869.017	21131
869.147	21207
869.278	21199
869.408	21085
869.539	21100
869.669	21252
869.799	21142
869.929	21348
870.06	21180
870.19	21313
870.32	21511
870.45	21428
870.58	21549
870.71	21694
870.84	21576
870.97	21599
871.1	21587
871.23	21709
871.36	21622
871.489	21690
871.619	21629
871.749	21663
871.879	21747
872.008	21842
872.138	21732
872.267	21751
872.397	21679
872.526	21538
872.656	21591
872.785	21599
872.915	21781
873.044	21854
873.173	21865
873.303	21812
873.432	21694
873.561	21739
873.69	21660
873.819	21781
873.948	21808
874.077	21880
874.206	21724
874.335	21762
874.464	21800
874.593	21983
874.722	21842
874.851	21994
874.979	21922
875.108	21998
875.237	21972
875.365	21819
875.494	22006
875.623	22200
875.751	22029
875.88	21960
876.008	22128
876.136	22093
876.265	22459
876.393	22447
876.521	22466
876.65	22440
876.778	22424
876.906	22318
877.034	22314
877.162	22462
877.29	22261
877.418	22322
877.546	22268
877.674	22341
877.802	22299
877.93	22352
878.058	22310
878.185	22234
878.313	22299
878.441	22432
878.568	22284
878.696	22219
878.824	22432
878.951	22443
879.079	22554
879.206	22660
879.333	22443
879.461	22428
879.588	22424
879.715	22523
879.842	22630
879.97	22333
880.097	22207
880.224	21949
880.351	22143
880.478	22131
880.605	22143
880.732	22131
880.859	22318
880.986	22276
881.112	22116
881.239	22017
881.366	21857
881.493	21808
881.619	21759
881.746	21751
881.872	21732
881.999	21660
882.125	21644
882.252	21686
882.378	21694
882.505	21816
882.631	21504
882.757	21412
882.883	21511
883.01	21344
883.136	21336
883.262	21378
883.388	21298
883.514	21458
883.64	21557
883.766	21405
883.892	21154
884.018	21256
884.143	21477
884.269	21401
884.395	21093
884.52	21077
884.646	21093
884.772	21017
884.897	21005
885.023	21157
885.148	21241
885.274	21230
885.399	21024
885.524	21180
885.65	21135
885.775	21020
885.9	20994
886.025	21085
886.15	21218
886.275	21047
886.4	20849
886.525	21039
886.65	20971
886.775	20944
886.9	21138
887.025	21131
887.149	20975
887.274	20902
887.399	20906
887.523	20864
887.648	20804
887.773	20769
887.897	20910
888.021	20853
888.146	20724
888.27	20872
888.395	20887
888.519	20941
888.643	20834
888.767	20864
888.891	20796
889.015	20583
889.139	20663
889.263	20526
889.387	20648
889.511	20849
889.635	20796
889.759	20727
889.883	20651
890.006	20800
890.13	20682
890.254	20503
890.377	20587
890.501	20347
890.624	20294
890.748	20438
890.871	20286
890.995	20263
891.118	20100
891.241	20206
891.364	20122
891.488	20351
891.611	20092
891.734	20218
891.857	20252
891.98	20358
892.103	20267
892.226	20199
892.349	20145
892.471	19925
892.594	20119
892.717	20149
892.839	20092
892.962	20195
893.085	20214
893.207	20111
893.33	19989
893.452	20062
893.575	20225
893.697	20024
893.819	20305
893.941	20218
894.064	20149
894.186	20081
894.308	19967
894.43	20142
894.552	20229
894.674	20199
894.796	20005
894.918	20073
895.04	20058
895.161	20206
895.283	20134
895.405	20039
895.526	20122
895.648	20001
895.769	20168
895.891	20164
896.012	20168
896.134	20024
896.255	20092
896.376	20103
896.498	20126
896.619	20130
896.74	20088
896.861	20298
896.982	20419
897.103	20686
897.224	20442
897.345	20282
897.466	20221
897.587	20286
897.708	20549
897.828	20366
897.949	20256
898.07	20100
898.19	20161
898.311	20374
898.431	20305
898.552	20328
898.672	20381
898.792	20427
898.913	20336
899.033	20191
899.153	20206
899.273	19982
899.393	20024
899.513	20138
899.633	20088
899.753	19940
899.873	20024
899.993	20187
900.113	19986
900.232	20065
900.352	20001
900.472	19928
900.591	19864
900.711	19837
900.83	19738
900.95	19928
901.069	19970
901.189	19772
901.308	19487
901.427	19514
901.546	19525
901.665	19460
901.784	19396
901.904	19297
902.023	19213
902.141	19061
902.26	18932
902.379	19050
902.498	18943
902.617	18920
902.735	19008
902.854	18943
902.973	18848
903.091	18760
903.21	18631
903.328	18658
903.446	18608
903.565	18448
903.683	18357
903.801	18224
903.919	18391
904.038	18399
904.156	18091
904.274	18338
904.392	18167
904.51	18235
904.627	18224
904.745	18178
904.863	18091
904.981	18030
905.098	17851
905.216	17832
905.334	17840
905.451	17866
905.569	17802
905.686	17866
905.803	17828
905.921	17676
906.038	17577
906.155	17680
906.272	17585
906.389	17463
906.506	17440
906.623	17543
906.74	17474
906.857	17246
906.974	17303
907.091	17395
907.208	17493
907.324	17421
907.441	17227
907.557	17189
907.674	17079
907.79	17071
907.907	16923
908.023	17128
908.139	17090
908.256	17117
908.372	16991
908.488	16946
908.604	16847
908.72	16892
908.836	16881
908.952	16850
909.068	16866
909.184	16877
909.3	16835
909.415	16793
909.531	16763
909.647	16508
909.762	16500
909.878	16470
909.993	16542
910.108	16512
910.224	16508
910.339	16421
910.454	16489
910.57	16352
910.685	16238
910.8	16523
910.915	16538
911.03	16200
911.145	16223
911.259	16169
911.374	16162
911.489	15918
911.604	15979
911.718	15812
911.833	15945
911.947	15778
912.062	15690
912.176	15838
912.291	15835
912.405	15838
912.519	16078
912.633	16074
912.748	15823
912.862	15850
912.976	15686
913.09	15625
913.204	15667
913.318	15671
913.431	15804
913.545	15713
913.659	15785
913.772	15701
913.886	15515
914	15473
914.113	15553
914.226	15622
914.34	15603
914.453	15393
914.566	15625
914.68	15363
914.793	15329
914.906	15188
915.019	15108
915.132	15009
915.245	15108
915.358	15093
915.47	15009
915.583	15039
915.696	15089
915.809	15226
915.921	15150
916.034	15077
916.146	15039
916.259	14971
916.371	15127
916.483	15017
916.595	14906
916.708	14868
916.82	14933
916.932	14929
917.044	14963
917.156	14861
917.268	14796
917.38	14804
917.491	14682
917.603	14788
917.715	14781
917.826	14724
917.938	14746
918.049	14629
918.161	14769
918.272	14773
918.384	14887
918.495	14758
918.606	14473
918.717	14438
918.828	14499
918.939	14469
919.05	14385
919.161	14389
919.272	14324
919.383	14221
919.494	14427
919.604	14613
919.715	14560
919.826	14396
919.936	14473
920.047	14556
920.157	14541
920.267	14587
920.378	14522
920.488	14495
920.598	14636
920.708	14792
920.818	14617
920.928	14488
921.038	14773
921.148	14765
921.258	14412
921.368	14187
921.477	14244
921.587	14176
921.697	14005
921.806	14149
921.916	14054
922.025	13856
922.134	13856
922.244	13761
922.353	13936
922.462	13712
922.571	13609
922.68	13559
922.789	13487
922.898	13483
923.007	13468
923.116	13460
923.224	13468
923.333	13449
923.442	13312
923.55	13285
923.659	13308
923.767	13400
923.876	13247
923.984	13441
924.092	13206
924.201	13335
924.309	13285
924.417	13255
924.525	13133
924.633	13118
924.741	13963
924.849	13004
924.956	13057
925.064	12996
925.172	12901
925.279	12859
925.387	12947
925.494	12852
925.602	12966
925.709	12996
925.816	12791
925.924	12817
926.031	12989
926.138	12768
926.245	12840
926.352	12730
926.459	12814
926.566	12943
926.673	12776
926.779	12684
926.886	12563
926.993	12551
927.099	12414
927.206	12517
927.312	12521
927.419	12483
927.525	12319
927.631	12517
927.737	12452
927.843	12353
927.95	12254
928.056	12224
928.162	12273
928.267	12300
928.373	12943
928.479	12350
928.585	12053
928.69	12209
928.796	12228
928.901	12155
929.007	11988
929.112	12064
929.218	12003
929.323	12072
929.428	12019
929.533	12163
929.638	12003
929.743	11942
929.848	12003
929.953	12034
930.058	11882
930.163	11733
930.267	11779
930.372	11843
930.477	11608
930.581	11885
930.685	11752
930.79	11619
930.894	11630
930.998	11532
931.103	11752
931.207	11349
931.311	11284
931.415	11201
931.519	10995
931.623	10896
