Data from test_V78500241_255.txt Node
Date: Fri Mar 25 15:11:38 CST 2022
User: usil
Spectrometer: V785-0024
Trigger mode: 0
Integration Time (sec): 4.000000E-1
Scans to average: 1
Nonlinearity correction enabled: false
Boxcar width: 0
Storing dark spectrum: false
XAxis mode: Wavelengths
Number of Pixels in Spectrum: 1024
>>>>>Begin Spectral Data<<<<<
801.071	28223
801.214	28325
801.356	28109
801.499	27888
801.641	27884
801.783	27854
801.926	27998
802.068	27975
802.211	27724
802.353	27766
802.496	27686
802.638	27534
802.78	27420
802.923	27477
803.065	27401
803.208	27374
803.35	27549
803.492	27534
803.635	27698
803.777	27583
803.919	27724
804.061	27975
804.204	27641
804.346	27599
804.488	27599
804.63	27682
804.773	27481
804.915	27545
805.057	27644
805.199	27648
805.341	27766
805.483	27797
805.626	27656
805.768	27583
805.91	27770
806.052	27797
806.194	27732
806.336	27823
806.478	27686
806.62	27766
806.762	27922
806.904	28120
807.046	28325
807.188	28032
807.33	28120
807.472	28120
807.614	27941
807.756	28082
807.898	27914
808.04	28021
808.182	27838
808.324	28006
808.465	27945
808.607	28135
808.749	28246
808.891	28394
809.033	28542
809.174	28398
809.316	28147
809.458	28284
809.6	28390
809.741	28466
809.883	28421
810.025	28649
810.166	28557
810.308	28660
810.45	28672
810.591	28527
810.733	28322
810.875	28341
811.016	28329
811.158	28211
811.299	28230
811.441	28497
811.582	28493
811.724	28303
811.865	28238
812.007	28226
812.148	28318
812.29	28390
812.431	28512
812.573	28565
812.714	28725
812.855	28687
812.997	28778
813.138	28984
813.279	29025
813.421	28733
813.562	28748
813.703	28649
813.845	28592
813.986	28249
814.127	28051
814.268	27880
814.41	27998
814.551	28013
814.692	28013
814.833	27854
814.974	27899
815.115	27937
815.256	27785
815.397	27755
815.539	27759
815.68	27728
815.821	27698
815.962	27709
816.103	27713
816.244	27644
816.385	27466
816.526	27545
816.666	27310
816.807	27233
816.948	27184
817.089	27378
817.23	27237
817.371	27100
817.512	27207
817.653	27249
817.793	27237
817.934	27055
818.075	27085
818.216	27237
818.356	27119
818.497	27009
818.638	26868
818.778	26880
818.919	26937
819.06	26948
819.2	27005
819.341	27154
819.481	27005
819.622	27222
819.762	27466
819.903	27427
820.043	27302
820.184	27249
820.324	27306
820.465	27260
820.605	27332
820.746	27180
820.886	27009
821.026	27245
821.167	27199
821.307	27108
821.447	27222
821.588	26956
821.728	26910
821.868	26781
822.008	26564
822.149	26461
822.289	26488
822.429	26317
822.569	26240
822.709	26267
822.849	25989
822.99	26100
823.13	26050
823.27	25944
823.41	25928
823.55	25765
823.69	25883
823.83	25993
823.97	25883
824.11	25647
824.25	25601
824.389	25731
824.529	25746
824.669	25712
824.809	25925
824.949	25799
825.089	25731
825.228	25613
825.368	25609
825.508	25658
825.648	25449
825.787	25479
825.927	25666
826.067	25597
826.206	25479
826.346	25651
826.485	25445
826.625	25453
826.765	25537
826.904	25628
827.044	25278
827.183	25259
827.323	25263
827.462	25137
827.601	25293
827.741	25145
827.88	25209
828.02	25057
828.159	25179
828.298	25331
828.437	25247
828.577	25179
828.716	25301
828.855	25065
828.994	24916
829.134	24909
829.273	24970
829.412	24772
829.551	24977
829.69	24973
829.829	25008
829.968	24913
830.107	25000
830.246	24924
830.385	24878
830.524	24665
830.663	24673
830.802	24540
830.941	24483
831.08	24323
831.219	24452
831.357	24612
831.496	24779
831.635	24369
831.774	24475
831.913	24407
832.051	24254
832.19	24266
832.329	24350
832.467	24178
832.606	24125
832.744	24174
832.883	24182
833.022	24182
833.16	24243
833.299	24201
833.437	24194
833.576	24190
833.714	24178
833.852	24194
833.991	24224
834.129	24270
834.267	24399
834.406	24296
834.544	24182
834.682	24144
834.821	24049
834.959	24353
835.097	24114
835.235	24235
835.373	24072
835.511	24114
835.65	24034
835.788	23977
835.926	23912
836.064	23935
836.202	23737
836.34	23977
836.478	24072
836.615	23927
836.753	24057
836.891	24072
837.029	24018
837.167	24034
837.305	23904
837.443	23836
837.58	23874
837.718	23889
837.856	23904
837.993	23729
838.131	23821
838.269	23790
838.406	23665
838.544	23570
838.681	23505
838.819	23570
838.956	23261
839.094	23296
839.231	23303
839.369	23467
839.506	23615
839.643	23436
839.781	23288
839.918	23151
840.055	23227
840.193	23212
840.33	23197
840.467	23166
840.604	23349
840.742	23577
840.879	23086
841.016	23185
841.153	23029
841.29	23250
841.427	23197
841.564	23174
841.701	23170
841.838	23140
841.975	23090
842.112	23121
842.249	23052
842.385	22915
842.522	23121
842.659	22938
842.796	22869
842.933	22965
843.069	22881
843.206	22812
843.343	23003
843.479	22858
843.616	22942
843.752	22596
843.889	22778
844.025	22774
844.162	22748
844.298	22763
844.435	22668
844.571	22656
844.708	22645
844.844	22790
844.98	22790
845.117	22729
845.253	22660
845.389	22611
845.525	22645
845.661	22516
845.798	22337
845.934	22424
846.07	22390
846.206	22519
846.342	22451
846.478	22424
846.614	22272
846.75	22112
846.886	22074
847.022	22299
847.158	22044
847.294	22135
847.429	22120
847.565	22055
847.701	22417
847.837	21861
847.972	21827
848.108	21926
848.244	21915
848.379	21793
848.515	21686
848.65	21698
848.786	21850
848.921	21739
849.057	21819
849.192	21846
849.328	21694
849.463	21583
849.598	21599
849.734	21568
849.869	21603
850.004	21515
850.14	21534
850.275	21405
850.41	21374
850.545	21386
850.68	21351
850.815	21431
850.95	21325
851.085	21625
851.22	21469
851.355	21500
851.49	21325
851.625	21458
851.76	21488
851.895	21310
852.03	21298
852.165	21359
852.299	21439
852.434	21473
852.569	21523
852.703	21344
852.838	21515
852.973	21496
853.107	21458
853.242	21393
853.376	21332
853.511	21123
853.645	21252
853.78	21443
853.914	21317
854.048	21241
854.183	21176
854.317	21325
854.451	21496
854.585	21146
854.72	21180
854.854	21268
854.988	21131
855.122	21237
855.256	21199
855.39	21260
855.524	21203
855.658	21245
855.792	21310
855.926	21249
856.06	21275
856.194	21310
856.327	21203
856.461	21138
856.595	21150
856.729	21226
856.862	21397
856.996	21287
857.13	21264
857.263	21321
857.397	21298
857.53	21161
857.664	21264
857.797	21405
857.931	21180
858.064	21260
858.197	21378
858.331	21192
858.464	21195
858.597	21081
858.731	21195
858.864	21188
858.997	21157
859.13	21100
859.263	21329
859.396	21329
859.529	21169
859.662	21146
859.795	21294
859.928	21287
860.061	21374
860.194	21313
860.327	21252
860.46	21131
860.592	21283
860.725	21329
860.858	21374
860.99	21241
861.123	21104
861.256	21165
861.388	21256
861.521	21892
861.653	21184
861.786	21024
861.918	21047
862.05	21096
862.183	21077
862.315	21298
862.447	21256
862.58	21138
862.712	20880
862.844	20967
862.976	20990
863.108	21062
863.24	21363
863.372	20746
863.504	20967
863.636	20857
863.768	20937
863.9	21009
864.032	20785
864.164	20887
864.296	20891
864.428	20998
864.559	20921
864.691	21028
864.823	20883
864.954	20823
865.086	20868
865.217	20868
865.349	20746
865.48	20811
865.612	20842
865.743	20929
865.875	20769
866.006	20785
866.137	20788
866.269	20765
866.4	20754
866.531	20880
866.662	20727
866.793	20849
866.924	20667
867.055	20727
867.186	20701
867.317	20629
867.448	20689
867.579	20701
867.71	20739
867.841	20609
867.972	20693
868.103	20689
868.233	20830
868.364	20807
868.495	20785
868.625	20994
868.756	21119
868.886	20868
869.017	20941
869.147	21062
869.278	21070
869.408	21051
869.539	20918
869.669	21081
869.799	21058
869.929	21131
870.06	21093
870.19	21378
870.32	21192
870.45	21416
870.58	21302
870.71	21553
870.84	21511
870.97	21443
871.1	21329
871.23	21504
871.36	21576
871.489	21473
871.619	21542
871.749	21568
871.879	21580
872.008	21633
872.138	21606
872.267	21591
872.397	21511
872.526	21340
872.656	21492
872.785	21397
872.915	21576
873.044	21564
873.173	21648
873.303	21618
873.432	21709
873.561	21679
873.69	21622
873.819	21583
873.948	21679
874.077	21648
874.206	21469
874.335	21641
874.464	21679
874.593	21865
874.722	21736
874.851	21823
874.979	21941
875.108	21869
875.237	21797
875.365	21728
875.494	21808
875.623	21842
875.751	21747
875.88	21915
876.008	21857
876.136	22074
876.265	22238
876.393	22356
876.521	22299
876.65	22352
876.778	22188
876.906	22188
877.034	22158
877.162	22207
877.29	22105
877.418	22166
877.546	22124
877.674	22234
877.802	22169
877.93	22177
878.058	22048
878.185	21945
878.313	22287
878.441	22120
878.568	22044
878.696	21991
878.824	22162
878.951	22318
879.079	22386
879.206	22382
879.333	22348
879.461	22230
879.588	22367
879.715	22322
879.842	22500
879.97	22226
880.097	22090
880.224	21987
880.351	22021
880.478	22013
880.605	21793
880.732	21934
880.859	22234
880.986	22044
881.112	22021
881.239	21865
881.366	21770
881.493	21660
881.619	21553
881.746	21679
881.872	21549
881.999	21717
882.125	21504
882.252	21595
882.378	21561
882.505	21644
882.631	21462
882.757	21348
882.883	21378
883.01	21291
883.136	21302
883.262	21233
883.388	21154
883.514	21268
883.64	21378
883.766	21203
883.892	21081
884.018	21157
884.143	21226
884.269	21298
884.395	21043
884.52	20845
884.646	20921
884.772	20804
884.897	20765
885.023	20842
885.148	20990
885.274	20963
885.399	20998
885.524	21005
885.65	20887
885.775	20994
885.9	20842
886.025	20975
886.15	20853
886.275	20845
886.4	20804
886.525	21028
886.65	20792
886.775	20857
886.9	20921
887.025	21096
887.149	20921
887.274	20887
887.399	20769
887.523	20705
887.648	20609
887.773	20556
887.897	20781
888.021	20686
888.146	20701
888.27	20887
888.395	20826
888.519	20777
888.643	20758
888.767	20769
888.891	20488
889.015	20507
889.139	20522
889.263	20454
889.387	20526
889.511	20655
889.635	20651
889.759	20362
889.883	20393
890.006	20461
890.13	20564
890.254	20484
890.377	20317
890.501	20256
890.624	20138
890.748	20214
890.871	19989
890.995	20016
891.118	19932
891.241	20122
891.364	20107
891.488	20187
891.611	19959
891.734	20058
891.857	20111
891.98	19947
892.103	19982
892.226	20073
892.349	19940
892.471	19868
892.594	19951
892.717	19959
892.839	19871
892.962	19917
893.085	19993
893.207	19989
893.33	19898
893.452	19856
893.575	20039
893.697	19997
893.819	20065
893.941	20138
894.064	19989
894.186	19856
894.308	19955
894.43	19997
894.552	19986
894.674	19944
894.796	19898
894.918	19852
895.04	19902
895.161	20081
895.283	20024
895.405	19928
895.526	20039
895.648	19928
895.769	19974
895.891	20065
896.012	20039
896.134	20031
896.255	20084
896.376	19963
896.498	20008
896.619	19986
896.74	19795
896.861	19967
896.982	20214
897.103	20396
897.224	20149
897.345	20164
897.466	20275
897.587	20221
897.708	20259
897.828	20122
897.949	20122
898.07	19944
898.19	20065
898.311	20122
898.431	20084
898.552	20058
898.672	20199
898.792	20294
898.913	20202
899.033	20027
899.153	19963
899.273	19879
899.393	20001
899.513	19902
899.633	19925
899.753	20005
899.873	19791
899.993	19841
900.113	19830
900.232	19898
900.352	19833
900.472	19734
900.591	19742
900.711	19791
900.83	19658
900.95	19788
901.069	19693
901.189	19506
901.308	19464
901.427	19236
901.546	19343
901.665	19236
901.784	19335
901.904	19141
902.023	18954
902.141	18894
902.26	18802
902.379	18840
902.498	18745
902.617	18715
902.735	18741
902.854	18802
902.973	18684
903.091	18532
903.21	18426
903.328	18433
903.446	18285
903.565	18273
903.683	18121
903.801	18220
903.919	18167
904.038	18186
904.156	17996
904.274	17961
904.392	18087
904.51	18038
904.627	17969
904.745	18015
904.863	18068
904.981	17889
905.098	17665
905.216	17596
905.334	17745
905.451	17737
905.569	17653
905.686	17611
905.803	17779
905.921	17532
906.038	17562
906.155	17520
906.272	17490
906.389	17478
906.506	17265
906.623	17200
906.74	17197
906.857	17098
906.974	17231
907.091	17288
907.208	17356
907.324	17174
907.441	17136
907.557	16961
907.674	16911
907.79	17048
907.907	16942
908.023	17018
908.139	16892
908.256	16843
908.372	16896
908.488	16782
908.604	16637
908.72	16577
908.836	16645
908.952	16615
909.068	16649
909.184	16774
909.3	16637
909.415	16706
909.531	16516
909.647	16341
909.762	16310
909.878	16379
909.993	16261
910.108	16299
910.224	16325
910.339	16291
910.454	16181
910.57	16234
910.685	16109
910.8	16367
910.915	16306
911.03	16124
911.145	15903
911.259	15880
911.374	16055
911.489	15827
911.604	15698
911.718	15633
911.833	15686
911.947	15481
912.062	15492
912.176	15523
912.291	15568
912.405	15625
912.519	15797
912.633	15766
912.748	15690
912.862	15614
912.976	15595
913.09	15340
913.204	15382
913.318	15408
913.431	15618
913.545	15557
913.659	15523
913.772	15363
913.886	15310
914	15188
914.113	15412
914.226	15389
914.34	15355
914.453	15180
914.566	15275
914.68	15081
914.793	15135
914.906	14944
915.019	14929
915.132	14823
915.245	14807
915.358	14921
915.47	14918
915.583	14792
915.696	14925
915.809	14979
915.921	15066
916.034	14811
916.146	14792
916.259	14796
916.371	14842
916.483	14823
916.595	14686
916.708	14758
916.82	14724
916.932	14765
917.044	14697
917.156	14735
917.268	14545
917.38	14571
917.491	14545
917.603	14594
917.715	14606
917.826	14606
917.938	14434
918.049	14431
918.161	14503
918.272	14636
918.384	14617
918.495	14469
918.606	14385
918.717	14252
918.828	14324
918.939	14404
919.05	14282
919.161	14320
919.272	14225
919.383	14195
919.494	14298
919.604	14450
919.715	14286
919.826	14138
919.936	14309
920.047	14343
920.157	14221
920.267	14317
920.378	14320
920.488	14214
920.598	14423
920.708	14564
920.818	14442
920.928	14393
921.038	14522
921.148	14560
921.258	14142
921.368	14229
921.477	14005
921.587	13989
921.697	13837
921.806	13947
921.916	13917
922.025	13658
922.134	13613
922.244	13575
922.353	13639
922.462	13540
922.571	13476
922.68	13324
922.789	13320
922.898	13274
923.007	13289
923.116	13339
923.224	13320
923.333	13285
923.442	13187
923.55	13152
923.659	13282
923.767	13240
923.876	13091
923.984	13126
924.092	13038
924.201	13046
924.309	12970
924.417	13103
924.525	12928
924.633	12905
924.741	13723
924.849	12726
924.956	12924
925.064	12829
925.172	12681
925.279	12703
925.387	12696
925.494	12684
925.602	12856
925.709	12844
925.816	12669
925.924	12673
926.031	12844
926.138	12662
926.245	12673
926.352	12536
926.459	12719
926.566	12688
926.673	12620
926.779	12475
926.886	12452
926.993	12372
927.099	12258
927.206	12201
927.312	12273
927.419	12327
927.525	12266
927.631	12311
927.737	12144
927.843	12129
927.95	12015
928.056	12167
928.162	12144
928.267	12216
928.373	12639
928.479	12152
928.585	12022
928.69	12106
928.796	12201
928.901	11912
929.007	11878
929.112	11969
929.218	11927
929.323	11889
929.428	11874
929.533	11904
929.638	11764
929.743	11790
929.848	11859
929.953	11794
930.058	11699
930.163	11490
930.267	11551
930.372	11600
930.477	11452
930.581	11779
930.685	11558
930.79	11425
930.894	11417
930.998	11402
931.103	11490
931.207	11136
931.311	11037
931.415	11067
931.519	10809
931.623	10786
