Data from test_V78500241_2777.txt Node
Date: Fri Mar 25 15:29:11 CST 2022
User: usil
Spectrometer: V785-0024
Trigger mode: 0
Integration Time (sec): 4.000000E-1
Scans to average: 1
Nonlinearity correction enabled: false
Boxcar width: 0
Storing dark spectrum: false
XAxis mode: Wavelengths
Number of Pixels in Spectrum: 1024
>>>>>Begin Spectral Data<<<<<
801.071	27184
801.214	27005
801.356	26895
801.499	26781
801.641	26762
801.783	26590
801.926	26644
802.068	26663
802.211	26503
802.353	26503
802.496	26423
802.638	26240
802.78	26278
802.923	26191
803.065	26065
803.208	26278
803.35	26294
803.492	26358
803.635	26476
803.777	26248
803.919	26492
804.061	26762
804.204	26461
804.346	26366
804.488	26328
804.63	26362
804.773	26328
804.915	26446
805.057	26579
805.199	26446
805.341	26526
805.483	26651
805.626	26530
805.768	26393
805.91	26598
806.052	26488
806.194	26469
806.336	26598
806.478	26606
806.62	26488
806.762	26670
806.904	26811
807.046	26880
807.188	27005
807.33	27081
807.472	26967
807.614	26743
807.756	26921
807.898	26773
808.04	26693
808.182	26735
808.324	26834
808.465	26921
808.607	27112
808.749	27039
808.891	27081
809.033	27081
809.174	27241
809.316	26994
809.458	27237
809.6	27009
809.741	27047
809.883	27150
810.025	27378
810.166	27344
810.308	27332
810.45	27272
810.591	27222
810.733	27313
810.875	27119
811.016	27058
811.158	27055
811.299	27104
811.441	27264
811.582	27397
811.724	27062
811.865	27123
812.007	26925
812.148	27077
812.29	27389
812.431	27135
812.573	27462
812.714	27542
812.855	27530
812.997	27762
813.138	27854
813.279	27717
813.421	27591
813.562	27557
813.703	27363
813.845	27325
813.986	26887
814.127	26815
814.268	26811
814.41	26861
814.551	26720
814.692	26842
814.833	26667
814.974	26712
815.115	26769
815.256	26598
815.397	26526
815.539	26632
815.68	26735
815.821	26503
815.962	26689
816.103	26484
816.244	26336
816.385	26271
816.526	26347
816.666	26164
816.807	25982
816.948	26111
817.089	26119
817.23	26122
817.371	25989
817.512	26016
817.653	25993
817.793	25963
817.934	26050
818.075	25978
818.216	26012
818.356	26012
818.497	25932
818.638	25784
818.778	25731
818.919	25674
819.06	25765
819.2	25921
819.341	25947
819.481	26016
819.622	26130
819.762	26385
819.903	26214
820.043	26263
820.184	26096
820.324	26088
820.465	26221
820.605	26275
820.746	26092
820.886	26005
821.026	26088
821.167	25997
821.307	26122
821.447	26084
821.588	25909
821.728	25723
821.868	25594
822.008	25571
822.149	25453
822.289	25426
822.429	25282
822.569	25183
822.709	25069
822.849	25012
822.99	24970
823.13	24905
823.27	24966
823.41	24776
823.55	24661
823.69	24848
823.83	24738
823.97	24730
824.11	24608
824.25	24574
824.389	24608
824.529	24757
824.669	24665
824.809	24738
824.949	24585
825.089	24764
825.228	24536
825.368	24292
825.508	24559
825.648	24509
825.787	24403
825.927	24608
826.067	24498
826.206	24441
826.346	24547
826.485	24471
826.625	24372
826.765	24525
826.904	24646
827.044	24327
827.183	24315
827.323	24136
827.462	24232
827.601	24254
827.741	23973
827.88	24251
828.02	24152
828.159	24235
828.298	24091
828.437	24163
828.577	24308
828.716	24163
828.855	24060
828.994	23798
829.134	23809
829.273	23939
829.412	23756
829.551	23923
829.69	23878
829.829	23927
829.968	23946
830.107	23870
830.246	23863
830.385	23893
830.524	23824
830.663	23733
830.802	23649
830.941	23444
831.08	23436
831.219	23512
831.357	23592
831.496	23634
831.635	23417
831.774	23353
831.913	23376
832.051	23288
832.19	23265
832.329	23280
832.467	23220
832.606	23113
832.744	23060
832.883	23212
833.022	22976
833.16	23151
833.299	23212
833.437	23166
833.576	23162
833.714	23296
833.852	23231
833.991	23147
834.129	23315
834.267	23334
834.406	23212
834.544	23113
834.682	23235
834.821	23193
834.959	23330
835.097	23246
835.235	23246
835.373	23273
835.511	23178
835.65	22984
835.788	23140
835.926	23064
836.064	22953
836.202	22919
836.34	23090
836.478	23128
836.615	23022
836.753	23102
836.891	23136
837.029	23075
837.167	22949
837.305	22904
837.443	22847
837.58	22881
837.718	23018
837.856	22858
837.993	22892
838.131	22866
838.269	22790
838.406	22790
838.544	22786
838.681	22599
838.819	22519
838.956	22451
839.094	22470
839.231	22421
839.369	22508
839.506	22717
839.643	22744
839.781	22500
839.918	22382
840.055	22443
840.193	22352
840.33	22276
840.467	22314
840.604	22478
840.742	22622
840.879	22291
841.016	22249
841.153	22284
841.29	22360
841.427	22310
841.564	22265
841.701	22329
841.838	22253
841.975	22207
842.112	22390
842.249	22204
842.385	22086
842.522	22379
842.659	22226
842.796	22029
842.933	22177
843.069	21930
843.206	22067
843.343	22219
843.479	21994
843.616	22078
843.752	21865
843.889	21876
844.025	21888
844.162	21736
844.298	21880
844.435	21823
844.571	21755
844.708	21903
844.844	22021
844.98	22006
845.117	22010
845.253	21713
845.389	21610
845.525	21709
845.661	21770
845.798	21629
845.934	21694
846.07	21553
846.206	21739
846.342	21701
846.478	21618
846.614	21485
846.75	21325
846.886	21431
847.022	21351
847.158	21389
847.294	21443
847.429	21428
847.565	21386
847.701	21526
847.837	21077
847.972	20956
848.108	21100
848.244	21104
848.379	21036
848.515	20971
848.65	20963
848.786	20971
848.921	20906
849.057	20998
849.192	20960
849.328	20956
849.463	20853
849.598	20815
849.734	20910
849.869	20785
850.004	20765
850.14	20746
850.275	20727
850.41	20663
850.545	20708
850.68	20678
850.815	20621
850.95	20750
851.085	20785
851.22	20838
851.355	20796
851.49	20674
851.625	20598
851.76	20545
851.895	20484
852.03	20746
852.165	20693
852.299	20834
852.434	20754
852.569	20724
852.703	20663
852.838	20697
852.973	20895
853.107	20743
853.242	20682
853.376	20461
853.511	20446
853.645	20469
853.78	20629
853.914	20667
854.048	20419
854.183	20541
854.317	20583
854.451	20773
854.585	20609
854.72	20514
854.854	20617
854.988	20343
855.122	20473
855.256	20457
855.39	20488
855.524	20556
855.658	20575
855.792	20541
855.926	20629
856.06	20560
856.194	20514
856.327	20625
856.461	20396
856.595	20518
856.729	20495
856.862	20655
856.996	20530
857.13	20579
857.263	20705
857.397	20651
857.53	20446
857.664	20537
857.797	20545
857.931	20533
858.064	20526
858.197	20606
858.331	20598
858.464	20366
858.597	20427
858.731	20473
858.864	20495
858.997	20473
859.13	20571
859.263	20518
859.396	20526
859.529	20442
859.662	20552
859.795	20507
859.928	20495
860.061	20587
860.194	20830
860.327	20712
860.46	20442
860.592	20526
860.725	20727
860.858	20606
860.99	20457
861.123	20381
861.256	20362
861.388	20488
861.521	21184
861.653	20301
861.786	20347
861.918	20492
862.05	20324
862.183	20374
862.315	20503
862.447	20518
862.58	20393
862.712	20259
862.844	20324
862.976	20324
863.108	20343
863.24	20689
863.372	20282
863.504	20271
863.636	20298
863.768	20301
863.9	20244
864.032	20199
864.164	20252
864.296	20282
864.428	20271
864.559	20221
864.691	20309
864.823	20267
864.954	20248
865.086	20187
865.217	20176
865.349	20092
865.48	20161
865.612	20187
865.743	20244
865.875	20081
866.006	20172
866.137	19982
866.269	20172
866.4	20092
866.531	19993
866.662	20016
866.793	20115
866.924	20092
867.055	20153
867.186	20084
867.317	20069
867.448	20050
867.579	19997
867.71	19974
867.841	19974
867.972	20062
868.103	19989
868.233	20092
868.364	20145
868.495	20282
868.625	20290
868.756	20351
868.886	20210
869.017	20343
869.147	20419
869.278	20583
869.408	20347
869.539	20233
869.669	20317
869.799	20396
869.929	20461
870.06	20454
870.19	20727
870.32	20640
870.45	20708
870.58	20727
870.71	20864
870.84	20682
870.97	20682
871.1	20762
871.23	20883
871.36	20944
871.489	20830
871.619	20963
871.749	20845
871.879	20906
872.008	21116
872.138	21032
872.267	20891
872.397	20788
872.526	20739
872.656	20891
872.785	20750
872.915	20849
873.044	21024
873.173	21058
873.303	20944
873.432	21017
873.561	21047
873.69	20960
873.819	20975
873.948	20998
874.077	20967
874.206	20929
874.335	20868
874.464	21043
874.593	21249
874.722	21104
874.851	21192
874.979	21264
875.108	21180
875.237	21268
875.365	21089
875.494	21176
875.623	21245
875.751	21207
875.88	21123
876.008	21363
876.136	21348
876.265	21637
876.393	21713
876.521	21682
876.65	21698
876.778	21603
876.906	21477
877.034	21603
877.162	21572
877.29	21435
877.418	21637
877.546	21675
877.674	21538
877.802	21564
877.93	21507
878.058	21370
878.185	21466
878.313	21447
878.441	21591
878.568	21477
878.696	21443
878.824	21492
878.951	21507
879.079	21603
879.206	21888
879.333	21717
879.461	21488
879.588	21637
879.715	21823
879.842	21793
879.97	21713
880.097	21416
880.224	21428
880.351	21344
880.478	21340
880.605	21306
880.732	21332
880.859	21595
880.986	21424
881.112	21412
881.239	21348
881.366	21176
881.493	21013
881.619	20910
881.746	20990
881.872	21013
881.999	20883
882.125	20872
882.252	21028
882.378	20910
882.505	21058
882.631	20849
882.757	20750
882.883	20785
883.01	20579
883.136	20632
883.262	20465
883.388	20495
883.514	20708
883.64	20705
883.766	20602
883.892	20431
884.018	20473
884.143	20537
884.269	20765
884.395	20358
884.52	20366
884.646	20305
884.772	20259
884.897	20248
885.023	20339
885.148	20423
885.274	20579
885.399	20431
885.524	20336
885.65	20317
885.775	20210
885.9	20320
886.025	20389
886.15	20347
886.275	20324
886.4	20233
886.525	20244
886.65	20218
886.775	20225
886.9	20465
887.025	20499
887.149	20267
887.274	20107
887.399	19989
887.523	20077
887.648	20054
887.773	19959
887.897	20130
888.021	20202
888.146	19970
888.27	20240
888.395	20115
888.519	20161
888.643	20138
888.767	20035
888.891	20065
889.015	19944
889.139	19909
889.263	19944
889.387	19974
889.511	20199
889.635	19947
889.759	19871
889.883	19864
890.006	19871
890.13	20065
890.254	19830
890.377	19833
890.501	19639
890.624	19632
890.748	19708
890.871	19483
890.995	19464
891.118	19464
891.241	19601
891.364	19396
891.488	19597
891.611	19419
891.734	19514
891.857	19514
891.98	19556
892.103	19487
892.226	19449
892.349	19369
892.471	19259
892.594	19407
892.717	19396
892.839	19365
892.962	19464
893.085	19381
893.207	19419
893.33	19384
893.452	19331
893.575	19419
893.697	19411
893.819	19597
893.941	19685
894.064	19521
894.186	19346
894.308	19354
894.43	19491
894.552	19590
894.674	19506
894.796	19304
894.918	19384
895.04	19388
895.161	19533
895.283	19491
895.405	19362
895.526	19350
895.648	19373
895.769	19407
895.891	19514
896.012	19597
896.134	19449
896.255	19525
896.376	19362
896.498	19403
896.619	19491
896.74	19415
896.861	19403
896.982	19670
897.103	19803
897.224	19559
897.345	19632
897.466	19605
897.587	19647
897.708	19761
897.828	19689
897.949	19533
898.07	19582
898.19	19525
898.311	19681
898.431	19628
898.552	19635
898.672	19677
898.792	19715
898.913	19613
899.033	19506
899.153	19502
899.273	19324
899.393	19415
899.513	19381
899.633	19464
899.753	19400
899.873	19388
899.993	19392
900.113	19331
900.232	19426
900.352	19327
900.472	19324
900.591	19187
900.711	19278
900.83	19232
900.95	19350
901.069	19259
901.189	19065
901.308	18928
901.427	18665
901.546	18859
901.665	18772
901.784	18791
901.904	18616
902.023	18597
902.141	18426
902.26	18213
902.379	18448
902.498	18296
902.617	18311
902.735	18350
902.854	18308
902.973	18296
903.091	18064
903.21	18068
903.328	18019
903.446	17908
903.565	17809
903.683	17847
903.801	17668
903.919	17665
904.038	17733
904.156	17592
904.274	17661
904.392	17558
904.51	17433
904.627	17509
904.745	17573
904.863	17634
904.981	17292
905.098	17296
905.216	17227
905.334	17261
905.451	17250
905.569	17349
905.686	17322
905.803	17307
905.921	16968
906.038	17204
906.155	17086
906.272	16908
906.389	16995
906.506	16809
906.623	16797
906.74	16801
906.857	16645
906.974	16706
907.091	16858
907.208	16908
907.324	16786
907.441	16675
907.557	16611
907.674	16497
907.79	16466
907.907	16466
908.023	16573
908.139	16561
908.256	16417
908.372	16325
908.488	16432
908.604	16219
908.72	16124
908.836	16238
908.952	16223
909.068	16230
909.184	16310
909.3	16181
909.415	16272
909.531	16238
909.647	16006
909.762	16029
909.878	15808
909.993	15903
910.108	15857
910.224	15903
910.339	15903
910.454	15770
910.57	15671
910.685	15618
910.8	15926
910.915	15854
911.03	15778
911.145	15584
911.259	15603
911.374	15564
911.489	15416
911.604	15466
911.718	15207
911.833	15329
911.947	15249
912.062	15268
912.176	15408
912.291	15340
912.405	15416
912.519	15591
912.633	15549
912.748	15359
912.862	15241
912.976	15104
913.09	15100
913.204	15074
913.318	15142
913.431	15180
913.545	15192
913.659	15264
913.772	15138
913.886	14967
914	14815
914.113	15001
914.226	15081
914.34	14956
914.453	14899
914.566	14994
914.68	14834
914.793	14731
914.906	14640
915.019	14583
915.132	14575
915.245	14518
915.358	14602
915.47	14533
915.583	14461
915.696	14610
915.809	14667
915.921	14735
916.034	14381
916.146	14533
916.259	14488
916.371	14568
916.483	14613
916.595	14362
916.708	14351
916.82	14446
916.932	14309
917.044	14332
917.156	14355
917.268	14240
917.38	14286
917.491	14142
917.603	14263
917.715	14275
917.826	14275
917.938	14267
918.049	14069
918.161	14138
918.272	14358
918.384	14286
918.495	14202
918.606	13955
918.717	13921
918.828	13959
918.939	14050
919.05	13940
919.161	14005
919.272	13807
919.383	13875
919.494	14012
919.604	14130
919.715	14020
919.826	13913
919.936	13940
920.047	14142
920.157	13879
920.267	14138
920.378	13955
920.488	13868
920.598	14195
920.708	14202
920.818	14100
920.928	14077
921.038	14195
921.148	14164
921.258	13864
921.368	13826
921.477	13803
921.587	13708
921.697	13616
921.806	13719
921.916	13647
922.025	13468
922.134	13449
922.244	13324
922.353	13377
922.462	13236
922.571	13190
922.68	13156
922.789	13042
922.898	13099
923.007	12875
923.116	13107
923.224	12928
923.333	12890
923.442	12882
923.55	12825
923.659	12856
923.767	12791
923.876	12867
923.984	12867
924.092	12783
924.201	12741
924.309	12726
924.417	12783
924.525	12650
924.633	12677
924.741	13495
924.849	12502
924.956	12688
925.064	12486
925.172	12357
925.279	12460
925.387	12467
925.494	12467
925.602	12612
925.709	12445
925.816	12361
925.924	12414
926.031	12506
926.138	12418
926.245	12509
926.352	12289
926.459	12426
926.566	12551
926.673	12350
926.779	12190
926.886	12197
926.993	12076
927.099	12079
927.206	12091
927.312	12072
927.419	12098
927.525	12015
927.631	12087
927.737	11954
927.843	11840
927.95	11847
928.056	11904
928.162	11897
928.267	12003
928.373	12547
928.479	12011
928.585	11752
928.69	11916
928.796	11855
928.901	11794
929.007	11668
929.112	11649
929.218	11821
929.323	11649
929.428	11653
929.533	11718
929.638	11596
929.743	11524
929.848	11649
929.953	11581
930.058	11421
930.163	11280
930.267	11311
930.372	11539
930.477	11261
930.581	11539
930.685	11383
930.79	11227
930.894	11250
930.998	11223
931.103	11227
931.207	10957
931.311	10877
931.415	10782
931.519	10630
931.623	10478
