Data from test_V78500241_2821.txt Node
Date: Fri Mar 25 15:29:30 CST 2022
User: usil
Spectrometer: V785-0024
Trigger mode: 0
Integration Time (sec): 4.000000E-1
Scans to average: 1
Nonlinearity correction enabled: false
Boxcar width: 0
Storing dark spectrum: false
XAxis mode: Wavelengths
Number of Pixels in Spectrum: 1024
>>>>>Begin Spectral Data<<<<<
801.071	27241
801.214	27279
801.356	26944
801.499	27013
801.641	26872
801.783	26769
801.926	26815
802.068	26815
802.211	26788
802.353	26621
802.496	26518
802.638	26324
802.78	26374
802.923	26343
803.065	26275
803.208	26347
803.35	26370
803.492	26602
803.635	26552
803.777	26465
803.919	26530
804.061	26773
804.204	26579
804.346	26393
804.488	26492
804.63	26590
804.773	26537
804.915	26545
805.057	26606
805.199	26526
805.341	26583
805.483	26720
805.626	26720
805.768	26583
805.91	26781
806.052	26686
806.194	26511
806.336	26754
806.478	26686
806.62	26678
806.762	26800
806.904	26823
807.046	27230
807.188	27154
807.33	27028
807.472	27188
807.614	26967
807.756	27005
807.898	26921
808.04	26762
808.182	26842
808.324	26914
808.465	27039
808.607	27176
808.749	27313
808.891	27287
809.033	27458
809.174	27370
809.316	27230
809.458	27329
809.6	27329
809.741	27363
809.883	27382
810.025	27618
810.166	27694
810.308	27580
810.45	27416
810.591	27504
810.733	27310
810.875	27287
811.016	27009
811.158	27230
811.299	27466
811.441	27553
811.582	27389
811.724	27272
811.865	27294
812.007	27165
812.148	27283
812.29	27310
812.431	27443
812.573	27519
812.714	27492
812.855	27713
812.997	27956
813.138	27960
813.279	27713
813.421	27930
813.562	27812
813.703	27557
813.845	27336
813.986	27123
814.127	27032
814.268	26838
814.41	26819
814.551	26842
814.692	27005
814.833	26800
814.974	26906
815.115	26952
815.256	26811
815.397	26826
815.539	26773
815.68	26762
815.821	26655
815.962	26705
816.103	26682
816.244	26541
816.385	26541
816.526	26503
816.666	26195
816.807	26195
816.948	26275
817.089	26275
817.23	26313
817.371	26218
817.512	26130
817.653	26187
817.793	26084
817.934	26176
818.075	26229
818.216	26172
818.356	26138
818.497	26206
818.638	25890
818.778	26016
818.919	25925
819.06	26069
819.2	26096
819.341	26172
819.481	26244
819.622	26221
819.762	26480
819.903	26450
820.043	26313
820.184	26419
820.324	26263
820.465	26058
820.605	26404
820.746	26168
820.886	26081
821.026	26282
821.167	26199
821.307	26267
821.447	26130
821.588	26020
821.728	26012
821.868	25788
822.008	25643
822.149	25776
822.289	25674
822.429	25419
822.569	25392
822.709	25312
822.849	25080
822.99	25080
823.13	25076
823.27	25038
823.41	24947
823.55	24920
823.69	24806
823.83	24848
823.97	24863
824.11	24631
824.25	24757
824.389	24764
824.529	24894
824.669	24795
824.809	24962
824.949	24939
825.089	24897
825.228	24745
825.368	24722
825.508	24623
825.648	24715
825.787	24612
825.927	24722
826.067	24642
826.206	24741
826.346	24684
826.485	24798
826.625	24719
826.765	24730
826.904	24779
827.044	24372
827.183	24353
827.323	24334
827.462	24350
827.601	24369
827.741	24418
827.88	24433
828.02	24216
828.159	24174
828.298	24380
828.437	24388
828.577	24281
828.716	24323
828.855	24315
828.994	24098
829.134	24102
829.273	24049
829.412	23950
829.551	24041
829.69	24110
829.829	24026
829.968	24167
830.107	24140
830.246	24091
830.385	23920
830.524	23954
830.663	23855
830.802	23771
830.941	23668
831.08	23710
831.219	23828
831.357	23756
831.496	23916
831.635	23592
831.774	23604
831.913	23608
832.051	23497
832.19	23444
832.329	23421
832.467	23376
832.606	23379
832.744	23322
832.883	23440
833.022	23353
833.16	23288
833.299	23497
833.437	23360
833.576	23402
833.714	23425
833.852	23509
833.991	23391
834.129	23448
834.267	23436
834.406	23277
834.544	23493
834.682	23345
834.821	23345
834.959	23436
835.097	23292
835.235	23349
835.373	23341
835.511	23440
835.65	23292
835.788	23269
835.926	23124
836.064	22965
836.202	23029
836.34	23094
836.478	23239
836.615	23166
836.753	23227
836.891	23250
837.029	23273
837.167	23193
837.305	23037
837.443	23037
837.58	23079
837.718	23204
837.856	23121
837.993	22896
838.131	22949
838.269	22942
838.406	22911
838.544	22900
838.681	22611
838.819	22797
838.956	22451
839.094	22565
839.231	22679
839.369	22774
839.506	22805
839.643	22847
839.781	22618
839.918	22497
840.055	22546
840.193	22512
840.33	22481
840.467	22577
840.604	22577
840.742	22729
840.879	22356
841.016	22371
841.153	22382
841.29	22649
841.427	22390
841.564	22554
841.701	22428
841.838	22432
841.975	22348
842.112	22474
842.249	22390
842.385	22169
842.522	22436
842.659	22352
842.796	22325
842.933	22348
843.069	22185
843.206	22185
843.343	22348
843.479	22268
843.616	22169
843.752	21903
843.889	22025
844.025	22177
844.162	21994
844.298	22055
844.435	22032
844.571	22063
844.708	22082
844.844	22097
844.98	22078
845.117	22082
845.253	22029
845.389	21819
845.525	21918
845.661	21698
845.798	21724
845.934	21876
846.07	21835
846.206	21880
846.342	21991
846.478	21751
846.614	21481
846.75	21610
846.886	21481
847.022	21606
847.158	21462
847.294	21545
847.429	21485
847.565	21412
847.701	21606
847.837	21260
847.972	21222
848.108	21268
848.244	21188
848.379	21043
848.515	21138
848.65	21100
848.786	21036
848.921	21161
849.057	21188
849.192	21214
849.328	21093
849.463	21070
849.598	21100
849.734	20861
849.869	20876
850.004	20861
850.14	20880
850.275	20895
850.41	20746
850.545	20765
850.68	20804
850.815	20842
850.95	20815
851.085	20963
851.22	21032
851.355	20929
851.49	20781
851.625	20785
851.76	20823
851.895	20697
852.03	20625
852.165	20788
852.299	20899
852.434	20834
852.569	20842
852.703	20929
852.838	20861
852.973	20921
853.107	20857
853.242	20735
853.376	20629
853.511	20484
853.645	20530
853.78	20670
853.914	20674
854.048	20579
854.183	20682
854.317	20708
854.451	20804
854.585	20686
854.72	20777
854.854	20644
854.988	20469
855.122	20655
855.256	20560
855.39	20541
855.524	20617
855.658	20705
855.792	20560
855.926	20670
856.06	20792
856.194	20735
856.327	20739
856.461	20606
856.595	20609
856.729	20598
856.862	20705
856.996	20670
857.13	20731
857.263	20689
857.397	20663
857.53	20670
857.664	20632
857.797	20697
857.931	20777
858.064	20727
858.197	20765
858.331	20590
858.464	20659
858.597	20556
858.731	20579
858.864	20678
858.997	20667
859.13	20651
859.263	20644
859.396	20716
859.529	20697
859.662	20556
859.795	20560
859.928	20625
860.061	20819
860.194	20838
860.327	20640
860.46	20644
860.592	20746
860.725	20750
860.858	20754
860.99	20651
861.123	20511
861.256	20396
861.388	20564
861.521	21321
861.653	20511
861.786	20488
861.918	20476
862.05	20602
862.183	20583
862.315	20575
862.447	20686
862.58	20469
862.712	20294
862.844	20465
862.976	20423
863.108	20381
863.24	20857
863.372	20374
863.504	20427
863.636	20423
863.768	20465
863.9	20351
864.032	20248
864.164	20275
864.296	20317
864.428	20358
864.559	20408
864.691	20408
864.823	20324
864.954	20385
865.086	20396
865.217	20206
865.349	20282
865.48	20305
865.612	20267
865.743	20484
865.875	20301
866.006	20248
866.137	20351
866.269	20343
866.4	20244
866.531	20183
866.662	20221
866.793	20256
866.924	20202
867.055	20282
867.186	20142
867.317	20153
867.448	20069
867.579	20199
867.71	20115
867.841	20065
867.972	20240
868.103	20149
868.233	20225
868.364	20332
868.495	20366
868.625	20298
868.756	20530
868.886	20434
869.017	20404
869.147	20594
869.278	20522
869.408	20434
869.539	20415
869.669	20461
869.799	20495
869.929	20575
870.06	20488
870.19	20830
870.32	20739
870.45	20845
870.58	20823
870.71	20823
870.84	20883
870.97	20804
871.1	20880
871.23	20952
871.36	21074
871.489	20918
871.619	21051
871.749	20941
871.879	21104
872.008	21127
872.138	21089
872.267	21062
872.397	20906
872.526	20918
872.656	20914
872.785	20925
872.915	21017
873.044	21135
873.173	21001
873.303	21096
873.432	21039
873.561	21161
873.69	21093
873.819	21039
873.948	21089
874.077	21188
874.206	21017
874.335	21127
874.464	21207
874.593	21363
874.722	21203
874.851	21336
874.979	21363
875.108	21401
875.237	21233
875.365	21154
875.494	21302
875.623	21378
875.751	21260
875.88	21340
876.008	21405
876.136	21504
876.265	21709
876.393	21819
876.521	21732
876.65	21762
876.778	21720
876.906	21778
877.034	21701
877.162	21675
877.29	21587
877.418	21732
877.546	21614
877.674	21564
877.802	21610
877.93	21663
878.058	21694
878.185	21526
878.313	21690
878.441	21637
878.568	21382
878.696	21629
878.824	21682
878.951	21850
879.079	21869
879.206	21968
879.333	21800
879.461	21625
879.588	21690
879.715	21747
879.842	21895
879.97	21720
880.097	21553
880.224	21526
880.351	21534
880.478	21492
880.605	21378
880.732	21443
880.859	21701
880.986	21515
881.112	21557
881.239	21382
881.366	21203
881.493	21108
881.619	21131
881.746	21184
881.872	21085
881.999	21123
882.125	20963
882.252	21055
882.378	21104
882.505	21173
882.631	20971
882.757	20861
882.883	20823
883.01	20781
883.136	20811
883.262	20655
883.388	20549
883.514	20777
883.64	20727
883.766	20644
883.892	20522
884.018	20560
884.143	20853
884.269	20834
884.395	20514
884.52	20446
884.646	20518
884.772	20374
884.897	20514
885.023	20450
885.148	20511
885.274	20629
885.399	20526
885.524	20469
885.65	20343
885.775	20476
885.9	20396
886.025	20495
886.15	20507
886.275	20457
886.4	20385
886.525	20476
886.65	20278
886.775	20358
886.9	20537
887.025	20571
887.149	20332
887.274	20305
887.399	20172
887.523	20252
887.648	20130
887.773	20206
887.897	20256
888.021	20138
888.146	20096
888.27	20248
888.395	20199
888.519	20237
888.643	20263
888.767	20328
888.891	20027
889.015	20046
889.139	20164
889.263	20035
889.387	20172
889.511	20187
889.635	20027
889.759	19974
889.883	20008
890.006	20046
890.13	20058
890.254	19986
890.377	19982
890.501	19811
890.624	19765
890.748	19791
890.871	19597
890.995	19563
891.118	19468
891.241	19647
891.364	19594
891.488	19696
891.611	19613
891.734	19556
891.857	19666
891.98	19563
892.103	19594
892.226	19655
892.349	19567
892.471	19350
892.594	19430
892.717	19597
892.839	19480
892.962	19540
893.085	19544
893.207	19316
893.33	19381
893.452	19396
893.575	19582
893.697	19392
893.819	19582
893.941	19753
894.064	19628
894.186	19411
894.308	19457
894.43	19666
894.552	19693
894.674	19613
894.796	19449
894.918	19506
895.04	19529
895.161	19662
895.283	19559
895.405	19426
895.526	19533
895.648	19605
895.769	19514
895.891	19556
896.012	19601
896.134	19582
896.255	19491
896.376	19426
896.498	19556
896.619	19476
896.74	19510
896.861	19563
896.982	19780
897.103	20039
897.224	19700
897.345	19738
897.466	19693
897.587	19753
897.708	19883
897.828	19746
897.949	19616
898.07	19620
898.19	19830
898.311	19932
898.431	19624
898.552	19693
898.672	19769
898.792	19852
898.913	19708
899.033	19586
899.153	19464
899.273	19346
899.393	19514
899.513	19464
899.633	19556
899.753	19544
899.873	19460
899.993	19628
900.113	19449
900.232	19559
900.352	19476
900.472	19369
900.591	19194
900.711	19270
900.83	19236
900.95	19335
901.069	19316
901.189	19202
901.308	18981
901.427	18825
901.546	18856
901.665	18852
901.784	18875
901.904	18798
902.023	18722
902.141	18509
902.26	18445
902.379	18399
902.498	18441
902.617	18361
902.735	18471
902.854	18483
902.973	18251
903.091	18114
903.21	18068
903.328	18148
903.446	17950
903.565	18026
903.683	17897
903.801	17756
903.919	17760
904.038	17931
904.156	17676
904.274	17771
904.392	17562
904.51	17668
904.627	17665
904.745	17783
904.863	17752
904.981	17482
905.098	17303
905.216	17250
905.334	17395
905.451	17227
905.569	17398
905.686	17387
905.803	17341
905.921	17067
906.038	17284
906.155	17067
906.272	16980
906.389	17140
906.506	16892
906.623	16965
906.74	16923
906.857	16740
906.974	16778
907.091	16908
907.208	17006
907.324	16782
907.441	16706
907.557	16729
907.674	16569
907.79	16538
907.907	16504
908.023	16748
908.139	16683
908.256	16504
908.372	16512
908.488	16413
908.604	16318
908.72	16375
908.836	16337
908.952	16291
909.068	16310
909.184	16363
909.3	16314
909.415	16360
909.531	16329
909.647	16032
909.762	16082
909.878	15945
909.993	16025
910.108	15918
910.224	16010
910.339	15956
910.454	15869
910.57	15918
910.685	15842
910.8	16059
910.915	15899
911.03	15781
911.145	15743
911.259	15530
911.374	15709
911.489	15606
911.604	15424
911.718	15336
911.833	15351
911.947	15507
912.062	15374
912.176	15496
912.291	15488
912.405	15507
912.519	15488
912.633	15580
912.748	15469
912.862	15439
912.976	15222
913.09	15176
913.204	15230
913.318	15093
913.431	15321
913.545	15237
913.659	15336
913.772	15104
913.886	14994
914	15055
914.113	15058
914.226	15161
914.34	15104
914.453	14838
914.566	15024
914.68	14971
914.793	14895
914.906	14701
915.019	14594
915.132	14457
915.245	14644
915.358	14629
915.47	14758
915.583	14583
915.696	14674
915.809	14689
915.921	14819
916.034	14533
916.146	14579
916.259	14552
916.371	14640
916.483	14613
916.595	14366
916.708	14457
916.82	14473
916.932	14476
917.044	14476
917.156	14366
917.268	14259
917.38	14332
917.491	14320
917.603	14313
917.715	14404
917.826	14480
917.938	14286
918.049	14142
918.161	14218
918.272	14358
918.384	14412
918.495	14237
918.606	14073
918.717	14046
918.828	14024
918.939	14119
919.05	13955
919.161	14020
919.272	13852
919.383	13913
919.494	14130
919.604	14278
919.715	14138
919.826	13978
919.936	13974
920.047	14138
920.157	14107
920.267	14259
920.378	14130
920.488	14050
920.598	14206
920.708	14358
920.818	14142
920.928	14126
921.038	14229
921.148	14362
921.258	14005
921.368	13879
921.477	13852
921.587	13799
921.697	13708
921.806	13868
921.916	13578
922.025	13480
922.134	13396
922.244	13472
922.353	13464
922.462	13289
922.571	13278
922.68	13118
922.789	13126
922.898	13141
923.007	13038
923.116	13122
923.224	13057
923.333	12973
923.442	12947
923.55	12913
923.659	12913
923.767	13084
923.876	12916
923.984	12973
924.092	12810
924.201	12886
924.309	12859
924.417	12958
924.525	12760
924.633	12757
924.741	13575
924.849	12658
924.956	12627
925.064	12521
925.172	12479
925.279	12566
925.387	12521
925.494	12608
925.602	12612
925.709	12574
925.816	12448
925.924	12536
926.031	12566
926.138	12445
926.245	12547
926.352	12486
926.459	12566
926.566	12509
926.673	12407
926.779	12361
926.886	12254
926.993	12159
927.099	12136
927.206	12194
927.312	12064
927.419	12194
927.525	12178
927.631	12129
927.737	11984
927.843	11939
927.95	11908
928.056	11950
928.162	12015
928.267	11984
928.373	12646
928.479	12011
928.585	11832
928.69	11889
928.796	11950
928.901	11798
929.007	11691
929.112	11840
929.218	11802
929.323	11752
929.428	11695
929.533	11821
929.638	11688
929.743	11684
929.848	11668
929.953	11649
930.058	11516
930.163	11356
930.267	11398
930.372	11459
930.477	11349
930.581	11600
930.685	11497
930.79	11299
930.894	11212
930.998	11216
931.103	11356
931.207	11033
931.311	11048
931.415	10809
931.519	10675
931.623	10634
