Data from test_V78500241_1235.txt Node
Date: Fri Mar 25 15:18:27 CST 2022
User: usil
Spectrometer: V785-0024
Trigger mode: 0
Integration Time (sec): 4.000000E-1
Scans to average: 1
Nonlinearity correction enabled: false
Boxcar width: 0
Storing dark spectrum: false
XAxis mode: Wavelengths
Number of Pixels in Spectrum: 1024
>>>>>Begin Spectral Data<<<<<
801.071	28299
801.214	28280
801.356	27903
801.499	27854
801.641	27648
801.783	27698
801.926	27705
802.068	27816
802.211	27583
802.353	27629
802.496	27374
802.638	27344
802.78	27485
802.923	27359
803.065	27401
803.208	27313
803.35	27515
803.492	27450
803.635	27515
803.777	27344
803.919	27709
804.061	27964
804.204	27561
804.346	27633
804.488	27374
804.63	27466
804.773	27644
804.915	27679
805.057	27713
805.199	27466
805.341	27717
805.483	27762
805.626	27797
805.768	27595
805.91	27747
806.052	27739
806.194	27667
806.336	27941
806.478	27762
806.62	27842
806.762	27823
806.904	28044
807.046	28162
807.188	28116
807.33	28242
807.472	28246
807.614	28067
807.756	28067
807.898	28025
808.04	27987
808.182	27968
808.324	28135
808.465	27994
808.607	28265
808.749	28352
808.891	28557
809.033	28573
809.174	28417
809.316	28318
809.458	28390
809.6	28329
809.741	28489
809.883	28531
810.025	28611
810.166	28710
810.308	28763
810.45	28599
810.591	28626
810.733	28481
810.875	28546
811.016	28318
811.158	28333
811.299	28432
811.441	28561
811.582	28527
811.724	28405
811.865	28337
812.007	28386
812.148	28447
812.29	28360
812.431	28656
812.573	28706
812.714	28858
812.855	28771
812.997	29014
813.138	29064
813.279	29064
813.421	28968
813.562	28877
813.703	28744
813.845	28656
813.986	28371
814.127	28074
814.268	28093
814.41	28135
814.551	28051
814.692	28207
814.833	28124
814.974	27987
815.115	28032
815.256	27979
815.397	28036
815.539	27949
815.68	27812
815.821	27880
815.962	27926
816.103	27876
816.244	27861
816.385	27751
816.526	27736
816.666	27603
816.807	27408
816.948	27466
817.089	27526
817.23	27317
817.371	27431
817.512	27469
817.653	27458
817.793	27363
817.934	27618
818.075	27439
818.216	27427
818.356	27530
818.497	27401
818.638	27302
818.778	27058
818.919	27199
819.06	27287
819.2	27359
819.341	27420
819.481	27355
819.622	27473
819.762	27694
819.903	27671
820.043	27739
820.184	27625
820.324	27462
820.465	27580
820.605	27473
820.746	27564
820.886	27374
821.026	27526
821.167	27458
821.307	27652
821.447	27420
821.588	27447
821.728	27260
821.868	27077
822.008	26952
822.149	26777
822.289	26887
822.429	26606
822.569	26609
822.709	26556
822.849	26347
822.99	26415
823.13	26450
823.27	26267
823.41	26210
823.55	26142
823.69	26317
823.83	26263
823.97	26153
824.11	26130
824.25	26081
824.389	26065
824.529	26278
824.669	26092
824.809	26225
824.949	26199
825.089	26176
825.228	26126
825.368	26058
825.508	25917
825.648	25959
825.787	25928
825.927	26084
826.067	25921
826.206	26008
826.346	26050
826.485	25936
826.625	25944
826.765	26119
826.904	26024
827.044	25902
827.183	25632
827.323	25674
827.462	25811
827.601	25632
827.741	25609
827.88	25727
828.02	25514
828.159	25639
828.298	25655
828.437	25715
828.577	25605
828.716	25696
828.855	25681
828.994	25430
829.134	25324
829.273	25297
829.412	25285
829.551	25289
829.69	25441
829.829	25400
829.968	25487
830.107	25438
830.246	25487
830.385	25308
830.524	25270
830.663	25179
830.802	25126
830.941	25053
831.08	25023
831.219	24951
831.357	24996
831.496	25103
831.635	24932
831.774	25012
831.913	24966
832.051	24817
832.19	24871
832.329	24738
832.467	24707
832.606	24635
832.744	24620
832.883	24620
833.022	24719
833.16	24715
833.299	24852
833.437	24692
833.576	24734
833.714	24764
833.852	24844
833.991	24798
834.129	24783
834.267	24856
834.406	24639
834.544	24741
834.682	24760
834.821	24703
834.959	24886
835.097	24719
835.235	24779
835.373	24833
835.511	24726
835.65	24582
835.788	24498
835.926	24429
836.064	24388
836.202	24505
836.34	24570
836.478	24658
836.615	24509
836.753	24589
836.891	24658
837.029	24566
837.167	24456
837.305	24498
837.443	24372
837.58	24422
837.718	24445
837.856	24582
837.993	24273
838.131	24346
838.269	24304
838.406	24262
838.544	24281
838.681	24087
838.819	23950
838.956	23958
839.094	23798
839.231	23931
839.369	24091
839.506	24140
839.643	24091
839.781	23912
839.918	23714
840.055	23893
840.193	23874
840.33	23889
840.467	23775
840.604	23813
840.742	24159
840.879	23676
841.016	23813
841.153	23680
841.29	23847
841.427	23707
841.564	23870
841.701	23786
841.838	23627
841.975	23767
842.112	23627
842.249	23611
842.385	23589
842.522	23752
842.659	23691
842.796	23440
842.933	23627
843.069	23376
843.206	23448
843.343	23490
843.479	23436
843.616	23581
843.752	23318
843.889	23341
844.025	23493
844.162	23315
844.298	23471
844.435	23360
844.571	23315
844.708	23204
844.844	23478
844.98	23372
845.117	23452
845.253	23204
845.389	23239
845.525	23132
845.661	23128
845.798	23018
845.934	23121
846.07	23003
846.206	23060
846.342	23185
846.478	22953
846.614	22900
846.75	22816
846.886	22717
847.022	22797
847.158	22889
847.294	22797
847.429	22797
847.565	22694
847.701	23018
847.837	22512
847.972	22455
848.108	22687
848.244	22580
848.379	22500
848.515	22363
848.65	22322
848.786	22440
848.921	22417
849.057	22516
849.192	22466
849.328	22386
849.463	22421
849.598	22325
849.734	22238
849.869	22287
850.004	22063
850.14	22196
850.275	22226
850.41	22044
850.545	21930
850.68	22051
850.815	22135
850.95	22044
851.085	22329
851.22	22147
851.355	22105
851.49	22120
851.625	22124
851.76	22036
851.895	22025
852.03	21983
852.165	22055
852.299	21979
852.434	22261
852.569	22143
852.703	22051
852.838	22177
852.973	22291
853.107	22181
853.242	22055
853.376	22040
853.511	21892
853.645	21915
853.78	21945
853.914	22112
854.048	21884
854.183	21937
854.317	22090
854.451	22090
854.585	21930
854.72	21903
854.854	21979
854.988	22010
855.122	21972
855.256	21838
855.39	21899
855.524	21991
855.658	21926
855.792	21945
855.926	22032
856.06	22044
856.194	22021
856.327	22051
856.461	21892
856.595	22032
856.729	21968
856.862	22105
856.996	21975
857.13	22105
857.263	22010
857.397	22181
857.53	21960
857.664	22044
857.797	21956
857.931	22143
858.064	21876
858.197	22021
858.331	22082
858.464	22013
858.597	21888
858.731	21888
858.864	21922
858.997	21975
859.13	22025
859.263	21998
859.396	22082
859.529	22013
859.662	21907
859.795	21827
859.928	21934
860.061	22093
860.194	22086
860.327	22017
860.46	21964
860.592	21922
860.725	22101
860.858	22128
860.99	21972
861.123	21861
861.256	21804
861.388	21998
861.521	22626
861.653	21823
861.786	21728
861.918	21743
862.05	21911
862.183	21812
862.315	21892
862.447	21857
862.58	21785
862.712	21660
862.844	21580
862.976	21644
863.108	21728
863.24	22059
863.372	21614
863.504	21682
863.636	21732
863.768	21648
863.9	21656
864.032	21595
864.164	21614
864.296	21583
864.428	21717
864.559	21778
864.691	21682
864.823	21759
864.954	21603
865.086	21694
865.217	21561
865.349	21477
865.48	21583
865.612	21496
865.743	21614
865.875	21511
866.006	21458
866.137	21614
866.269	21557
866.4	21523
866.531	21504
866.662	21367
866.793	21420
866.924	21393
867.055	21500
867.186	21469
867.317	21481
867.448	21408
867.579	21431
867.71	21557
867.841	21351
867.972	21545
868.103	21397
868.233	21473
868.364	21428
868.495	21485
868.625	21690
868.756	21789
868.886	21785
869.017	21747
869.147	21797
869.278	21804
869.408	21743
869.539	21660
869.669	21709
869.799	21747
869.929	21709
870.06	21728
870.19	22097
870.32	21880
870.45	22154
870.58	22090
870.71	22131
870.84	22150
870.97	22036
871.1	22226
871.23	22276
871.36	22386
871.489	22166
871.619	22207
871.749	22371
871.879	22124
872.008	22348
872.138	22280
872.267	22344
872.397	22234
872.526	22051
872.656	22166
872.785	22143
872.915	22306
873.044	22363
873.173	22306
873.303	22356
873.432	22299
873.561	22500
873.69	22341
873.819	22360
873.948	22432
874.077	22371
874.206	22310
874.335	22322
874.464	22329
874.593	22527
874.722	22516
874.851	22470
874.979	22637
875.108	22664
875.237	22516
875.365	22481
875.494	22523
875.623	22630
875.751	22447
875.88	22535
876.008	22729
876.136	22691
876.265	22904
876.393	23044
876.521	22949
876.65	23014
876.778	22946
876.906	22862
877.034	22782
877.162	22877
877.29	22896
877.418	22812
877.546	22946
877.674	22892
877.802	22889
877.93	22892
878.058	22763
878.185	22740
878.313	22740
878.441	22812
878.568	22626
878.696	22767
878.824	22896
878.951	22934
879.079	22968
879.206	23143
879.333	22999
879.461	22858
879.588	22866
879.715	22991
879.842	23200
879.97	22957
880.097	22679
880.224	22653
880.351	22634
880.478	22740
880.605	22683
880.732	22691
880.859	22999
880.986	22615
881.112	22603
881.239	22535
881.366	22371
881.493	22325
881.619	22306
881.746	22348
881.872	22299
881.999	22169
882.125	22173
882.252	22249
882.378	22303
882.505	22417
882.631	22200
882.757	22109
882.883	21899
883.01	21987
883.136	21880
883.262	21781
883.388	21827
883.514	21987
883.64	21975
883.766	21975
883.892	21797
884.018	21808
884.143	21941
884.269	21865
884.395	21583
884.52	21447
884.646	21568
884.772	21405
884.897	21568
885.023	21637
885.148	21675
885.274	21698
885.399	21557
885.524	21530
885.65	21545
885.775	21561
885.9	21507
886.025	21667
886.15	21576
886.275	21618
886.4	21485
886.525	21473
886.65	21450
886.775	21401
886.9	21648
887.025	21698
887.149	21637
887.274	21462
887.399	21348
887.523	21268
887.648	21393
887.773	21260
887.897	21363
888.021	21466
888.146	21367
888.27	21469
888.395	21344
888.519	21374
888.643	21237
888.767	21473
888.891	21184
889.015	21112
889.139	21230
889.263	21058
889.387	21283
889.511	21302
889.635	21230
889.759	21275
889.883	21058
890.006	21047
890.13	21188
890.254	21066
890.377	21070
890.501	20944
890.624	20845
890.748	20796
890.871	20906
890.995	20689
891.118	20640
891.241	20621
891.364	20701
891.488	20754
891.611	20636
891.734	20636
891.857	20689
891.98	20716
892.103	20762
892.226	20594
892.349	20568
892.471	20469
892.594	20533
892.717	20686
892.839	20552
892.962	20492
893.085	20602
893.207	20564
893.33	20473
893.452	20556
893.575	20579
893.697	20518
893.819	20682
893.941	20830
894.064	20842
894.186	20522
894.308	20514
894.43	20697
894.552	20796
894.674	20613
894.796	20454
894.918	20503
895.04	20476
895.161	20663
895.283	20609
895.405	20499
895.526	20537
895.648	20492
895.769	20632
895.891	20701
896.012	20636
896.134	20552
896.255	20495
896.376	20587
896.498	20533
896.619	20693
896.74	20564
896.861	20670
896.982	20815
897.103	20971
897.224	20921
897.345	20800
897.466	20697
897.587	20891
897.708	20933
897.828	20796
897.949	20724
898.07	20564
898.19	20712
898.311	20823
898.431	20777
898.552	20667
898.672	20823
898.792	20834
898.913	20944
899.033	20564
899.153	20606
899.273	20408
899.393	20583
899.513	20549
899.633	20465
899.753	20518
899.873	20431
899.993	20412
900.113	20469
900.232	20488
900.352	20427
900.472	20267
900.591	20324
900.711	20282
900.83	20252
900.95	20332
901.069	20313
901.189	20180
901.308	19978
901.427	19788
901.546	19940
901.665	19921
901.784	19887
901.904	19655
902.023	19575
902.141	19483
902.26	19285
902.379	19422
902.498	19285
902.617	19335
902.735	19354
902.854	19331
902.973	19247
903.091	19061
903.21	19015
903.328	19034
903.446	18913
903.565	18810
903.683	18871
903.801	18684
903.919	18837
904.038	18741
904.156	18589
904.274	18703
904.392	18658
904.51	18741
904.627	18589
904.745	18646
904.863	18776
904.981	18319
905.098	18342
905.216	18289
905.334	18422
905.451	18304
905.569	18209
905.686	18319
905.803	18201
905.921	18152
906.038	18254
906.155	18087
906.272	17912
906.389	18057
906.506	17828
906.623	17882
906.74	17805
906.857	17672
906.974	17756
907.091	17908
907.208	17885
907.324	17859
907.441	17672
907.557	17596
907.674	17547
907.79	17493
907.907	17554
908.023	17467
908.139	17448
908.256	17455
908.372	17334
908.488	17444
908.604	17265
908.72	17265
908.836	17231
908.952	17189
909.068	17364
909.184	17334
909.3	17315
909.415	17223
909.531	17231
909.647	16949
909.762	16896
909.878	16889
909.993	16995
910.108	16877
910.224	16869
910.339	16915
910.454	16790
910.57	16740
910.685	16725
910.8	16919
910.915	16892
911.03	16706
911.145	16580
911.259	16508
911.374	16489
911.489	16519
911.604	16379
911.718	16314
911.833	16238
911.947	16211
912.062	16067
912.176	16268
912.291	16356
912.405	16207
912.519	16443
912.633	16344
912.748	16360
912.862	16223
912.976	16116
913.09	15918
913.204	16040
913.318	16105
913.431	16192
913.545	16131
913.659	16093
913.772	15998
913.886	15918
914	15903
914.113	15884
914.226	15922
914.34	15975
914.453	15728
914.566	15895
914.68	15800
914.793	15766
914.906	15485
915.019	15500
915.132	15519
915.245	15447
915.358	15355
915.47	15405
915.583	15389
915.696	15450
915.809	15511
915.921	15591
916.034	15355
916.146	15374
916.259	15397
916.371	15389
916.483	15310
916.595	15317
916.708	15310
916.82	15291
916.932	15313
917.044	15283
917.156	15188
917.268	15119
917.38	15097
917.491	15062
917.603	15036
917.715	15119
917.826	15279
917.938	15066
918.049	14952
918.161	14952
918.272	15203
918.384	15203
918.495	15017
918.606	14921
918.717	14796
918.828	14887
918.939	14864
919.05	14777
919.161	14705
919.272	14678
919.383	14617
919.494	15020
919.604	14994
919.715	14769
919.826	14670
919.936	14796
920.047	14887
920.157	14800
920.267	14967
920.378	14815
920.488	14868
920.598	15058
920.708	15085
920.818	14956
920.928	14883
921.038	15093
921.148	15001
921.258	14746
921.368	14758
921.477	14556
921.587	14484
921.697	14438
921.806	14617
921.916	14404
922.025	14248
922.134	14176
922.244	14130
922.353	14153
922.462	14035
922.571	13963
922.68	13852
922.789	13856
922.898	13818
923.007	13723
923.116	13845
923.224	13826
923.333	13837
923.442	13731
923.55	13601
923.659	13696
923.767	13712
923.876	13613
923.984	13655
924.092	13495
924.201	13666
924.309	13559
924.417	13544
924.525	13453
924.633	13483
924.741	14206
924.849	13221
924.956	13426
925.064	13358
925.172	13209
925.279	13209
925.387	13247
925.494	13247
925.602	13236
925.709	13179
925.816	13171
925.924	13122
926.031	13247
926.138	13118
926.245	13160
926.352	13053
926.459	13156
926.566	13282
926.673	13061
926.779	12966
926.886	12951
926.993	12798
927.099	12722
927.206	12726
927.312	12692
927.419	12806
927.525	12772
927.631	12749
927.737	12715
927.843	12662
927.95	12513
928.056	12650
928.162	12612
928.267	12696
928.373	13251
928.479	12612
928.585	12407
928.69	12521
928.796	12563
928.901	12517
929.007	12292
929.112	12445
929.218	12452
929.323	12361
929.428	12254
929.533	12403
929.638	12190
929.743	12216
929.848	12224
929.953	12224
930.058	12106
930.163	12064
930.267	12003
930.372	12072
930.477	11969
930.581	12213
930.685	12019
930.79	11870
930.894	11961
930.998	11832
931.103	12030
931.207	11627
931.311	11516
931.415	11459
931.519	11193
931.623	11155
