Data from test_V78500241_3591.txt Node
Date: Fri Mar 25 15:34:51 CST 2022
User: usil
Spectrometer: V785-0024
Trigger mode: 0
Integration Time (sec): 4.000000E-1
Scans to average: 1
Nonlinearity correction enabled: false
Boxcar width: 0
Storing dark spectrum: false
XAxis mode: Wavelengths
Number of Pixels in Spectrum: 1024
>>>>>Begin Spectral Data<<<<<
801.071	27199
801.214	27294
801.356	26994
801.499	27055
801.641	26868
801.783	26819
801.926	26864
802.068	26899
802.211	26777
802.353	26876
802.496	26636
802.638	26621
802.78	26412
802.923	26480
803.065	26438
803.208	26469
803.35	26492
803.492	26644
803.635	26663
803.777	26583
803.919	26644
804.061	26899
804.204	26667
804.346	26617
804.488	26556
804.63	26621
804.773	26541
804.915	26880
805.057	26785
805.199	26560
805.341	26663
805.483	26758
805.626	26697
805.768	26655
805.91	26758
806.052	26689
806.194	26712
806.336	26990
806.478	26746
806.62	26792
806.762	26864
806.904	27028
807.046	27275
807.188	27214
807.33	27169
807.472	27306
807.614	27070
807.756	27119
807.898	27039
808.04	26906
808.182	26925
808.324	27047
808.465	26940
808.607	27260
808.749	27264
808.891	27511
809.033	27462
809.174	27249
809.316	27336
809.458	27332
809.6	27355
809.741	27545
809.883	27538
810.025	27644
810.166	27667
810.308	27526
810.45	27519
810.591	27679
810.733	27500
810.875	27351
811.016	27291
811.158	27351
811.299	27530
811.441	27557
811.582	27420
811.724	27519
811.865	27294
812.007	27424
812.148	27203
812.29	27310
812.431	27504
812.573	27701
812.714	27675
812.855	28010
812.997	27876
813.138	27998
813.279	27937
813.421	27861
813.562	27762
813.703	27785
813.845	27561
813.986	27096
814.127	27070
814.268	27058
814.41	27055
814.551	26921
814.692	27176
814.833	26990
814.974	27066
815.115	27058
815.256	27009
815.397	26940
815.539	26849
815.68	26807
815.821	26686
815.962	26872
816.103	26872
816.244	26617
816.385	26724
816.526	26606
816.666	26267
816.807	26275
816.948	26442
817.089	26457
817.23	26339
817.371	26275
817.512	26278
817.653	26210
817.793	26252
817.934	26324
818.075	26267
818.216	26244
818.356	26290
818.497	26256
818.638	25947
818.778	26024
818.919	25951
819.06	26115
819.2	26153
819.341	26267
819.481	26252
819.622	26511
819.762	26689
819.903	26507
820.043	26434
820.184	26400
820.324	26415
820.465	26355
820.605	26347
820.746	26393
820.886	26339
821.026	26343
821.167	26282
821.307	26320
821.447	26381
821.588	26218
821.728	26024
821.868	25917
822.008	25822
822.149	25727
822.289	25803
822.429	25479
822.569	25499
822.709	25464
822.849	25301
822.99	25217
823.13	25206
823.27	25156
823.41	25099
823.55	24844
823.69	25004
823.83	25012
823.97	24943
824.11	24985
824.25	24856
824.389	24992
824.529	25008
824.669	24935
824.809	25019
824.949	24958
825.089	24890
825.228	24928
825.368	24886
825.508	24840
825.648	24791
825.787	24753
825.927	24852
826.067	24791
826.206	24798
826.346	24859
826.485	24764
826.625	24871
826.765	24875
826.904	24734
827.044	24623
827.183	24593
827.323	24376
827.462	24589
827.601	24555
827.741	24494
827.88	24467
828.02	24357
828.159	24471
828.298	24498
828.437	24574
828.577	24353
828.716	24684
828.855	24338
828.994	24121
829.134	24121
829.273	24292
829.412	24197
829.551	24190
829.69	24281
829.829	24247
829.968	24262
830.107	24380
830.246	24152
830.385	24110
830.524	24140
830.663	23931
830.802	23874
830.941	23863
831.08	23859
831.219	23984
831.357	24098
831.496	24057
831.635	23851
831.774	23779
831.913	23703
832.051	23535
832.19	23570
832.329	23703
832.467	23547
832.606	23398
832.744	23528
832.883	23459
833.022	23478
833.16	23471
833.299	23543
833.437	23585
833.576	23604
833.714	23695
833.852	23570
833.991	23726
834.129	23627
834.267	23745
834.406	23680
834.544	23672
834.682	23604
834.821	23501
834.959	23783
835.097	23501
835.235	23596
835.373	23756
835.511	23653
835.65	23395
835.788	23608
835.926	23356
836.064	23296
836.202	23273
836.34	23490
836.478	23558
836.615	23349
836.753	23387
836.891	23474
837.029	23467
837.167	23493
837.305	23414
837.443	23345
837.58	23356
837.718	23292
837.856	23292
837.993	23254
838.131	23273
838.269	23223
838.406	23258
838.544	23086
838.681	23003
838.819	22995
838.956	22824
839.094	22782
839.231	22831
839.369	22934
839.506	23075
839.643	22953
839.781	22763
839.918	22797
840.055	22771
840.193	22752
840.33	22736
840.467	22588
840.604	22702
840.742	22869
840.879	22607
841.016	22672
841.153	22702
841.29	22687
841.427	22767
841.564	22786
841.701	22706
841.838	22653
841.975	22577
842.112	22706
842.249	22466
842.385	22565
842.522	22812
842.659	22584
842.796	22485
842.933	22470
843.069	22504
843.206	22428
843.343	22577
843.479	22409
843.616	22424
843.752	22329
843.889	22253
844.025	22474
844.162	22253
844.298	22253
844.435	22280
844.571	22223
844.708	22303
844.844	22455
844.98	22295
845.117	22363
845.253	22166
845.389	22093
845.525	22242
845.661	22158
845.798	22086
845.934	22059
846.07	21949
846.206	21994
846.342	22124
846.478	22063
846.614	21762
846.75	21747
846.886	21736
847.022	21759
847.158	21759
847.294	21846
847.429	21793
847.565	21720
847.701	21861
847.837	21443
847.972	21428
848.108	21523
848.244	21549
848.379	21481
848.515	21389
848.65	21298
848.786	21416
848.921	21378
849.057	21355
849.192	21397
849.328	21355
849.463	21367
849.598	21226
849.734	21283
849.869	21264
850.004	21146
850.14	21142
850.275	21104
850.41	20986
850.545	21142
850.68	21089
850.815	21100
850.95	21180
851.085	21211
851.22	21150
851.355	21135
851.49	21066
851.625	21020
851.76	21081
851.895	21036
852.03	21142
852.165	21047
852.299	21173
852.434	21096
852.569	21161
852.703	21020
852.838	21131
852.973	21218
853.107	21207
853.242	21032
853.376	20933
853.511	20838
853.645	20826
853.78	21001
853.914	20979
854.048	20845
854.183	20857
854.317	20887
854.451	21138
854.585	20914
854.72	21009
854.854	20982
854.988	20845
855.122	20906
855.256	20864
855.39	20720
855.524	21119
855.658	20941
855.792	20925
855.926	20868
856.06	21058
856.194	20971
856.327	20880
856.461	20914
856.595	20823
856.729	20891
856.862	21024
856.996	20910
857.13	21017
857.263	20967
857.397	21009
857.53	20937
857.664	21036
857.797	20887
857.931	21047
858.064	20952
858.197	20883
858.331	20910
858.464	20902
858.597	20773
858.731	20849
858.864	20845
858.997	20792
859.13	21009
859.263	20895
859.396	21020
859.529	20853
859.662	20796
859.795	21020
859.928	20880
860.061	20979
860.194	21028
860.327	20979
860.46	20967
860.592	21017
860.725	21093
860.858	21047
860.99	20914
861.123	20754
861.256	20864
861.388	20902
861.521	21713
861.653	20754
861.786	20682
861.918	20735
862.05	20914
862.183	20880
862.315	20887
862.447	20929
862.58	20815
862.712	20632
862.844	20705
862.976	20697
863.108	20701
863.24	21100
863.372	20632
863.504	20625
863.636	20590
863.768	20636
863.9	20560
864.032	20564
864.164	20549
864.296	20583
864.428	20815
864.559	20655
864.691	20708
864.823	20598
864.954	20632
865.086	20579
865.217	20522
865.349	20396
865.48	20499
865.612	20571
865.743	20613
865.875	20476
866.006	20541
866.137	20446
866.269	20461
866.4	20480
866.531	20351
866.662	20408
866.793	20385
866.924	20473
867.055	20564
867.186	20476
867.317	20473
867.448	20366
867.579	20370
867.71	20317
867.841	20355
867.972	20434
868.103	20484
868.233	20530
868.364	20290
868.495	20473
868.625	20602
868.756	20796
868.886	20587
869.017	20674
869.147	20956
869.278	20594
869.408	20762
869.539	20762
869.669	20800
869.799	20815
869.929	20857
870.06	20815
870.19	21096
870.32	20944
870.45	21024
870.58	21173
870.71	21085
870.84	21085
870.97	21154
871.1	21150
871.23	21275
871.36	21287
871.489	21302
871.619	21447
871.749	21321
871.879	21241
872.008	21382
872.138	21310
872.267	21249
872.397	21241
872.526	21157
872.656	21066
872.785	21157
872.915	21199
873.044	21519
873.173	21348
873.303	21367
873.432	21279
873.561	21393
873.69	21252
873.819	21317
873.948	21340
874.077	21313
874.206	21294
874.335	21317
874.464	21367
874.593	21637
874.722	21473
874.851	21698
874.979	21618
875.108	21641
875.237	21580
875.365	21507
875.494	21660
875.623	21568
875.751	21507
875.88	21534
876.008	21709
876.136	21899
876.265	21983
876.393	22044
876.521	21998
876.65	22097
876.778	21880
876.906	21888
877.034	21975
877.162	21861
877.29	21964
877.418	21903
877.546	21945
877.674	21899
877.802	21846
877.93	21968
878.058	21846
878.185	21899
878.313	21899
878.441	21926
878.568	21797
878.696	21823
878.824	21991
878.951	22010
879.079	22105
879.206	22131
879.333	22082
879.461	21846
879.588	21998
879.715	22074
879.842	22112
879.97	22078
880.097	21793
880.224	21770
880.351	21739
880.478	21751
880.605	21838
880.732	21679
880.859	21926
880.986	21724
881.112	21736
881.239	21587
881.366	21481
881.493	21355
881.619	21325
881.746	21329
881.872	21344
881.999	21237
882.125	21275
882.252	21351
882.378	21302
882.505	21393
882.631	21093
882.757	20994
882.883	21062
883.01	21070
883.136	20975
883.262	20861
883.388	20941
883.514	21013
883.64	21051
883.766	21066
883.892	20826
884.018	20921
884.143	21036
884.269	21043
884.395	20765
884.52	20640
884.646	20667
884.772	20518
884.897	20587
885.023	20590
885.148	20769
885.274	20986
885.399	20758
885.524	20712
885.65	20682
885.775	20720
885.9	20655
886.025	20746
886.15	20731
886.275	20670
886.4	20568
886.525	20617
886.65	20575
886.775	20442
886.9	20853
887.025	20899
887.149	20674
887.274	20427
887.399	20533
887.523	20408
887.648	20301
887.773	20377
887.897	20499
888.021	20556
888.146	20336
888.27	20503
888.395	20507
888.519	20381
888.643	20511
888.767	20530
888.891	20374
889.015	20294
889.139	20282
889.263	20233
889.387	20301
889.511	20404
889.635	20355
889.759	20267
889.883	20202
890.006	20210
890.13	20427
890.254	20191
890.377	20240
890.501	20008
890.624	19909
890.748	20039
890.871	19906
890.995	19799
891.118	19841
891.241	19814
891.364	19830
891.488	19871
891.611	19776
891.734	19864
891.857	19852
891.98	19742
892.103	19925
892.226	19818
892.349	19693
892.471	19635
892.594	19731
892.717	19757
892.839	19753
892.962	19769
893.085	19780
893.207	19628
893.33	19537
893.452	19662
893.575	19776
893.697	19772
893.819	19879
893.941	19894
894.064	19902
894.186	19742
894.308	19594
894.43	19830
894.552	19928
894.674	19803
894.796	19655
894.918	19765
895.04	19708
895.161	19833
895.283	19757
895.405	19750
895.526	19841
895.648	19738
895.769	19727
895.891	19696
896.012	19791
896.134	19860
896.255	19772
896.376	19689
896.498	19791
896.619	19864
896.74	19791
896.861	19909
896.982	20092
897.103	20119
897.224	19986
897.345	19917
897.466	19906
897.587	19997
897.708	20119
897.828	19887
897.949	19993
898.07	19727
898.19	19967
898.311	20065
898.431	19963
898.552	20016
898.672	20005
898.792	20027
898.913	19909
899.033	19906
899.153	19795
899.273	19537
899.393	19635
899.513	19833
899.633	19647
899.753	19632
899.873	19685
899.993	19738
900.113	19662
900.232	19693
900.352	19632
900.472	19575
900.591	19419
900.711	19548
900.83	19388
900.95	19563
901.069	19578
901.189	19472
901.308	19118
901.427	19065
901.546	19118
901.665	19046
901.784	19084
901.904	19050
902.023	18795
902.141	18722
902.26	18574
902.379	18707
902.498	18612
902.617	18536
902.735	18696
902.854	18601
902.973	18616
903.091	18247
903.21	18319
903.328	18251
903.446	18247
903.565	18034
903.683	18083
903.801	18041
903.919	18057
904.038	17977
904.156	17866
904.274	17965
904.392	17897
904.51	17703
904.627	17790
904.745	17893
904.863	17999
904.981	17642
905.098	17493
905.216	17585
905.334	17562
905.451	17573
905.569	17532
905.686	17482
905.803	17577
905.921	17368
906.038	17478
906.155	17368
906.272	17178
906.389	17181
906.506	17064
906.623	17159
906.74	17117
906.857	16949
906.974	16991
907.091	17048
907.208	17258
907.324	17143
907.441	16908
907.557	16812
907.674	16797
907.79	16691
907.907	16752
908.023	16672
908.139	16809
908.256	16713
908.372	16630
908.488	16702
908.604	16489
908.72	16405
908.836	16531
908.952	16512
909.068	16531
909.184	16554
909.3	16519
909.415	16607
909.531	16516
909.647	16219
909.762	16234
909.878	16150
909.993	16268
910.108	16215
910.224	16261
910.339	16265
910.454	16124
910.57	16002
910.685	15956
910.8	16207
910.915	16219
911.03	16032
911.145	15922
911.259	15793
911.374	15846
911.489	15743
911.604	15720
911.718	15488
911.833	15622
911.947	15572
912.062	15504
912.176	15576
912.291	15542
912.405	15568
912.519	15698
912.633	15732
912.748	15599
912.862	15538
912.976	15329
913.09	15313
913.204	15294
913.318	15454
913.431	15458
913.545	15488
913.659	15538
913.772	15382
913.886	15237
914	15222
914.113	15226
914.226	15367
914.34	15272
914.453	15058
914.566	15222
914.68	15066
914.793	15127
914.906	14876
915.019	14750
915.132	14746
915.245	14845
915.358	14857
915.47	14765
915.583	14826
915.696	14815
915.809	14967
915.921	14956
916.034	14587
916.146	14670
916.259	14670
916.371	14826
916.483	14716
916.595	14667
916.708	14632
916.82	14701
916.932	14473
917.044	14568
917.156	14533
917.268	14415
917.38	14488
917.491	14469
917.603	14442
917.715	14610
917.826	14610
917.938	14393
918.049	14343
918.161	14446
918.272	14533
918.384	14518
918.495	14419
918.606	14332
918.717	14202
918.828	14233
918.939	14248
919.05	14115
919.161	14210
919.272	13917
919.383	14027
919.494	14328
919.604	14431
919.715	14195
919.826	14119
919.936	14176
920.047	14320
920.157	14202
920.267	14313
920.378	14149
920.488	14107
920.598	14332
920.708	14537
920.818	14317
920.928	14339
921.038	14583
921.148	14396
921.258	14168
921.368	14107
921.477	14031
921.587	13906
921.697	13814
921.806	13989
921.916	13803
922.025	13700
922.134	13620
922.244	13537
922.353	13628
922.462	13529
922.571	13392
922.68	13320
922.789	13183
922.898	13247
923.007	13110
923.116	13232
923.224	13164
923.333	13206
923.442	13099
923.55	13038
923.659	13008
923.767	13031
923.876	13012
923.984	13110
924.092	12939
924.201	13050
924.309	13038
924.417	12993
924.525	12954
924.633	12989
924.741	13875
924.849	12753
924.956	12913
925.064	12654
925.172	12547
925.279	12585
925.387	12650
925.494	12639
925.602	12806
925.709	12764
925.816	12551
925.924	12616
926.031	12776
926.138	12669
926.245	12608
926.352	12532
926.459	12574
926.566	12700
926.673	12574
926.779	12350
926.886	12376
926.993	12315
927.099	12292
927.206	12292
927.312	12175
927.419	12292
927.525	12205
927.631	12334
927.737	12148
927.843	12190
927.95	11996
928.056	12060
928.162	12140
928.267	12148
928.373	12589
928.479	12239
928.585	11988
928.69	12022
928.796	12114
928.901	11977
929.007	11794
929.112	11977
929.218	11923
929.323	11843
929.428	11847
929.533	11885
929.638	11729
929.743	11714
929.848	11802
929.953	11760
930.058	11630
930.163	11493
930.267	11490
930.372	11642
930.477	11433
930.581	11672
930.685	11539
930.79	11395
930.894	11520
930.998	11440
931.103	11539
931.207	11151
931.311	10984
931.415	11006
931.519	10782
931.623	10774
