Data from test_V78500241_581.txt Node
Date: Fri Mar 25 15:13:54 CST 2022
User: usil
Spectrometer: V785-0024
Trigger mode: 0
Integration Time (sec): 4.000000E-1
Scans to average: 1
Nonlinearity correction enabled: false
Boxcar width: 0
Storing dark spectrum: false
XAxis mode: Wavelengths
Number of Pixels in Spectrum: 1024
>>>>>Begin Spectral Data<<<<<
801.071	27431
801.214	27473
801.356	27249
801.499	27119
801.641	27135
801.783	26940
801.926	27214
802.068	27100
802.211	27047
802.353	26986
802.496	26800
802.638	26693
802.78	26636
802.923	26701
803.065	26648
803.208	26727
803.35	26777
803.492	26891
803.635	26880
803.777	26807
803.919	26853
804.061	27199
804.204	26876
804.346	26769
804.488	26701
804.63	26937
804.773	26731
804.915	27032
805.057	27108
805.199	26902
805.341	26902
805.483	27070
805.626	26864
805.768	26853
805.91	27028
806.052	27100
806.194	26929
806.336	27180
806.478	26960
806.62	26979
806.762	27070
806.904	27245
807.046	27557
807.188	27313
807.33	27348
807.472	27405
807.614	27336
807.756	27386
807.898	27184
808.04	27275
808.182	27161
808.324	27192
808.465	27233
808.607	27553
808.749	27587
808.891	27614
809.033	27705
809.174	27694
809.316	27724
809.458	27648
809.6	27568
809.741	27857
809.883	27660
810.025	27880
810.166	27895
810.308	27907
810.45	27876
810.591	27816
810.733	27774
810.875	27656
811.016	27504
811.158	27530
811.299	27797
811.441	27835
811.582	27694
811.724	27568
811.865	27561
812.007	27519
812.148	27564
812.29	27633
812.431	27778
812.573	27884
812.714	28109
812.855	28147
812.997	28226
813.138	28443
813.279	28356
813.421	28249
813.562	28112
813.703	28051
813.845	27789
813.986	27667
814.127	27450
814.268	27275
814.41	27237
814.551	27180
814.692	27310
814.833	27351
814.974	27298
815.115	27287
815.256	27199
815.397	27230
815.539	27249
815.68	27036
815.821	26986
815.962	27131
816.103	26944
816.244	27039
816.385	26796
816.526	26864
816.666	26785
816.807	26682
816.948	26617
817.089	26674
817.23	26762
817.371	26670
817.512	26651
817.653	26590
817.793	26632
817.934	26495
818.075	26678
818.216	26530
818.356	26598
818.497	26366
818.638	26366
818.778	26434
818.919	26412
819.06	26347
819.2	26400
819.341	26533
819.481	26587
819.622	26758
819.762	26921
819.903	26834
820.043	26815
820.184	26617
820.324	26640
820.465	26823
820.605	26708
820.746	26769
820.886	26629
821.026	26712
821.167	26686
821.307	26883
821.447	26640
821.588	26640
821.728	26461
821.868	26324
822.008	26088
822.149	26054
822.289	26111
822.429	25715
822.569	25750
822.709	25780
822.849	25628
822.99	25460
823.13	25578
823.27	25670
823.41	25354
823.55	25266
823.69	25396
823.83	25339
823.97	25422
824.11	25202
824.25	25148
824.389	25141
824.529	25308
824.669	25175
824.809	25335
824.949	25232
825.089	25320
825.228	25400
825.368	25008
825.508	25023
825.648	25053
825.787	25194
825.927	25099
826.067	25148
826.206	24970
826.346	25080
826.485	25076
826.625	25129
826.765	25308
826.904	25103
827.044	24932
827.183	24958
827.323	24646
827.462	24920
827.601	24779
827.741	24711
827.88	24764
828.02	24776
828.159	24696
828.298	24871
828.437	24935
828.577	24760
828.716	24894
828.855	24738
828.994	24471
829.134	24422
829.273	24483
829.412	24490
829.551	24422
829.69	24429
829.829	24517
829.968	24620
830.107	24578
830.246	24486
830.385	24475
830.524	24361
830.663	24323
830.802	24235
830.941	24060
831.08	24049
831.219	24095
831.357	24140
831.496	24346
831.635	24254
831.774	23893
831.913	23988
832.051	23999
832.19	23855
832.329	23946
832.467	23836
832.606	23752
832.744	23592
832.883	23821
833.022	23687
833.16	23794
833.299	23760
833.437	23847
833.576	23870
833.714	23874
833.852	23954
833.991	23874
834.129	23958
834.267	23889
834.406	23920
834.544	24015
834.682	23745
834.821	23779
834.959	23859
835.097	23893
835.235	23931
835.373	23824
835.511	23775
835.65	23646
835.788	23813
835.926	23615
836.064	23509
836.202	23535
836.34	23661
836.478	23817
836.615	23558
836.753	23668
836.891	23745
837.029	23748
837.167	23638
837.305	23570
837.443	23600
837.58	23505
837.718	23509
837.856	23627
837.993	23604
838.131	23444
838.269	23364
838.406	23459
838.544	23433
838.681	23197
838.819	23071
838.956	22972
839.094	22968
839.231	23086
839.369	23193
839.506	23349
839.643	23223
839.781	23014
839.918	22877
840.055	22991
840.193	22828
840.33	22896
840.467	22934
840.604	23033
840.742	23117
840.879	22881
841.016	22961
841.153	22778
841.29	23033
841.427	22961
841.564	22938
841.701	22843
841.838	22862
841.975	22858
842.112	22831
842.249	22736
842.385	22637
842.522	22831
842.659	22641
842.796	22687
842.933	22660
843.069	22733
843.206	22649
843.343	22755
843.479	22599
843.616	22748
843.752	22462
843.889	22538
844.025	22504
844.162	22466
844.298	22512
844.435	22379
844.571	22462
844.708	22497
844.844	22577
844.98	22694
845.117	22615
845.253	22348
845.389	22421
845.525	22295
845.661	22337
845.798	22074
845.934	22337
846.07	22257
846.206	22215
846.342	22306
846.478	22257
846.614	21922
846.75	21968
846.886	21979
847.022	21922
847.158	21831
847.294	22059
847.429	21869
847.565	21926
847.701	22105
847.837	21778
847.972	21682
848.108	21759
848.244	21618
848.379	21648
848.515	21526
848.65	21557
848.786	21580
848.921	21599
849.057	21637
849.192	21641
849.328	21595
849.463	21450
849.598	21572
849.734	21397
849.869	21336
850.004	21321
850.14	21279
850.275	21321
850.41	21184
850.545	21188
850.68	21207
850.815	21386
850.95	21165
851.085	21405
851.22	21344
851.355	21378
851.49	21226
851.625	21336
851.76	21207
851.895	21169
852.03	21169
852.165	21226
852.299	21382
852.434	21431
852.569	21294
852.703	21268
852.838	21321
852.973	21336
853.107	21428
853.242	21222
853.376	21116
853.511	20994
853.645	21157
853.78	21173
853.914	21127
854.048	21051
854.183	21077
854.317	21192
854.451	21321
854.585	21119
854.72	21135
854.854	21184
854.988	21032
855.122	21173
855.256	21036
855.39	21062
855.524	21131
855.658	21093
855.792	21180
855.926	21020
856.06	21161
856.194	21184
856.327	21173
856.461	21108
856.595	20986
856.729	21005
856.862	21157
856.996	21096
857.13	21154
857.263	21138
857.397	21169
857.53	21142
857.664	21184
857.797	21180
857.931	21275
858.064	21192
858.197	21211
858.331	21150
858.464	21013
858.597	21005
858.731	21058
858.864	21070
858.997	21058
859.13	20990
859.263	21093
859.396	21138
859.529	21081
859.662	21036
859.795	21036
859.928	21051
860.061	21252
860.194	21302
860.327	21192
860.46	21176
860.592	21233
860.725	21317
860.858	21226
860.99	21154
861.123	21096
861.256	21024
861.388	21077
861.521	21979
861.653	20979
861.786	20868
861.918	20929
862.05	20902
862.183	20994
862.315	21112
862.447	21020
862.58	21188
862.712	20842
862.844	20868
862.976	20986
863.108	20796
863.24	21367
863.372	20609
863.504	20853
863.636	20796
863.768	20834
863.9	20861
864.032	20735
864.164	20724
864.296	20876
864.428	20963
864.559	20853
864.691	20960
864.823	20758
864.954	20716
865.086	20815
865.217	20678
865.349	20636
865.48	20720
865.612	20689
865.743	21043
865.875	20674
866.006	20640
866.137	20724
866.269	20689
866.4	20705
866.531	20530
866.662	20583
866.793	20575
866.924	20564
867.055	20701
867.186	20625
867.317	20549
867.448	20571
867.579	20629
867.71	20648
867.841	20541
867.972	20659
868.103	20705
868.233	20606
868.364	20655
868.495	20716
868.625	20857
868.756	21055
868.886	20868
869.017	20941
869.147	20739
869.278	20971
869.408	20891
869.539	21009
869.669	20944
869.799	20956
869.929	21009
870.06	21093
870.19	21268
870.32	21112
870.45	21214
870.58	21298
870.71	21378
870.84	21393
870.97	21264
871.1	21351
871.23	21332
871.36	21572
871.489	21378
871.619	21606
871.749	21393
871.879	21431
872.008	21580
872.138	21405
872.267	21397
872.397	21348
872.526	21355
872.656	21230
872.785	21355
872.915	21553
873.044	21511
873.173	21580
873.303	21580
873.432	21568
873.561	21542
873.69	21629
873.819	21523
873.948	21580
874.077	21370
874.206	21439
874.335	21507
874.464	21633
874.593	21770
874.722	21739
874.851	21781
874.979	21736
875.108	21823
875.237	21739
875.365	21732
875.494	21671
875.623	21857
875.751	21583
875.88	21797
876.008	21915
876.136	21846
876.265	22207
876.393	22150
876.521	22303
876.65	22276
876.778	22268
876.906	22109
877.034	22013
877.162	22006
877.29	22101
877.418	22112
877.546	22109
877.674	22044
877.802	22147
877.93	22013
878.058	22036
878.185	21968
878.313	21964
878.441	22097
878.568	21808
878.696	22055
878.824	22158
878.951	22276
879.079	22238
879.206	22436
879.333	22215
879.461	22116
879.588	22314
879.715	22242
879.842	22352
879.97	22230
880.097	21930
880.224	21800
880.351	21831
880.478	21987
880.605	21911
880.732	21876
880.859	22158
880.986	21915
881.112	21911
881.239	21717
881.366	21606
881.493	21568
881.619	21454
881.746	21580
881.872	21519
881.999	21595
882.125	21424
882.252	21416
882.378	21435
882.505	21568
882.631	21275
882.757	21157
882.883	21203
883.01	21268
883.136	21173
883.262	21058
883.388	21142
883.514	21161
883.64	21169
883.766	21119
883.892	20975
884.018	21028
884.143	21184
884.269	21237
884.395	20899
884.52	20853
884.646	20834
884.772	20739
884.897	20754
885.023	20796
885.148	20883
885.274	20849
885.399	20948
885.524	20857
885.65	20830
885.775	20762
885.9	20815
886.025	20986
886.15	20925
886.275	20735
886.4	20689
886.525	20880
886.65	20785
886.775	20765
886.9	20986
887.025	21085
887.149	20765
887.274	20693
887.399	20564
887.523	20625
887.648	20594
887.773	20469
887.897	20743
888.021	20606
888.146	20648
888.27	20667
888.395	20720
888.519	20579
888.643	20659
888.767	20640
888.891	20545
889.015	20431
889.139	20473
889.263	20324
889.387	20484
889.511	20792
889.635	20484
889.759	20419
889.883	20400
890.006	20454
890.13	20568
890.254	20358
890.377	20305
890.501	20263
890.624	20039
890.748	20149
890.871	20054
890.995	19944
891.118	19856
891.241	19993
891.364	20069
891.488	20138
891.611	19993
891.734	19955
891.857	20092
891.98	20035
892.103	19967
892.226	20050
892.349	19978
892.471	19875
892.594	19845
892.717	19993
892.839	20024
892.962	19951
893.085	19917
893.207	19967
893.33	19826
893.452	19784
893.575	19883
893.697	19890
893.819	20008
893.941	19974
894.064	19940
894.186	19776
894.308	19849
894.43	19970
894.552	19970
894.674	19894
894.796	19784
894.918	19784
895.04	19868
895.161	19989
895.283	19883
895.405	19803
895.526	19909
895.648	19875
895.769	19944
895.891	19852
896.012	20073
896.134	20027
896.255	19951
896.376	19852
896.498	19837
896.619	19921
896.74	19944
896.861	20035
896.982	20221
897.103	20309
897.224	20195
897.345	20115
897.466	20039
897.587	20138
897.708	20206
897.828	20202
897.949	20081
898.07	19947
898.19	19944
898.311	20176
898.431	19993
898.552	20096
898.672	20096
898.792	20161
898.913	20199
899.033	20039
899.153	19875
899.273	19734
899.393	19887
899.513	19814
899.633	19951
899.753	19921
899.873	19894
899.993	19830
900.113	19795
900.232	19746
900.352	19811
900.472	19738
900.591	19590
900.711	19700
900.83	19601
900.95	19765
901.069	19647
901.189	19495
901.308	19247
901.427	19221
901.546	19221
901.665	19308
901.784	19289
901.904	19168
902.023	18981
902.141	18894
902.26	18837
902.379	18882
902.498	18798
902.617	18783
902.735	18726
902.854	18806
902.973	18703
903.091	18544
903.21	18437
903.328	18376
903.446	18273
903.565	18258
903.683	18266
903.801	18190
903.919	18220
904.038	18171
904.156	18087
904.274	18106
904.392	17980
904.51	18038
904.627	18072
904.745	18053
904.863	18098
904.981	17813
905.098	17703
905.216	17745
905.334	17699
905.451	17745
905.569	17627
905.686	17752
905.803	17638
905.921	17554
906.038	17581
906.155	17391
906.272	17349
906.389	17433
906.506	17208
906.623	17189
906.74	17239
906.857	17045
906.974	17083
907.091	17174
907.208	17364
907.324	17250
907.441	17132
907.557	16976
907.674	17003
907.79	16892
907.907	16896
908.023	17014
908.139	16987
908.256	16930
908.372	16824
908.488	16752
908.604	16694
908.72	16675
908.836	16694
908.952	16683
909.068	16710
909.184	16752
909.3	16611
909.415	16622
909.531	16675
909.647	16512
909.762	16421
909.878	16318
909.993	16360
910.108	16356
910.224	16246
910.339	16379
910.454	16246
910.57	16207
910.685	16116
910.8	16440
910.915	16360
911.03	16249
911.145	16086
911.259	16032
911.374	16025
911.489	15983
911.604	15911
911.718	15793
911.833	15781
911.947	15656
912.062	15488
912.176	15736
912.291	15690
912.405	15686
912.519	15880
912.633	15880
912.748	15766
912.862	15675
912.976	15507
913.09	15351
913.204	15473
913.318	15538
913.431	15610
913.545	15599
913.659	15682
913.772	15542
913.886	15428
914	15272
914.113	15454
914.226	15545
914.34	15412
914.453	15165
914.566	15401
914.68	15287
914.793	15192
914.906	15043
915.019	14967
915.132	14910
915.245	14971
915.358	14994
915.47	15009
915.583	14986
915.696	14967
915.809	15142
915.921	15028
916.034	14960
916.146	14807
916.259	14823
916.371	14971
916.483	14845
916.595	14838
916.708	14849
916.82	14735
916.932	14731
917.044	14735
917.156	14705
917.268	14659
917.38	14689
917.491	14674
917.603	14708
917.715	14689
917.826	14716
917.938	14488
918.049	14537
918.161	14530
918.272	14655
918.384	14640
918.495	14552
918.606	14400
918.717	14415
918.828	14366
918.939	14370
919.05	14362
919.161	14434
919.272	14233
919.383	14290
919.494	14408
919.604	14575
919.715	14450
919.826	14305
919.936	14377
920.047	14404
920.157	14298
920.267	14556
920.378	14309
920.488	14244
920.598	14495
920.708	14640
920.818	14480
920.928	14530
921.038	14606
921.148	14617
921.258	14256
921.368	14317
921.477	14103
921.587	14161
921.697	14001
921.806	14199
921.916	13925
922.025	13818
922.134	13780
922.244	13765
922.353	13772
922.462	13674
922.571	13567
922.68	13411
922.789	13419
922.898	13411
923.007	13381
923.116	13396
923.224	13304
923.333	13240
923.442	13285
923.55	13263
923.659	13331
923.767	13244
923.876	13126
923.984	13183
924.092	13129
924.201	13209
924.309	13088
924.417	13145
924.525	13027
924.633	13110
924.741	13955
924.849	12890
924.956	12962
925.064	12916
925.172	12703
925.279	12833
925.387	12890
925.494	12760
925.602	12806
925.709	12882
925.816	12722
925.924	12875
926.031	12897
926.138	12722
926.245	12814
926.352	12639
926.459	12821
926.566	12856
926.673	12631
926.779	12582
926.886	12521
926.993	12376
927.099	12460
927.206	12388
927.312	12311
927.419	12448
927.525	12350
927.631	12441
927.737	12289
927.843	12262
927.95	12159
928.056	12167
928.162	12311
928.267	12232
928.373	12825
928.479	12308
928.585	12015
928.69	12201
928.796	12273
928.901	12098
929.007	11992
929.112	12045
929.218	12034
929.323	11980
929.428	11882
929.533	12083
929.638	11916
929.743	11878
929.848	11904
929.953	11901
930.058	11748
930.163	11642
930.267	11668
930.372	11748
930.477	11615
930.581	11771
930.685	11665
930.79	11539
930.894	11444
930.998	11459
931.103	11600
931.207	11307
931.311	11174
931.415	11117
931.519	10896
931.623	10904
