Data from test_V78500241_2008.txt Node
Date: Fri Mar 25 15:23:50 CST 2022
User: usil
Spectrometer: V785-0024
Trigger mode: 0
Integration Time (sec): 4.000000E-1
Scans to average: 1
Nonlinearity correction enabled: false
Boxcar width: 0
Storing dark spectrum: false
XAxis mode: Wavelengths
Number of Pixels in Spectrum: 1024
>>>>>Begin Spectral Data<<<<<
801.071	27720
801.214	27789
801.356	27424
801.499	27526
801.641	27458
801.783	27279
801.926	27340
802.068	27382
802.211	27211
802.353	27173
802.496	27074
802.638	26834
802.78	26982
802.923	26960
803.065	26823
803.208	26914
803.35	26937
803.492	27070
803.635	27123
803.777	27123
803.919	27173
804.061	27568
804.204	27203
804.346	27180
804.488	27017
804.63	27207
804.773	27180
804.915	27036
805.057	27268
805.199	27074
805.341	27203
805.483	27287
805.626	27203
805.768	27230
805.91	27275
806.052	27313
806.194	27188
806.336	27321
806.478	27321
806.62	27268
806.762	27389
806.904	27427
807.046	27789
807.188	27705
807.33	27622
807.472	27671
807.614	27705
807.756	27701
807.898	27538
808.04	27625
808.182	27443
808.324	27526
808.465	27739
808.607	27739
808.749	27937
808.891	27987
809.033	28086
809.174	27941
809.316	27850
809.458	27880
809.6	27865
809.741	28032
809.883	27911
810.025	28185
810.166	28257
810.308	28295
810.45	28211
810.591	28219
810.733	27945
810.875	28010
811.016	27797
811.158	27736
811.299	27926
811.441	28166
811.582	28059
811.724	27930
811.865	27873
812.007	27781
812.148	27937
812.29	27987
812.431	28093
812.573	28242
812.714	28276
812.855	28447
812.997	28531
813.138	28733
813.279	28542
813.421	28329
813.562	28333
813.703	28276
813.845	28181
813.986	27876
814.127	27766
814.268	27549
814.41	27515
814.551	27515
814.692	27686
814.833	27542
814.974	27603
815.115	27557
815.256	27397
815.397	27420
815.539	27359
815.68	27427
815.821	27332
815.962	27466
816.103	27420
816.244	27096
816.385	27283
816.526	27104
816.666	26910
816.807	26853
816.948	26853
817.089	27131
817.23	26925
817.371	26861
817.512	26712
817.653	26830
817.793	26682
817.934	26788
818.075	26857
818.216	26830
818.356	26788
818.497	26667
818.638	26594
818.778	26533
818.919	26651
819.06	26598
819.2	26602
819.341	26876
819.481	26853
819.622	26982
819.762	27123
819.903	27055
820.043	27085
820.184	27013
820.324	27024
820.465	26986
820.605	26982
820.746	26777
820.886	26807
821.026	26906
821.167	26724
821.307	27055
821.447	26986
821.588	26758
821.728	26689
821.868	26446
822.008	26404
822.149	26343
822.289	26286
822.429	25974
822.569	26031
822.709	25978
822.849	25731
822.99	25803
823.13	25898
823.27	25784
823.41	25605
823.55	25544
823.69	25681
823.83	25712
823.97	25632
824.11	25392
824.25	25343
824.389	25293
824.529	25540
824.669	25499
824.809	25487
824.949	25578
825.089	25457
825.228	25483
825.368	25400
825.508	25335
825.648	25308
825.787	25392
825.927	25407
826.067	25190
826.206	25293
826.346	25381
826.485	25422
826.625	25362
826.765	25441
826.904	25525
827.044	25217
827.183	25232
827.323	24977
827.462	25217
827.601	25069
827.741	25038
827.88	25042
828.02	24981
828.159	24920
828.298	25080
828.437	25221
828.577	25061
828.716	25145
828.855	24920
828.994	24943
829.134	24833
829.273	24772
829.412	24738
829.551	24623
829.69	24791
829.829	24829
829.968	24886
830.107	24837
830.246	24730
830.385	24806
830.524	24574
830.663	24566
830.802	24426
830.941	24304
831.08	24273
831.219	24566
831.357	24414
831.496	24532
831.635	24365
831.774	24369
831.913	24323
832.051	24209
832.19	24087
832.329	24190
832.467	24117
832.606	24034
832.744	23942
832.883	23942
833.022	24110
833.16	24159
833.299	24152
833.437	23969
833.576	24072
833.714	24045
833.852	24281
833.991	24091
834.129	24102
834.267	24323
834.406	24121
834.544	24121
834.682	24186
834.821	24053
834.959	24186
835.097	24057
835.235	24144
835.373	24117
835.511	24049
835.65	23984
835.788	23866
835.926	23889
836.064	23756
836.202	23760
836.34	24015
836.478	23923
836.615	23954
836.753	23996
836.891	23996
837.029	23935
837.167	23893
837.305	23863
837.443	23771
837.58	23737
837.718	23718
837.856	23737
837.993	23798
838.131	23859
838.269	23638
838.406	23642
838.544	23611
838.681	23410
838.819	23429
838.956	23216
839.094	23277
839.231	23269
839.369	23402
839.506	23585
839.643	23471
839.781	23330
839.918	23162
840.055	23277
840.193	23113
840.33	23235
840.467	23181
840.604	23147
840.742	23478
840.879	22957
841.016	23143
841.153	22999
841.29	23277
841.427	22991
841.564	23242
841.701	23113
841.838	23086
841.975	23098
842.112	23083
842.249	23056
842.385	22885
842.522	23064
842.659	22987
842.796	22862
842.933	22889
843.069	22911
843.206	22919
843.343	22953
843.479	22949
843.616	22995
843.752	22713
843.889	22740
844.025	22831
844.162	22607
844.298	22843
844.435	22774
844.571	22656
844.708	22759
844.844	22987
844.98	22778
845.117	22793
845.253	22634
845.389	22546
845.525	22550
845.661	22596
845.798	22443
845.934	22478
846.07	22413
846.206	22436
846.342	22592
846.478	22462
846.614	22226
846.75	22101
846.886	22230
847.022	22257
847.158	22166
847.294	22192
847.429	22192
847.565	22158
847.701	22363
847.837	21934
847.972	21876
848.108	22013
848.244	22029
848.379	21903
848.515	21701
848.65	21743
848.786	21698
848.921	21797
849.057	21793
849.192	21903
849.328	21728
849.463	21747
849.598	21800
849.734	21587
849.869	21606
850.004	21591
850.14	21564
850.275	21488
850.41	21462
850.545	21496
850.68	21466
850.815	21530
850.95	21534
851.085	21747
851.22	21622
851.355	21526
851.49	21534
851.625	21450
851.76	21530
851.895	21340
852.03	21408
852.165	21496
852.299	21534
852.434	21614
852.569	21504
852.703	21580
852.838	21644
852.973	21614
853.107	21732
853.242	21519
853.376	21382
853.511	21233
853.645	21275
853.78	21439
853.914	21370
854.048	21367
854.183	21256
854.317	21439
854.451	21587
854.585	21351
854.72	21291
854.854	21336
854.988	21359
855.122	21332
855.256	21214
855.39	21386
855.524	21488
855.658	21355
855.792	21424
855.926	21405
856.06	21363
856.194	21530
856.327	21317
856.461	21211
856.595	21245
856.729	21355
856.862	21500
856.996	21572
857.13	21450
857.263	21485
857.397	21526
857.53	21329
857.664	21393
857.797	21313
857.931	21416
858.064	21363
858.197	21477
858.331	21340
858.464	21317
858.597	21298
858.731	21336
858.864	21374
858.997	21363
859.13	21268
859.263	21363
859.396	21477
859.529	21405
859.662	21397
859.795	21336
859.928	21443
860.061	21420
860.194	21637
860.327	21424
860.46	21310
860.592	21561
860.725	21576
860.858	21557
860.99	21389
861.123	21302
861.256	21378
861.388	21260
861.521	22025
861.653	21157
861.786	21066
861.918	21154
862.05	21245
862.183	21329
862.315	21249
862.447	21348
862.58	21252
862.712	21127
862.844	20979
862.976	21203
863.108	21096
863.24	21485
863.372	21112
863.504	21032
863.636	21028
863.768	21020
863.9	21127
864.032	20979
864.164	20975
864.296	21047
864.428	21203
864.559	21024
864.691	21176
864.823	21100
864.954	20982
865.086	21074
865.217	21017
865.349	20842
865.48	20960
865.612	20914
865.743	21028
865.875	20872
866.006	20921
866.137	20982
866.269	21032
866.4	20937
866.531	20876
866.662	20785
866.793	20830
866.924	20925
867.055	20880
867.186	20902
867.317	20845
867.448	20876
867.579	20861
867.71	20674
867.841	20906
867.972	20937
868.103	20979
868.233	20868
868.364	20845
868.495	20975
868.625	21138
868.756	21188
868.886	21211
869.017	21222
869.147	21363
869.278	21195
869.408	21131
869.539	21039
869.669	21089
869.799	21112
869.929	21237
870.06	21272
870.19	21408
870.32	21469
870.45	21561
870.58	21504
870.71	21587
870.84	21625
870.97	21633
871.1	21564
871.23	21759
871.36	21709
871.489	21625
871.619	21709
871.749	21606
871.879	21850
872.008	21789
872.138	21728
872.267	21679
872.397	21728
872.526	21519
872.656	21641
872.785	21568
872.915	21785
873.044	21827
873.173	21873
873.303	21823
873.432	21774
873.561	21918
873.69	21778
873.819	21739
873.948	21850
874.077	21819
874.206	21713
874.335	21743
874.464	21949
874.593	21926
874.722	21884
874.851	22082
874.979	22002
875.108	22032
875.237	21895
875.365	21991
875.494	21945
875.623	22036
875.751	21968
875.88	21907
876.008	21968
876.136	22109
876.265	22398
876.393	22497
876.521	22535
876.65	22432
876.778	22402
876.906	22287
877.034	22390
877.162	22234
877.29	22360
877.418	22299
877.546	22322
877.674	22424
877.802	22272
877.93	22154
878.058	22329
878.185	22109
878.313	22394
878.441	22276
878.568	22158
878.696	22280
878.824	22390
878.951	22344
879.079	22478
879.206	22573
879.333	22394
879.461	22246
879.588	22348
879.715	22497
879.842	22710
879.97	22322
880.097	22044
880.224	22295
880.351	22196
880.478	22188
880.605	22124
880.732	22097
880.859	22428
880.986	22143
881.112	22246
881.239	22044
881.366	21975
881.493	21781
881.619	21667
881.746	21698
881.872	21671
881.999	21732
882.125	21633
882.252	21766
882.378	21663
882.505	21629
882.631	21671
882.757	21435
882.883	21561
883.01	21264
883.136	21348
883.262	21237
883.388	21192
883.514	21481
883.64	21428
883.766	21294
883.892	21207
884.018	21256
884.143	21435
884.269	21412
884.395	21218
884.52	21116
884.646	21020
884.772	20952
884.897	20921
885.023	21077
885.148	21138
885.274	21203
885.399	21131
885.524	21066
885.65	21009
885.775	21123
885.9	20956
886.025	21108
886.15	21119
886.275	21062
886.4	20990
886.525	21013
886.65	21013
886.775	20952
886.9	21108
887.025	21252
887.149	20994
887.274	20800
887.399	20872
887.523	20849
887.648	20788
887.773	20826
887.897	20842
888.021	20937
888.146	20750
888.27	20895
888.395	20956
888.519	20769
888.643	20735
888.767	20853
888.891	20701
889.015	20625
889.139	20625
889.263	20549
889.387	20743
889.511	20864
889.635	20815
889.759	20549
889.883	20514
890.006	20621
890.13	20845
890.254	20541
890.377	20503
890.501	20362
890.624	20298
890.748	20419
890.871	20221
890.995	20210
891.118	20111
891.241	20172
891.364	20286
891.488	20176
891.611	20145
891.734	20244
891.857	20339
891.98	20134
892.103	20298
892.226	20157
892.349	20187
892.471	20031
892.594	20084
892.717	20111
892.839	20012
892.962	20031
893.085	20126
893.207	20031
893.33	20107
893.452	20016
893.575	20176
893.697	20119
893.819	20290
893.941	20256
894.064	20271
894.186	20077
894.308	20084
894.43	20191
894.552	20278
894.674	20088
894.796	20145
894.918	20073
895.04	20077
895.161	20130
895.283	20183
895.405	20100
895.526	20122
895.648	20001
895.769	20199
895.891	20084
896.012	20218
896.134	20240
896.255	20145
896.376	20153
896.498	20180
896.619	20111
896.74	20153
896.861	20191
896.982	20492
897.103	20571
897.224	20332
897.345	20313
897.466	20263
897.587	20278
897.708	20549
897.828	20427
897.949	20381
898.07	20221
898.19	20309
898.311	20393
898.431	20328
898.552	20381
898.672	20434
898.792	20343
898.913	20366
899.033	20138
899.153	20195
899.273	20012
899.393	20111
899.513	20206
899.633	20043
899.753	20233
899.873	20050
899.993	20134
900.113	20031
900.232	20050
900.352	19974
900.472	19982
900.591	19849
900.711	19750
900.83	19841
900.95	19982
901.069	20081
901.189	19750
901.308	19556
901.427	19362
901.546	19419
901.665	19426
901.784	19392
901.904	19362
902.023	19194
902.141	19080
902.26	18993
902.379	18966
902.498	19000
902.617	18977
902.735	18989
902.854	18970
902.973	18890
903.091	18612
903.21	18639
903.328	18646
903.446	18532
903.565	18475
903.683	18399
903.801	18330
903.919	18429
904.038	18475
904.156	18163
904.274	18277
904.392	18224
904.51	18159
904.627	18209
904.745	18254
904.863	18334
904.981	18038
905.098	17874
905.216	17961
905.334	17904
905.451	17878
905.569	17836
905.686	17923
905.803	17859
905.921	17726
906.038	17714
906.155	17729
906.272	17570
906.389	17535
906.506	17482
906.623	17497
906.74	17379
906.857	17273
906.974	17296
907.091	17501
907.208	17554
907.324	17353
907.441	17356
907.557	17147
907.674	17227
907.79	17109
907.907	17075
908.023	17178
908.139	17098
908.256	17025
908.372	17060
908.488	17083
908.604	16968
908.72	16816
908.836	16904
908.952	16809
909.068	16820
909.184	16911
909.3	16790
909.415	16862
909.531	16812
909.647	16656
909.762	16664
909.878	16569
909.993	16634
910.108	16558
910.224	16550
910.339	16580
910.454	16436
910.57	16200
910.685	16344
910.8	16519
910.915	16504
911.03	16424
911.145	16219
911.259	16188
911.374	16204
911.489	16162
911.604	15994
911.718	15915
911.833	15804
911.947	15732
912.062	15770
912.176	15743
912.291	15915
912.405	15812
912.519	16032
912.633	16067
912.748	15846
912.862	15907
912.976	15690
913.09	15572
913.204	15644
913.318	15637
913.431	15778
913.545	15816
913.659	15759
913.772	15671
913.886	15564
914	15538
914.113	15656
914.226	15538
914.34	15580
914.453	15363
914.566	15481
914.68	15454
914.793	15443
914.906	15237
915.019	15131
915.132	14998
915.245	15131
915.358	15074
915.47	15066
915.583	15146
915.696	14971
915.809	15184
915.921	15272
916.034	15112
916.146	14982
916.259	15043
916.371	15074
916.483	15112
916.595	14933
916.708	14918
916.82	14994
916.932	14899
917.044	14998
917.156	14861
917.268	14697
917.38	14743
917.491	14800
917.603	14693
917.715	14910
917.826	14872
917.938	14693
918.049	14621
918.161	14769
918.272	14796
918.384	14773
918.495	14739
918.606	14442
918.717	14476
918.828	14545
918.939	14518
919.05	14343
919.161	14454
919.272	14282
919.383	14332
919.494	14613
919.604	14716
919.715	14488
919.826	14324
919.936	14526
920.047	14590
920.157	14522
920.267	14667
920.378	14469
920.488	14400
920.598	14712
920.708	14819
920.818	14556
920.928	14575
921.038	14667
921.148	14720
921.258	14404
921.368	14423
921.477	14286
921.587	14237
921.697	14024
921.806	14263
921.916	14065
922.025	13963
922.134	13932
922.244	13833
922.353	13936
922.462	13807
922.571	13674
922.68	13601
922.789	13502
922.898	13540
923.007	13495
923.116	13518
923.224	13582
923.333	13556
923.442	13487
923.55	13365
923.659	13365
923.767	13411
923.876	13354
923.984	13301
924.092	13263
924.201	13274
924.309	13244
924.417	13289
924.525	13206
924.633	13202
924.741	13940
924.849	12996
924.956	13149
925.064	12947
925.172	12764
925.279	12882
925.387	13019
925.494	12962
925.602	13069
925.709	13008
925.816	12821
925.924	12890
926.031	12966
926.138	12859
926.245	12973
926.352	12749
926.459	12829
926.566	13004
926.673	12859
926.779	12692
926.886	12726
926.993	12570
927.099	12502
927.206	12490
927.312	12448
927.419	12517
927.525	12509
927.631	12544
927.737	12330
927.843	12315
927.95	12277
928.056	12426
928.162	12338
928.267	12384
928.373	12932
928.479	12292
928.585	12083
928.69	12232
928.796	12350
928.901	12220
929.007	12068
929.112	12026
929.218	12155
929.323	12079
929.428	12007
929.533	12175
929.638	11954
929.743	12022
929.848	12049
929.953	11927
930.058	11984
930.163	11729
930.267	11752
930.372	11866
930.477	11722
930.581	11950
930.685	11748
930.79	11627
930.894	11596
930.998	11627
931.103	11748
931.207	11349
931.311	11330
931.415	11254
931.519	11033
931.623	11006
