Data from test_V78500241_1892.txt Node
Date: Fri Mar 25 15:23:01 CST 2022
User: usil
Spectrometer: V785-0024
Trigger mode: 0
Integration Time (sec): 4.000000E-1
Scans to average: 1
Nonlinearity correction enabled: false
Boxcar width: 0
Storing dark spectrum: false
XAxis mode: Wavelengths
Number of Pixels in Spectrum: 1024
>>>>>Begin Spectral Data<<<<<
801.071	27895
801.214	27705
801.356	27553
801.499	27454
801.641	27363
801.783	27192
801.926	27367
802.068	27382
802.211	27336
802.353	27154
802.496	27093
802.638	27112
802.78	26967
802.923	26807
803.065	26823
803.208	26967
803.35	26872
803.492	27070
803.635	27138
803.777	27039
803.919	27123
804.061	27291
804.204	27154
804.346	27150
804.488	27085
804.63	27089
804.773	27074
804.915	27154
805.057	27260
805.199	27093
805.341	27211
805.483	27302
805.626	27283
805.768	27237
805.91	27249
806.052	27279
806.194	27245
806.336	27348
806.478	27363
806.62	27268
806.762	27466
806.904	27549
807.046	27808
807.188	27743
807.33	27629
807.472	27644
807.614	27656
807.756	27660
807.898	27667
808.04	27606
808.182	27519
808.324	27644
808.465	27599
808.607	27713
808.749	27903
808.891	27994
809.033	28093
809.174	27972
809.316	27774
809.458	27941
809.6	27987
809.741	28070
809.883	28074
810.025	28276
810.166	28230
810.308	28413
810.45	28158
810.591	28143
810.733	27926
810.875	27762
811.016	27728
811.158	27743
811.299	27975
811.441	27964
811.582	27964
811.724	27865
811.865	27956
812.007	27766
812.148	27888
812.29	27994
812.431	27979
812.573	28204
812.714	28284
812.855	28417
812.997	28550
813.138	28733
813.279	28538
813.421	28489
813.562	28390
813.703	28310
813.845	28112
813.986	27842
814.127	27694
814.268	27447
814.41	27637
814.551	27682
814.692	27679
814.833	27515
814.974	27671
815.115	27595
815.256	27454
815.397	27519
815.539	27488
815.68	27344
815.821	27363
815.962	27401
816.103	27310
816.244	27188
816.385	27188
816.526	27058
816.666	26937
816.807	26845
816.948	26914
817.089	26994
817.23	26754
817.371	26724
817.512	26826
817.653	26842
817.793	26804
817.934	26811
818.075	26792
818.216	26906
818.356	26804
818.497	26724
818.638	26606
818.778	26629
818.919	26583
819.06	26678
819.2	26777
819.341	26796
819.481	26891
819.622	26902
819.762	27222
819.903	27055
820.043	27081
820.184	26956
820.324	27001
820.465	26990
820.605	26940
820.746	27009
820.886	26845
821.026	26952
821.167	26781
821.307	26994
821.447	26971
821.588	26830
821.728	26678
821.868	26366
822.008	26358
822.149	26362
822.289	26362
822.429	26039
822.569	26092
822.709	25959
822.849	25959
822.99	25818
823.13	25830
823.27	25719
823.41	25685
823.55	25590
823.69	25742
823.83	25715
823.97	25594
824.11	25552
824.25	25479
824.389	25438
824.529	25704
824.669	25556
824.809	25772
824.949	25578
825.089	25521
825.228	25597
825.368	25327
825.508	25209
825.648	25411
825.787	25419
825.927	25445
826.067	25312
826.206	25339
826.346	25479
826.485	25400
826.625	25441
826.765	25559
826.904	25388
827.044	25160
827.183	25080
827.323	25118
827.462	25198
827.601	25141
827.741	25148
827.88	25175
828.02	24989
828.159	25015
828.298	25225
828.437	25107
828.577	25008
828.716	25110
828.855	25061
828.994	24905
829.134	24825
829.273	24897
829.412	24738
829.551	24768
829.69	24806
829.829	24871
829.968	25023
830.107	24875
830.246	24738
830.385	24749
830.524	24825
830.663	24665
830.802	24475
830.941	24525
831.08	24384
831.219	24471
831.357	24479
831.496	24753
831.635	24486
831.774	24433
831.913	24311
832.051	24220
832.19	24182
832.329	24209
832.467	24197
832.606	24064
832.744	24087
832.883	24114
833.022	24117
833.16	24015
833.299	24083
833.437	24117
833.576	24129
833.714	24129
833.852	24300
833.991	24285
834.129	24209
834.267	24220
834.406	24220
834.544	24239
834.682	24262
834.821	24182
834.959	24285
835.097	24251
835.235	24239
835.373	24174
835.511	24121
835.65	24110
835.788	24060
835.926	23813
836.064	23863
836.202	23889
836.34	24034
836.478	24015
836.615	23832
836.753	23939
836.891	24098
837.029	23992
837.167	23965
837.305	23999
837.443	23946
837.58	23870
837.718	23923
837.856	23878
837.993	23764
838.131	23939
838.269	23756
838.406	23786
838.544	23611
838.681	23524
838.819	23566
838.956	23242
839.094	23353
839.231	23261
839.369	23459
839.506	23756
839.643	23661
839.781	23322
839.918	23330
840.055	23162
840.193	23280
840.33	23220
840.467	23326
840.604	23280
840.742	23615
840.879	23067
841.016	23200
841.153	23071
841.29	23280
841.427	23185
841.564	23250
841.701	23284
841.838	23227
841.975	23193
842.112	23170
842.249	23041
842.385	23029
842.522	23212
842.659	23071
842.796	22786
842.933	22991
843.069	22908
843.206	22965
843.343	23105
843.479	22968
843.616	23109
843.752	22797
843.889	22824
844.025	22938
844.162	22778
844.298	22881
844.435	22839
844.571	22805
844.708	22835
844.844	22984
844.98	22885
845.117	22965
845.253	22687
845.389	22649
845.525	22664
845.661	22641
845.798	22432
845.934	22531
846.07	22497
846.206	22527
846.342	22531
846.478	22512
846.614	22360
846.75	22390
846.886	22337
847.022	22318
847.158	22440
847.294	22272
847.429	22261
847.565	22204
847.701	22542
847.837	22048
847.972	22002
848.108	22246
848.244	22017
848.379	21876
848.515	21759
848.65	21778
848.786	21846
848.921	21789
849.057	21903
849.192	21812
849.328	21808
849.463	21793
849.598	21895
849.734	21751
849.869	21724
850.004	21568
850.14	21587
850.275	21701
850.41	21675
850.545	21545
850.68	21595
850.815	21644
850.95	21694
851.085	21804
851.22	21781
851.355	21538
851.49	21629
851.625	21690
851.76	21587
851.895	21511
852.03	21416
852.165	21663
852.299	21603
852.434	21671
852.569	21648
852.703	21534
852.838	21728
852.973	21751
853.107	21644
853.242	21492
853.376	21355
853.511	21264
853.645	21336
853.78	21504
853.914	21530
854.048	21439
854.183	21405
854.317	21428
854.451	21663
854.585	21530
854.72	21496
854.854	21507
854.988	21393
855.122	21488
855.256	21268
855.39	21458
855.524	21397
855.658	21408
855.792	21549
855.926	21378
856.06	21603
856.194	21633
856.327	21355
856.461	21332
856.595	21306
856.729	21393
856.862	21488
856.996	21515
857.13	21583
857.263	21553
857.397	21485
857.53	21401
857.664	21545
857.797	21519
857.931	21557
858.064	21431
858.197	21580
858.331	21393
858.464	21340
858.597	21329
858.731	21488
858.864	21359
858.997	21443
859.13	21488
859.263	21401
859.396	21515
859.529	21393
859.662	21329
859.795	21325
859.928	21473
860.061	21679
860.194	21610
860.327	21439
860.46	21336
860.592	21553
860.725	21728
860.858	21572
860.99	21488
861.123	21382
861.256	21386
861.388	21515
861.521	22128
861.653	21382
861.786	21184
861.918	21355
862.05	21317
862.183	21310
862.315	21469
862.447	21454
862.58	21348
862.712	21214
862.844	21047
862.976	21218
863.108	21252
863.24	21454
863.372	21058
863.504	21233
863.636	21093
863.768	21260
863.9	21268
864.032	20971
864.164	20979
864.296	21142
864.428	21279
864.559	21195
864.691	21165
864.823	21058
864.954	21077
865.086	21161
865.217	21070
865.349	21024
865.48	21032
865.612	21066
865.743	21089
865.875	21085
866.006	20853
866.137	20986
866.269	20952
866.4	21077
866.531	21028
866.662	21024
866.793	20925
866.924	20929
867.055	20975
867.186	21020
867.317	20876
867.448	20918
867.579	20990
867.71	20804
867.841	21017
867.972	21009
868.103	20960
868.233	20952
868.364	20861
868.495	20975
868.625	21173
868.756	21340
868.886	21222
869.017	21192
869.147	21287
869.278	21321
869.408	21230
869.539	21207
869.669	21344
869.799	21283
869.929	21317
870.06	21405
870.19	21553
870.32	21458
870.45	21583
870.58	21477
870.71	21705
870.84	21686
870.97	21591
871.1	21553
871.23	21736
871.36	21915
871.489	21743
871.619	21736
871.749	21854
871.879	21789
872.008	21930
872.138	21915
872.267	21827
872.397	21686
872.526	21523
872.656	21606
872.785	21625
872.915	21873
873.044	21937
873.173	21888
873.303	21911
873.432	21907
873.561	21915
873.69	21941
873.819	21873
873.948	21960
874.077	21899
874.206	21766
874.335	21732
874.464	21987
874.593	22162
874.722	21998
874.851	22139
874.979	21998
875.108	22135
875.237	21956
875.365	21930
875.494	22128
875.623	22143
875.751	22044
875.88	22040
876.008	22048
876.136	22154
876.265	22398
876.393	22531
876.521	22542
876.65	22432
876.778	22421
876.906	22295
877.034	22402
877.162	22284
877.29	22455
877.418	22405
877.546	22348
877.674	22470
877.802	22394
877.93	22367
878.058	22356
878.185	22284
878.313	22360
878.441	22344
878.568	22185
878.696	22382
878.824	22360
878.951	22546
879.079	22554
879.206	22645
879.333	22493
879.461	22459
879.588	22466
879.715	22500
879.842	22656
879.97	22470
880.097	22291
880.224	22181
880.351	22310
880.478	22162
880.605	22207
880.732	22223
880.859	22421
880.986	22223
881.112	22196
881.239	22109
881.366	21854
881.493	21960
881.619	21743
881.746	21854
881.872	21804
881.999	21827
882.125	21747
882.252	21838
882.378	21766
882.505	21835
882.631	21667
882.757	21545
882.883	21622
883.01	21435
883.136	21549
883.262	21367
883.388	21435
883.514	21412
883.64	21477
883.766	21466
883.892	21252
884.018	21355
884.143	21447
884.269	21443
884.395	21241
884.52	21157
884.646	21184
884.772	21074
884.897	21013
885.023	21157
885.148	21123
885.274	21313
885.399	21214
885.524	21142
885.65	21104
885.775	21165
885.9	21058
886.025	21268
886.15	21252
886.275	21066
886.4	21051
886.525	21089
886.65	21036
886.775	21001
886.9	21169
887.025	21275
887.149	21157
887.274	20872
887.399	20975
887.523	20891
887.648	20880
887.773	20838
887.897	20998
888.021	20956
888.146	20765
888.27	20925
888.395	20902
888.519	20845
888.643	20769
888.767	20811
888.891	20785
889.015	20716
889.139	20743
889.263	20606
889.387	20800
889.511	20750
889.635	20979
889.759	20568
889.883	20644
890.006	20708
890.13	20804
890.254	20609
890.377	20564
890.501	20423
890.624	20461
890.748	20549
890.871	20336
890.995	20336
891.118	20153
891.241	20339
891.364	20317
891.488	20339
891.611	20229
891.734	20309
891.857	20324
891.98	20271
892.103	20362
892.226	20221
892.349	20157
892.471	20031
892.594	20294
892.717	20191
892.839	20103
892.962	20138
893.085	20278
893.207	20100
893.33	20084
893.452	20225
893.575	20221
893.697	20142
893.819	20294
893.941	20431
894.064	20313
894.186	20062
894.308	20176
894.43	20271
894.552	20240
894.674	20244
894.796	20107
894.918	20111
895.04	20046
895.161	20202
895.283	20290
895.405	20073
895.526	20126
895.648	20180
895.769	20115
895.891	20237
896.012	20294
896.134	20164
896.255	20191
896.376	20088
896.498	20202
896.619	20301
896.74	20073
896.861	20206
896.982	20503
897.103	20492
897.224	20419
897.345	20267
897.466	20195
897.587	20461
897.708	20454
897.828	20465
897.949	20259
898.07	20339
898.19	20244
898.311	20370
898.431	20347
898.552	20381
898.672	20343
898.792	20457
898.913	20370
899.033	20286
899.153	20130
899.273	20054
899.393	20111
899.513	20058
899.633	20153
899.753	20157
899.873	20088
899.993	20206
900.113	20020
900.232	20088
900.352	19970
900.472	19936
900.591	19860
900.711	19921
900.83	19795
900.95	19864
901.069	19864
901.189	19833
901.308	19506
901.427	19441
901.546	19487
901.665	19506
901.784	19392
901.904	19377
902.023	19194
902.141	19110
902.26	19046
902.379	19034
902.498	19023
902.617	18981
902.735	19072
902.854	18993
902.973	18829
903.091	18658
903.21	18700
903.328	18616
903.446	18593
903.565	18433
903.683	18486
903.801	18361
903.919	18376
904.038	18315
904.156	18338
904.274	18403
904.392	18289
904.51	18190
904.627	18159
904.745	18152
904.863	18289
904.981	18003
905.098	17882
905.216	17927
905.334	17954
905.451	17927
905.569	17904
905.686	17840
905.803	17920
905.921	17726
906.038	17680
906.155	17783
906.272	17646
906.389	17680
906.506	17463
906.623	17509
906.74	17353
906.857	17387
906.974	17356
907.091	17463
907.208	17493
907.324	17436
907.441	17383
907.557	17273
907.674	17079
907.79	17113
907.907	17132
908.023	17159
908.139	17143
908.256	17143
908.372	17022
908.488	16904
908.604	16847
908.72	16915
908.836	16801
908.952	16824
909.068	16892
909.184	16991
909.3	16767
909.415	17022
909.531	16873
909.647	16622
909.762	16622
909.878	16554
909.993	16569
910.108	16645
910.224	16649
910.339	16580
910.454	16577
910.57	16299
910.685	16379
910.8	16592
910.915	16455
911.03	16428
911.145	16238
911.259	16169
911.374	16143
911.489	16078
911.604	15975
911.718	15937
911.833	15880
911.947	15835
912.062	15686
912.176	15968
912.291	15797
912.405	15926
912.519	16071
912.633	16078
912.748	15903
912.862	15975
912.976	15705
913.09	15682
913.204	15717
913.318	15656
913.431	15816
913.545	15892
913.659	15819
913.772	15618
913.886	15587
914	15481
914.113	15595
914.226	15633
914.34	15488
914.453	15416
914.566	15606
914.68	15492
914.793	15359
914.906	15226
915.019	15233
915.132	14994
915.245	15218
915.358	15123
915.47	15154
915.583	15146
915.696	15180
915.809	15355
915.921	15226
916.034	15070
916.146	15074
916.259	15047
916.371	15039
916.483	15020
916.595	14918
916.708	14967
916.82	14967
916.932	14891
917.044	14876
917.156	14925
917.268	14826
917.38	14788
917.491	14777
917.603	14819
917.715	14887
917.826	14785
917.938	14648
918.049	14686
918.161	14731
918.272	14819
918.384	14902
918.495	14735
918.606	14644
918.717	14503
918.828	14556
918.939	14636
919.05	14495
919.161	14492
919.272	14229
919.383	14423
919.494	14537
919.604	14750
919.715	14651
919.826	14450
919.936	14480
920.047	14530
920.157	14419
920.267	14682
920.378	14537
920.488	14431
920.598	14651
920.708	14861
920.818	14590
920.928	14678
921.038	14830
921.148	14777
921.258	14507
921.368	14298
921.477	14256
921.587	14225
921.697	14100
921.806	14240
921.916	14149
922.025	13970
922.134	13936
922.244	13791
922.353	13997
922.462	13852
922.571	13651
922.68	13476
922.789	13556
922.898	13548
923.007	13419
923.116	13567
923.224	13544
923.333	13460
923.442	13373
923.55	13373
923.659	13400
923.767	13502
923.876	13244
923.984	13263
924.092	13304
924.201	13392
924.309	13285
924.417	13320
924.525	13107
924.633	13179
924.741	14115
924.849	12966
924.956	13156
925.064	12993
925.172	12920
925.279	12958
925.387	13042
925.494	12970
925.602	13015
925.709	12943
925.816	12802
925.924	12848
926.031	12897
926.138	12890
926.245	12916
926.352	12783
926.459	12882
926.566	12973
926.673	12711
926.779	12681
926.886	12810
926.993	12593
927.099	12547
927.206	12517
927.312	12448
927.419	12551
927.525	12536
927.631	12517
927.737	12346
927.843	12327
927.95	12251
928.056	12266
928.162	12330
928.267	12285
928.373	12913
928.479	12456
928.585	12110
928.69	12361
928.796	12376
928.901	12235
929.007	12041
929.112	12220
929.218	12106
929.323	12159
929.428	12030
929.533	12171
929.638	11950
929.743	11999
929.848	12019
929.953	12022
930.058	11874
930.163	11718
930.267	11767
930.372	11901
930.477	11707
930.581	11889
930.685	11794
930.79	11596
930.894	11623
930.998	11558
931.103	11691
931.207	11356
931.311	11360
931.415	11208
931.519	11022
931.623	11067
