Data from test_V78500241_1150.txt Node
Date: Fri Mar 25 15:17:51 CST 2022
User: usil
Spectrometer: V785-0024
Trigger mode: 0
Integration Time (sec): 4.000000E-1
Scans to average: 1
Nonlinearity correction enabled: false
Boxcar width: 0
Storing dark spectrum: false
XAxis mode: Wavelengths
Number of Pixels in Spectrum: 1024
>>>>>Begin Spectral Data<<<<<
801.071	28272
801.214	28188
801.356	28124
801.499	27895
801.641	27857
801.783	27781
801.926	27983
802.068	27770
802.211	27766
802.353	27732
802.496	27454
802.638	27511
802.78	27500
802.923	27576
803.065	27507
803.208	27519
803.35	27530
803.492	27660
803.635	27705
803.777	27545
803.919	27819
804.061	28013
804.204	27842
804.346	27671
804.488	27637
804.63	27739
804.773	27717
804.915	27652
805.057	27861
805.199	27895
805.341	27846
805.483	27907
805.626	27918
805.768	27739
805.91	27827
806.052	27880
806.194	27827
806.336	28017
806.478	27823
806.62	27922
806.762	28044
806.904	28177
807.046	28348
807.188	28325
807.33	28086
807.472	28341
807.614	28253
807.756	28173
807.898	28086
808.04	28078
808.182	28181
808.324	28150
808.465	28139
808.607	28280
808.749	28519
808.891	28516
809.033	28820
809.174	28634
809.316	28599
809.458	28531
809.6	28478
809.741	28694
809.883	28687
810.025	28896
810.166	28767
810.308	28873
810.45	28771
810.591	28733
810.733	28634
810.875	28466
811.016	28432
811.158	28405
811.299	28683
811.441	28702
811.582	28618
811.724	28516
811.865	28481
812.007	28577
812.148	28634
812.29	28561
812.431	28831
812.573	28854
812.714	28930
812.855	29056
812.997	29079
813.138	29330
813.279	29216
813.421	29105
813.562	29033
813.703	29060
813.845	28847
813.986	28599
814.127	28356
814.268	28318
814.41	28371
814.551	28181
814.692	28284
814.833	28109
814.974	28158
815.115	28097
815.256	28048
815.397	28116
815.539	28109
815.68	28093
815.821	28032
815.962	28112
816.103	28040
816.244	27922
816.385	27895
816.526	27743
816.666	27819
816.807	27530
816.948	27709
817.089	27728
817.23	27694
817.371	27526
817.512	27481
817.653	27580
817.793	27587
817.934	27534
818.075	27660
818.216	27507
818.356	27538
818.497	27454
818.638	27298
818.778	27249
818.919	27302
819.06	27435
819.2	27427
819.341	27564
819.481	27477
819.622	27743
819.762	27918
819.903	27983
820.043	27701
820.184	27850
820.324	27629
820.465	27637
820.605	27568
820.746	27709
820.886	27519
821.026	27625
821.167	27774
821.307	27739
821.447	27534
821.588	27458
821.728	27412
821.868	27112
822.008	27062
822.149	27119
822.289	27070
822.429	26807
822.569	26743
822.709	26777
822.849	26667
822.99	26606
823.13	26415
823.27	26381
823.41	26336
823.55	26446
823.69	26336
823.83	26423
823.97	26480
824.11	26199
824.25	26237
824.389	26191
824.529	26332
824.669	26244
824.809	26271
824.949	26180
825.089	26389
825.228	26298
825.368	26069
825.508	26035
825.648	26157
825.787	26100
825.927	26191
826.067	26077
826.206	25947
826.346	26134
826.485	26149
826.625	26134
826.765	26282
826.904	26088
827.044	25879
827.183	25788
827.323	25693
827.462	25849
827.601	25814
827.741	25917
827.88	25791
828.02	25727
828.159	25913
828.298	25875
828.437	25883
828.577	25689
828.716	25856
828.855	25795
828.994	25620
829.134	25643
829.273	25506
829.412	25548
829.551	25514
829.69	25518
829.829	25670
829.968	25620
830.107	25658
830.246	25521
830.385	25559
830.524	25388
830.663	25434
830.802	25206
830.941	25114
831.08	25114
831.219	25175
831.357	25217
831.496	25362
831.635	25141
831.774	25004
831.913	25065
832.051	24932
832.19	24951
832.329	24859
832.467	24837
832.606	24798
832.744	24730
832.883	24833
833.022	24798
833.16	24833
833.299	24817
833.437	24932
833.576	24897
833.714	24920
833.852	24886
833.991	25084
834.129	25042
834.267	24951
834.406	24734
834.544	24909
834.682	24863
834.821	24901
834.959	24920
835.097	24825
835.235	24821
835.373	24924
835.511	24916
835.65	24829
835.788	24779
835.926	24703
836.064	24536
836.202	24555
836.34	24700
836.478	24783
836.615	24719
836.753	24776
836.891	24928
837.029	24707
837.167	24639
837.305	24707
837.443	24566
837.58	24528
837.718	24597
837.856	24639
837.993	24464
838.131	24414
838.269	24429
838.406	24509
838.544	24395
838.681	24247
838.819	24121
838.956	24163
839.094	24064
839.231	24114
839.369	24216
839.506	24456
839.643	24292
839.781	23999
839.918	23931
840.055	24144
840.193	24060
840.33	23996
840.467	24057
840.604	24114
840.742	24224
840.879	23851
841.016	23794
841.153	23843
841.29	24121
841.427	23946
841.564	23969
841.701	23927
841.838	23969
841.975	23824
842.112	23703
842.249	23786
842.385	23668
842.522	23786
842.659	23805
842.796	23748
842.933	23783
843.069	23661
843.206	23718
843.343	23726
843.479	23775
843.616	23604
843.752	23627
843.889	23463
844.025	23577
844.162	23440
844.298	23642
844.435	23497
844.571	23501
844.708	23440
844.844	23547
844.98	23653
845.117	23638
845.253	23459
845.389	23299
845.525	23383
845.661	23364
845.798	23170
845.934	23223
846.07	23132
846.206	23174
846.342	23368
846.478	23235
846.614	23044
846.75	22934
846.886	22942
847.022	22965
847.158	23003
847.294	22946
847.429	22923
847.565	22900
847.701	23094
847.837	22744
847.972	22755
848.108	22816
848.244	22691
848.379	22584
848.515	22538
848.65	22516
848.786	22542
848.921	22542
849.057	22634
849.192	22675
849.328	22451
849.463	22512
849.598	22478
849.734	22538
849.869	22371
850.004	22318
850.14	22394
850.275	22363
850.41	22238
850.545	22226
850.68	22242
850.815	22405
850.95	22219
851.085	22523
851.22	22440
851.355	22356
851.49	22261
851.625	22173
851.76	22253
851.895	22299
852.03	22257
852.165	22272
852.299	22173
852.434	22337
852.569	22333
852.703	22230
852.838	22360
852.973	22443
853.107	22375
853.242	22295
853.376	22105
853.511	22021
853.645	22070
853.78	22181
853.914	22150
854.048	22029
854.183	22086
854.317	22150
854.451	22333
854.585	22105
854.72	22139
854.854	22211
854.988	22067
855.122	22105
855.256	22090
855.39	22063
855.524	22291
855.658	22219
855.792	22173
855.926	22025
856.06	22196
856.194	22188
856.327	22158
856.461	22055
856.595	22162
856.729	22097
856.862	22219
856.996	22238
857.13	22116
857.263	22200
857.397	22173
857.53	22063
857.664	22131
857.797	22253
857.931	22310
858.064	22124
858.197	22120
858.331	22010
858.464	22055
858.597	22131
858.731	22040
858.864	22063
858.997	22082
859.13	22059
859.263	22173
859.396	22173
859.529	22097
859.662	22055
859.795	21960
859.928	21994
860.061	22215
860.194	22402
860.327	22265
860.46	22147
860.592	22265
860.725	22268
860.858	22287
860.99	22097
861.123	22131
861.256	22067
861.388	22070
861.521	22896
861.653	22010
861.786	21789
861.918	22029
862.05	21991
862.183	22101
862.315	22074
862.447	21998
862.58	22059
862.712	21884
862.844	21831
862.976	21869
863.108	21785
863.24	22261
863.372	21789
863.504	21861
863.636	21781
863.768	21785
863.9	21766
864.032	21755
864.164	21797
864.296	21846
864.428	22090
864.559	21937
864.691	21880
864.823	21827
864.954	21808
865.086	21827
865.217	21663
865.349	21739
865.48	21736
865.612	21625
865.743	21774
865.875	21694
866.006	21633
866.137	21781
866.269	21732
866.4	21694
866.531	21557
866.662	21641
866.793	21523
866.924	21595
867.055	21660
867.186	21610
867.317	21606
867.448	21633
867.579	21587
867.71	21618
867.841	21488
867.972	21557
868.103	21618
868.233	21633
868.364	21504
868.495	21671
868.625	21823
868.756	22010
868.886	21831
869.017	21854
869.147	22006
869.278	22036
869.408	21850
869.539	21922
869.669	22013
869.799	21972
869.929	22032
870.06	22010
870.19	22116
870.32	22135
870.45	22238
870.58	22299
870.71	22481
870.84	22356
870.97	22154
871.1	22337
871.23	22390
871.36	22443
871.489	22352
871.619	22348
871.749	22440
871.879	22497
872.008	22611
872.138	22432
872.267	22523
872.397	22192
872.526	22173
872.656	22337
872.785	22306
872.915	22421
873.044	22577
873.173	22527
873.303	22432
873.432	22508
873.561	22660
873.69	22550
873.819	22462
873.948	22622
874.077	22531
874.206	22375
874.335	22500
874.464	22440
874.593	22565
874.722	22660
874.851	22615
874.979	22710
875.108	22748
875.237	22618
875.365	22535
875.494	22512
875.623	22858
875.751	22649
875.88	22759
876.008	22687
876.136	22873
876.265	23064
876.393	23147
876.521	23208
876.65	23117
876.778	23037
876.906	22949
877.034	23033
877.162	22972
877.29	23003
877.418	23029
877.546	23064
877.674	23044
877.802	23083
877.93	23006
878.058	22915
878.185	22854
878.313	22987
878.441	22987
878.568	22923
878.696	22972
878.824	22919
878.951	23128
879.079	23311
879.206	23303
879.333	23102
879.461	22987
879.588	23143
879.715	23128
879.842	23296
879.97	23052
880.097	22782
880.224	22961
880.351	22850
880.478	22949
880.605	22923
880.732	22755
880.859	23102
880.986	22873
881.112	22900
881.239	22744
881.366	22500
881.493	22478
881.619	22413
881.746	22470
881.872	22481
881.999	22310
882.125	22295
882.252	22394
882.378	22459
882.505	22569
882.631	22325
882.757	22162
882.883	22173
883.01	22143
883.136	22078
883.262	21953
883.388	21945
883.514	22105
883.64	22131
883.766	21968
883.892	21911
884.018	21983
884.143	21869
884.269	22158
884.395	21869
884.52	21644
884.646	21759
884.772	21682
884.897	21580
885.023	21644
885.148	21743
885.274	21968
885.399	21778
885.524	21770
885.65	21739
885.775	21762
885.9	21614
886.025	21770
886.15	21926
886.275	21698
886.4	21667
886.525	21656
886.65	21679
886.775	21766
886.9	21759
887.025	21918
887.149	21667
887.274	21641
887.399	21435
887.523	21458
887.648	21401
887.773	21481
887.897	21580
888.021	21637
888.146	21477
888.27	21705
888.395	21595
888.519	21511
888.643	21412
888.767	21496
888.891	21351
889.015	21313
889.139	21382
889.263	21260
889.387	21450
889.511	21477
889.635	21382
889.759	21348
889.883	21272
890.006	21367
890.13	21389
890.254	21275
890.377	21169
890.501	21157
890.624	20963
890.748	21085
890.871	21005
890.995	20880
891.118	20800
891.241	20963
891.364	20895
891.488	20948
891.611	20948
891.734	20864
891.857	20758
891.98	20887
892.103	20971
892.226	20849
892.349	20845
892.471	20598
892.594	20621
892.717	20651
892.839	20777
892.962	20781
893.085	20895
893.207	20724
893.33	20602
893.452	20712
893.575	20731
893.697	20765
893.819	20929
893.941	20944
894.064	20750
894.186	20682
894.308	20735
894.43	20796
894.552	20853
894.674	20883
894.796	20636
894.918	20636
895.04	20651
895.161	20746
895.283	20739
895.405	20739
895.526	20765
895.648	20689
895.769	20853
895.891	20788
896.012	20876
896.134	20758
896.255	20823
896.376	20590
896.498	20678
896.619	20800
896.74	20670
896.861	20804
896.982	21017
897.103	21222
897.224	21032
897.345	20902
897.466	20880
897.587	21009
897.708	21024
897.828	21013
897.949	20899
898.07	20853
898.19	20792
898.311	20956
898.431	20796
898.552	20872
898.672	20876
898.792	21051
898.913	21024
899.033	20735
899.153	20785
899.273	20560
899.393	20636
899.513	20632
899.633	20629
899.753	20727
899.873	20541
899.993	20659
900.113	20533
900.232	20636
900.352	20571
900.472	20476
900.591	20454
900.711	20541
900.83	20351
900.95	20476
901.069	20480
901.189	20347
901.308	20035
901.427	20054
901.546	20050
901.665	20005
901.784	19986
901.904	19811
902.023	19780
902.141	19548
902.26	19537
902.379	19616
902.498	19518
902.617	19544
902.735	19597
902.854	19426
902.973	19388
903.091	19232
903.21	19187
903.328	19232
903.446	19034
903.565	18863
903.683	18962
903.801	18833
903.919	18913
904.038	18825
904.156	18783
904.274	18913
904.392	18738
904.51	18734
904.627	18616
904.745	18730
904.863	18890
904.981	18509
905.098	18403
905.216	18456
905.334	18494
905.451	18506
905.569	18388
905.686	18547
905.803	18323
905.921	18235
906.038	18365
906.155	18213
906.272	18114
906.389	18064
906.506	17954
906.623	17977
906.74	17767
906.857	17668
906.974	17863
907.091	17969
907.208	18034
907.324	18034
907.441	17897
907.557	17649
907.674	17577
907.79	17539
907.907	17729
908.023	17726
908.139	17634
908.256	17585
908.372	17630
908.488	17585
908.604	17364
908.72	17406
908.836	17429
908.952	17444
909.068	17433
909.184	17532
909.3	17273
909.415	17463
909.531	17265
909.647	17212
909.762	17056
909.878	17132
909.993	17010
910.108	17064
910.224	17071
910.339	17102
910.454	16889
910.57	16831
910.685	16835
910.8	16987
910.915	17052
911.03	16889
911.145	16721
911.259	16538
911.374	16656
911.489	16599
911.604	16421
911.718	16371
911.833	16417
911.947	16310
912.062	16185
912.176	16421
912.291	16367
912.405	16409
912.519	16561
912.633	16489
912.748	16424
912.862	16272
912.976	16196
913.09	16143
913.204	16116
913.318	16207
913.431	16398
913.545	16147
913.659	16246
913.772	16124
913.886	16048
914	15953
914.113	16036
914.226	16086
914.34	16006
914.453	15960
914.566	16025
914.68	15949
914.793	15800
914.906	15644
915.019	15644
915.132	15526
915.245	15485
915.358	15610
915.47	15641
915.583	15511
915.696	15561
915.809	15755
915.921	15690
916.034	15511
916.146	15389
916.259	15408
916.371	15553
916.483	15511
916.595	15496
916.708	15386
916.82	15481
916.932	15386
917.044	15321
917.156	15313
917.268	15298
917.38	15142
917.491	15199
917.603	15184
917.715	15313
917.826	15241
917.938	15199
918.049	15043
918.161	15161
918.272	15325
918.384	15252
918.495	15043
918.606	15001
918.717	14956
918.828	14971
918.939	15039
919.05	14864
919.161	14944
919.272	14811
919.383	14689
919.494	15009
919.604	15135
919.715	14986
919.826	14815
919.936	14861
920.047	15039
920.157	14937
920.267	15077
920.378	14952
920.488	14880
920.598	15150
920.708	15268
920.818	14941
920.928	15051
921.038	15252
921.148	15176
921.258	14891
921.368	14674
921.477	14659
921.587	14670
921.697	14560
921.806	14682
921.916	14587
922.025	14381
922.134	14298
922.244	14305
922.353	14370
922.462	14225
922.571	14123
922.68	13940
922.789	13951
922.898	13967
923.007	13902
923.116	13986
923.224	13997
923.333	13845
923.442	13765
923.55	13685
923.659	13731
923.767	13871
923.876	13685
923.984	13693
924.092	13586
924.201	13567
924.309	13632
924.417	13655
924.525	13616
924.633	13624
924.741	14495
924.849	13388
924.956	13586
925.064	13301
925.172	13221
925.279	13278
925.387	13335
925.494	13301
925.602	13396
925.709	13335
925.816	13190
925.924	13270
926.031	13453
926.138	13251
926.245	13236
926.352	13103
926.459	13358
926.566	13278
926.673	13145
926.779	13133
926.886	13126
926.993	13031
927.099	12814
927.206	12776
927.312	12817
927.419	12913
927.525	12844
927.631	12878
927.737	12802
927.843	12726
927.95	12604
928.056	12658
928.162	12696
928.267	12798
928.373	13301
928.479	12795
928.585	12502
928.69	12620
928.796	12688
928.901	12559
929.007	12433
929.112	12532
929.218	12513
929.323	12296
929.428	12410
929.533	12547
929.638	12330
929.743	12365
929.848	12448
929.953	12418
930.058	12175
930.163	12072
930.267	12095
930.372	12281
930.477	12068
930.581	12258
930.685	12083
930.79	11927
930.894	11996
930.998	12026
931.103	12026
931.207	11703
931.311	11627
931.415	11543
931.519	11360
931.623	11220
