Data from test_V78500241_2627.txt Node
Date: Fri Mar 25 15:28:09 CST 2022
User: usil
Spectrometer: V785-0024
Trigger mode: 0
Integration Time (sec): 4.000000E-1
Scans to average: 1
Nonlinearity correction enabled: false
Boxcar width: 0
Storing dark spectrum: false
XAxis mode: Wavelengths
Number of Pixels in Spectrum: 1024
>>>>>Begin Spectral Data<<<<<
801.071	27112
801.214	27093
801.356	26944
801.499	26902
801.641	26811
801.783	26655
801.926	26815
802.068	26670
802.211	26686
802.353	26735
802.496	26370
802.638	26518
802.78	26343
802.923	26393
803.065	26221
803.208	26313
803.35	26374
803.492	26374
803.635	26667
803.777	26256
803.919	26484
804.061	26876
804.204	26621
804.346	26545
804.488	26450
804.63	26400
804.773	26389
804.915	26579
805.057	26693
805.199	26545
805.341	26575
805.483	26617
805.626	26568
805.768	26579
805.91	26731
806.052	26724
806.194	26511
806.336	26781
806.478	26674
806.62	26689
806.762	26568
806.904	26864
807.046	27119
807.188	26975
807.33	27043
807.472	27116
807.614	26975
807.756	27051
807.898	26899
808.04	26864
808.182	26952
808.324	26963
808.465	26895
808.607	27028
808.749	27207
808.891	27367
809.033	27287
809.174	27427
809.316	27287
809.458	27287
809.6	27188
809.741	27359
809.883	27367
810.025	27583
810.166	27675
810.308	27603
810.45	27405
810.591	27485
810.733	27359
810.875	27127
811.016	26998
811.158	27119
811.299	27264
811.441	27427
811.582	27382
811.724	27154
811.865	27302
812.007	27055
812.148	27325
812.29	27211
812.431	27294
812.573	27450
812.714	27618
812.855	27694
812.997	27648
813.138	27797
813.279	27884
813.421	27671
813.562	27534
813.703	27580
813.845	27466
813.986	27024
814.127	27020
814.268	26826
814.41	27017
814.551	26899
814.692	26975
814.833	26796
814.974	26746
815.115	26861
815.256	26735
815.397	26754
815.539	26807
815.68	26724
815.821	26541
815.962	26617
816.103	26640
816.244	26453
816.385	26453
816.526	26404
816.666	26240
816.807	26130
816.948	26225
817.089	26317
817.23	26107
817.371	26202
817.512	26115
817.653	26065
817.793	26058
817.934	26065
818.075	26050
818.216	26069
818.356	26229
818.497	26046
818.638	25917
818.778	25902
818.919	25921
819.06	25989
819.2	25997
819.341	26126
819.481	26084
819.622	26286
819.762	26450
819.903	26328
820.043	26278
820.184	26111
820.324	26271
820.465	26187
820.605	26408
820.746	26370
820.886	26161
821.026	26206
821.167	26187
821.307	26237
821.447	26107
821.588	26035
821.728	25936
821.868	25791
822.008	25681
822.149	25746
822.289	25518
822.429	25343
822.569	25270
822.709	25259
822.849	25164
822.99	25206
823.13	25046
823.27	25122
823.41	24947
823.55	24802
823.69	24829
823.83	24867
823.97	24798
824.11	24692
824.25	24703
824.389	24627
824.529	24806
824.669	24753
824.809	24894
824.949	24764
825.089	24920
825.228	24787
825.368	24650
825.508	24585
825.648	24604
825.787	24700
825.927	24635
826.067	24574
826.206	24570
826.346	24688
826.485	24677
826.625	24707
826.765	24688
826.904	24555
827.044	24437
827.183	24361
827.323	24323
827.462	24410
827.601	24380
827.741	24205
827.88	24285
828.02	24220
828.159	24186
828.298	24372
828.437	24422
828.577	24300
828.716	24266
828.855	24197
828.994	23999
829.134	23931
829.273	24167
829.412	23923
829.551	24102
829.69	23999
829.829	24015
829.968	24232
830.107	24068
830.246	23980
830.385	23996
830.524	23942
830.663	23802
830.802	23851
830.941	23653
831.08	23676
831.219	23718
831.357	23821
831.496	23942
831.635	23741
831.774	23539
831.913	23589
832.051	23471
832.19	23482
832.329	23429
832.467	23398
832.606	23269
832.744	23414
832.883	23326
833.022	23231
833.16	23212
833.299	23303
833.437	23280
833.576	23402
833.714	23421
833.852	23490
833.991	23478
834.129	23345
834.267	23520
834.406	23425
834.544	23307
834.682	23482
834.821	23524
834.959	23516
835.097	23269
835.235	23478
835.373	23478
835.511	23318
835.65	23246
835.788	23246
835.926	23197
836.064	23098
836.202	23086
836.34	23254
836.478	23261
836.615	23254
836.753	23216
836.891	23490
837.029	23231
837.167	23246
837.305	23322
837.443	23155
837.58	23155
837.718	23079
837.856	23022
837.993	23010
838.131	23117
838.269	22957
838.406	22999
838.544	22919
838.681	22702
838.819	22729
838.956	22615
839.094	22580
839.231	22679
839.369	22710
839.506	22896
839.643	22736
839.781	22630
839.918	22497
840.055	22516
840.193	22698
840.33	22622
840.467	22474
840.604	22653
840.742	22824
840.879	22390
841.016	22451
841.153	22386
841.29	22672
841.427	22424
841.564	22516
841.701	22462
841.838	22432
841.975	22367
842.112	22478
842.249	22310
842.385	22272
842.522	22455
842.659	22344
842.796	22246
842.933	22143
843.069	22150
843.206	22246
843.343	22211
843.479	22230
843.616	22337
843.752	22029
843.889	22051
844.025	22337
844.162	22021
844.298	22196
844.435	22044
844.571	22036
844.708	21979
844.844	22070
844.98	22093
845.117	22166
845.253	21994
845.389	21922
845.525	21983
845.661	21918
845.798	21762
845.934	21842
846.07	21743
846.206	21774
846.342	21842
846.478	21724
846.614	21519
846.75	21408
846.886	21625
847.022	21660
847.158	21583
847.294	21511
847.429	21568
847.565	21504
847.701	21682
847.837	21344
847.972	21192
848.108	21374
848.244	21298
848.379	21112
848.515	21138
848.65	21055
848.786	21131
848.921	21081
849.057	21214
849.192	21138
849.328	21074
849.463	21131
849.598	21081
849.734	20891
849.869	21017
850.004	20994
850.14	20861
850.275	20933
850.41	20807
850.545	20781
850.68	20864
850.815	20944
850.95	20918
851.085	21062
851.22	21036
851.355	20982
851.49	20838
851.625	20891
851.76	20853
851.895	20773
852.03	20762
852.165	20921
852.299	20830
852.434	20925
852.569	20941
852.703	20952
852.838	20971
852.973	21074
853.107	20990
853.242	20899
853.376	20727
853.511	20583
853.645	20765
853.78	20804
853.914	20769
854.048	20636
854.183	20651
854.317	20834
854.451	20872
854.585	20743
854.72	20762
854.854	20746
854.988	20594
855.122	20670
855.256	20674
855.39	20686
855.524	20781
855.658	20815
855.792	20678
855.926	20636
856.06	20720
856.194	20807
856.327	20686
856.461	20663
856.595	20697
856.729	20724
856.862	20758
856.996	20731
857.13	20754
857.263	20765
857.397	20758
857.53	20697
857.664	20724
857.797	20724
857.931	20682
858.064	20693
858.197	20781
858.331	20629
858.464	20705
858.597	20530
858.731	20613
858.864	20670
858.997	20708
859.13	20686
859.263	20632
859.396	20914
859.529	20826
859.662	20678
859.795	20648
859.928	20800
860.061	20826
860.194	20921
860.327	20701
860.46	20629
860.592	20731
860.725	20880
860.858	20857
860.99	20590
861.123	20655
861.256	20731
861.388	20678
861.521	21439
861.653	20492
861.786	20568
861.918	20473
862.05	20590
862.183	20648
862.315	20613
862.447	20705
862.58	20579
862.712	20389
862.844	20374
862.976	20541
863.108	20393
863.24	20902
863.372	20400
863.504	20366
863.636	20522
863.768	20488
863.9	20400
864.032	20347
864.164	20328
864.296	20442
864.428	20465
864.559	20503
864.691	20545
864.823	20492
864.954	20263
865.086	20282
865.217	20233
865.349	20218
865.48	20244
865.612	20408
865.743	20480
865.875	20358
866.006	20252
866.137	20240
866.269	20343
866.4	20218
866.531	20248
866.662	20370
866.793	20153
866.924	20256
867.055	20309
867.186	20282
867.317	20180
867.448	20103
867.579	20267
867.71	20084
867.841	20172
867.972	20263
868.103	20172
868.233	20229
868.364	20278
868.495	20370
868.625	20461
868.756	20648
868.886	20522
869.017	20484
869.147	20556
869.278	20590
869.408	20484
869.539	20473
869.669	20499
869.799	20495
869.929	20606
870.06	20590
870.19	20697
870.32	20701
870.45	20762
870.58	20883
870.71	20876
870.84	20956
870.97	20956
871.1	20925
871.23	21116
871.36	21119
871.489	21005
871.619	21096
871.749	21089
871.879	21123
872.008	21188
872.138	21161
872.267	21093
872.397	20941
872.526	20952
872.656	20979
872.785	20929
872.915	21017
873.044	21157
873.173	21237
873.303	21188
873.432	21039
873.561	21131
873.69	21062
873.819	21123
873.948	21165
874.077	21154
874.206	21085
874.335	21077
874.464	21279
874.593	21325
874.722	21310
874.851	21351
874.979	21275
875.108	21447
875.237	21294
875.365	21135
875.494	21275
875.623	21378
875.751	21332
875.88	21329
876.008	21458
876.136	21443
876.265	21751
876.393	21888
876.521	21762
876.65	21800
876.778	21755
876.906	21713
877.034	21595
877.162	21793
877.29	21576
877.418	21663
877.546	21663
877.674	21717
877.802	21774
877.93	21747
878.058	21679
878.185	21656
878.313	21675
878.441	21755
878.568	21496
878.696	21606
878.824	21698
878.951	21698
879.079	21918
879.206	22055
879.333	21922
879.461	21660
879.588	21827
879.715	21915
879.842	21998
879.97	21743
880.097	21553
880.224	21530
880.351	21614
880.478	21591
880.605	21488
880.732	21587
880.859	21762
880.986	21583
881.112	21485
881.239	21389
881.366	21287
881.493	21291
881.619	21074
881.746	21154
881.872	21161
881.999	21074
882.125	21001
882.252	21104
882.378	21108
882.505	21116
882.631	20990
882.757	20883
882.883	20906
883.01	20872
883.136	20708
883.262	20667
883.388	20587
883.514	20883
883.64	20864
883.766	20788
883.892	20579
884.018	20636
884.143	20834
884.269	20819
884.395	20434
884.52	20499
884.646	20541
884.772	20309
884.897	20336
885.023	20427
885.148	20617
885.274	20537
885.399	20533
885.524	20560
885.65	20473
885.775	20465
885.9	20366
886.025	20590
886.15	20511
886.275	20427
886.4	20332
886.525	20389
886.65	20434
886.775	20336
886.9	20552
887.025	20708
887.149	20389
887.274	20309
887.399	20210
887.523	20259
887.648	20122
887.773	20183
887.897	20324
888.021	20358
888.146	20100
888.27	20309
888.395	20286
888.519	20278
888.643	20336
888.767	20351
888.891	20069
889.015	20027
889.139	20164
889.263	20012
889.387	20115
889.511	20301
889.635	20134
889.759	20046
889.883	20103
890.006	20077
890.13	20096
890.254	20046
890.377	20020
890.501	19852
890.624	19795
890.748	19871
890.871	19655
890.995	19567
891.118	19590
891.241	19571
891.364	19597
891.488	19738
891.611	19601
891.734	19628
891.857	19624
891.98	19635
892.103	19712
892.226	19700
892.349	19655
892.471	19392
892.594	19601
892.717	19666
892.839	19586
892.962	19518
893.085	19639
893.207	19540
893.33	19396
893.452	19480
893.575	19548
893.697	19537
893.819	19597
893.941	19776
894.064	19776
894.186	19518
894.308	19567
894.43	19533
894.552	19693
894.674	19674
894.796	19544
894.918	19514
895.04	19491
895.161	19605
895.283	19552
895.405	19449
895.526	19529
895.648	19563
895.769	19594
895.891	19575
896.012	19605
896.134	19605
896.255	19556
896.376	19483
896.498	19571
896.619	19643
896.74	19582
896.861	19476
896.982	19982
897.103	20043
897.224	19864
897.345	19715
897.466	19708
897.587	19784
897.708	19871
897.828	19814
897.949	19769
898.07	19635
898.19	19651
898.311	20001
898.431	19734
898.552	19746
898.672	19868
898.792	19921
898.913	19708
899.033	19734
899.153	19639
899.273	19567
899.393	19578
899.513	19571
899.633	19499
899.753	19544
899.873	19438
899.993	19533
900.113	19464
900.232	19594
900.352	19438
900.472	19445
900.591	19324
900.711	19308
900.83	19266
900.95	19388
901.069	19362
901.189	19156
901.308	18981
901.427	18958
901.546	18973
901.665	18943
901.784	18905
901.904	18696
902.023	18642
902.141	18532
902.26	18467
902.379	18536
902.498	18380
902.617	18452
902.735	18490
902.854	18403
902.973	18285
903.091	18076
903.21	18064
903.328	18053
903.446	17996
903.565	17999
903.683	18003
903.801	17775
903.919	17863
904.038	17828
904.156	17741
904.274	17843
904.392	17699
904.51	17634
904.627	17668
904.745	17729
904.863	17714
904.981	17467
905.098	17288
905.216	17376
905.334	17364
905.451	17368
905.569	17452
905.686	17391
905.803	17250
905.921	17178
906.038	17242
906.155	17235
906.272	17124
906.389	16957
906.506	16911
906.623	16835
906.74	16786
906.857	16835
906.974	16778
907.091	16995
907.208	16938
907.324	17037
907.441	16850
907.557	16687
907.674	16634
907.79	16531
907.907	16618
908.023	16618
908.139	16733
908.256	16512
908.372	16485
908.488	16527
908.604	16322
908.72	16363
908.836	16413
908.952	16386
909.068	16363
909.184	16440
909.3	16375
909.415	16386
909.531	16375
909.647	16230
909.762	16090
909.878	15983
909.993	15998
910.108	15922
910.224	15968
910.339	16124
910.454	15831
910.57	15739
910.685	15762
910.8	16128
910.915	16044
911.03	15892
911.145	15743
911.259	15705
911.374	15739
911.489	15587
911.604	15523
911.718	15367
911.833	15435
911.947	15374
912.062	15359
912.176	15439
912.291	15458
912.405	15412
912.519	15675
912.633	15679
912.748	15382
912.862	15367
912.976	15272
913.09	15169
913.204	15188
913.318	15218
913.431	15268
913.545	15382
913.659	15348
913.772	15176
913.886	15062
914	14982
914.113	15066
914.226	15203
914.34	15093
914.453	14952
914.566	14990
914.68	15017
914.793	14849
914.906	14750
915.019	14621
915.132	14720
915.245	14689
915.358	14739
915.47	14678
915.583	14640
915.696	14689
915.809	14804
915.921	14739
916.034	14640
916.146	14659
916.259	14484
916.371	14648
916.483	14579
916.595	14533
916.708	14552
916.82	14492
916.932	14450
917.044	14488
917.156	14492
917.268	14332
917.38	14237
917.491	14282
917.603	14282
917.715	14309
917.826	14328
917.938	14225
918.049	14267
918.161	14195
918.272	14412
918.384	14434
918.495	14313
918.606	14161
918.717	13925
918.828	14183
918.939	14168
919.05	13936
919.161	14065
919.272	13887
919.383	13917
919.494	14123
919.604	14267
919.715	14020
919.826	13959
919.936	14142
920.047	14161
920.157	14054
920.267	14195
920.378	14153
920.488	14081
920.598	14248
920.708	14450
920.818	14176
920.928	14218
921.038	14328
921.148	14252
921.258	13963
921.368	13887
921.477	13833
921.587	13894
921.697	13636
921.806	13761
921.916	13666
922.025	13434
922.134	13514
922.244	13502
922.353	13521
922.462	13365
922.571	13365
922.68	13149
922.789	13084
922.898	13164
923.007	13099
923.116	13099
923.224	13137
923.333	13129
923.442	13031
923.55	13031
923.659	12989
923.767	13038
923.876	12989
923.984	12973
924.092	12856
924.201	12867
924.309	12920
924.417	12913
924.525	12878
924.633	12791
924.741	13677
924.849	12604
924.956	12776
925.064	12642
925.172	12422
925.279	12551
925.387	12532
925.494	12494
925.602	12639
925.709	12593
925.816	12448
925.924	12517
926.031	12578
926.138	12528
926.245	12521
926.352	12323
926.459	12540
926.566	12490
926.673	12475
926.779	12384
926.886	12311
926.993	12239
927.099	12091
927.206	11988
927.312	12068
927.419	12163
927.525	12163
927.631	12178
927.737	12034
927.843	12057
927.95	11874
928.056	11988
928.162	11999
928.267	11999
928.373	12566
928.479	12041
928.585	11817
928.69	11923
928.796	11969
928.901	11889
929.007	11653
929.112	11821
929.218	11809
929.323	11718
929.428	11676
929.533	11836
929.638	11634
929.743	11649
929.848	11748
929.953	11649
930.058	11604
930.163	11383
930.267	11372
930.372	11570
930.477	11334
930.581	11547
930.685	11364
930.79	11246
930.894	11239
930.998	11193
931.103	11425
931.207	11067
931.311	10957
931.415	10866
931.519	10721
931.623	10675
