Data from test_V78500241_1947.txt Node
Date: Fri Mar 25 15:23:24 CST 2022
User: usil
Spectrometer: V785-0024
Trigger mode: 0
Integration Time (sec): 4.000000E-1
Scans to average: 1
Nonlinearity correction enabled: false
Boxcar width: 0
Storing dark spectrum: false
XAxis mode: Wavelengths
Number of Pixels in Spectrum: 1024
>>>>>Begin Spectral Data<<<<<
801.071	27759
801.214	27690
801.356	27564
801.499	27325
801.641	27207
801.783	27279
801.926	27329
802.068	27230
802.211	27157
802.353	27135
802.496	26948
802.638	27066
802.78	26933
802.923	26861
803.065	26929
803.208	26792
803.35	27028
803.492	27119
803.635	27135
803.777	27138
803.919	26979
804.061	27382
804.204	27207
804.346	27089
804.488	26990
804.63	27150
804.773	26910
804.915	27146
805.057	27180
805.199	27005
805.341	27150
805.483	27329
805.626	27268
805.768	27188
805.91	27203
806.052	27321
806.194	27237
806.336	27481
806.478	27264
806.62	27195
806.762	27450
806.904	27545
807.046	27736
807.188	27622
807.33	27698
807.472	27698
807.614	27568
807.756	27641
807.898	27538
808.04	27389
808.182	27435
808.324	27420
808.465	27408
808.607	27698
808.749	27762
808.891	27876
809.033	27972
809.174	27953
809.316	27903
809.458	27888
809.6	27911
809.741	28006
809.883	27960
810.025	28139
810.166	28223
810.308	28196
810.45	28025
810.591	27987
810.733	27728
810.875	27869
811.016	27690
811.158	27599
811.299	27869
811.441	27949
811.582	27945
811.724	27770
811.865	27816
812.007	27861
812.148	27755
812.29	27789
812.431	28086
812.573	28257
812.714	28211
812.855	28386
812.997	28432
813.138	28485
813.279	28516
813.421	28504
813.562	28390
813.703	28284
813.845	28082
813.986	27778
814.127	27743
814.268	27496
814.41	27454
814.551	27507
814.692	27622
814.833	27386
814.974	27447
815.115	27492
815.256	27393
815.397	27591
815.539	27534
815.68	27325
815.821	27336
815.962	27344
816.103	27264
816.244	27157
816.385	27211
816.526	27123
816.666	27070
816.807	26842
816.948	26971
817.089	26975
817.23	26887
817.371	26830
817.512	26777
817.653	26716
817.793	26765
817.934	26762
818.075	26864
818.216	26883
818.356	26800
818.497	26674
818.638	26583
818.778	26594
818.919	26583
819.06	26571
819.2	26621
819.341	26880
819.481	26838
819.622	26960
819.762	27074
819.903	27036
820.043	27005
820.184	27020
820.324	26986
820.465	27036
820.605	26861
820.746	26986
820.886	26819
821.026	26826
821.167	26872
821.307	26933
821.447	26800
821.588	26849
821.728	26590
821.868	26469
822.008	26313
822.149	26309
822.289	26317
822.429	26149
822.569	26054
822.709	25921
822.849	25852
822.99	25818
823.13	25731
823.27	25753
823.41	25571
823.55	25559
823.69	25742
823.83	25685
823.97	25700
824.11	25335
824.25	25419
824.389	25403
824.529	25578
824.669	25586
824.809	25548
824.949	25483
825.089	25521
825.228	25457
825.368	25327
825.508	25202
825.648	25297
825.787	25388
825.927	25419
826.067	25247
826.206	25263
826.346	25316
826.485	25278
826.625	25228
826.765	25365
826.904	25396
827.044	25069
827.183	25080
827.323	24943
827.462	24989
827.601	24958
827.741	25069
827.88	25076
828.02	24897
828.159	24962
828.298	24962
828.437	25152
828.577	25057
828.716	25095
828.855	24916
828.994	24738
829.134	24840
829.273	24829
829.412	24681
829.551	24673
829.69	24802
829.829	24597
829.968	24760
830.107	24783
830.246	24665
830.385	24578
830.524	24753
830.663	24620
830.802	24464
830.941	24361
831.08	24277
831.219	24414
831.357	24330
831.496	24532
831.635	24300
831.774	24323
831.913	24277
832.051	24102
832.19	24114
832.329	24076
832.467	24026
832.606	23946
832.744	23912
832.883	24072
833.022	23847
833.16	24011
833.299	24083
833.437	24083
833.576	24148
833.714	24194
833.852	24258
833.991	24213
834.129	24018
834.267	24091
834.406	24049
834.544	24224
834.682	24072
834.821	24015
834.959	24182
835.097	24171
835.235	24057
835.373	23969
835.511	23942
835.65	24038
835.788	23954
835.926	23824
836.064	23668
836.202	23737
836.34	23828
836.478	24018
836.615	23904
836.753	23980
836.891	24060
837.029	23950
837.167	23760
837.305	23756
837.443	23828
837.58	23756
837.718	23817
837.856	23855
837.993	23764
838.131	23764
838.269	23775
838.406	23649
838.544	23611
838.681	23455
838.819	23452
838.956	23254
839.094	23155
839.231	23204
839.369	23535
839.506	23680
839.643	23573
839.781	23277
839.918	23197
840.055	23250
840.193	23220
840.33	23170
840.467	23174
840.604	23117
840.742	23337
840.879	22927
841.016	23079
841.153	23064
841.29	23330
841.427	23090
841.564	23223
841.701	23200
841.838	23132
841.975	22995
842.112	23155
842.249	23041
842.385	22892
842.522	23121
842.659	22961
842.796	22934
842.933	23006
843.069	22812
843.206	22786
843.343	22957
843.479	22934
843.616	23029
843.752	22771
843.889	22752
844.025	22892
844.162	22557
844.298	22797
844.435	22755
844.571	22485
844.708	22793
844.844	22790
844.98	22755
845.117	22820
845.253	22710
845.389	22615
845.525	22607
845.661	22375
845.798	22508
845.934	22413
846.07	22348
846.206	22466
846.342	22478
846.478	22546
846.614	22124
846.75	22002
846.886	22124
847.022	22265
847.158	22196
847.294	22272
847.429	22112
847.565	22207
847.701	22432
847.837	21926
847.972	21823
848.108	21884
848.244	22025
848.379	21827
848.515	21785
848.65	21759
848.786	21739
848.921	21808
849.057	21854
849.192	21838
849.328	21873
849.463	21701
849.598	21774
849.734	21519
849.869	21603
850.004	21549
850.14	21507
850.275	21568
850.41	21576
850.545	21431
850.68	21439
850.815	21591
850.95	21477
851.085	21800
851.22	21641
851.355	21477
851.49	21485
851.625	21412
851.76	21408
851.895	21401
852.03	21488
852.165	21553
852.299	21473
852.434	21519
852.569	21599
852.703	21572
852.838	21507
852.973	21774
853.107	21660
853.242	21355
853.376	21348
853.511	21173
853.645	21260
853.78	21443
853.914	21241
854.048	21325
854.183	21367
854.317	21351
854.451	21454
854.585	21344
854.72	21317
854.854	21393
854.988	21397
855.122	21359
855.256	21207
855.39	21310
855.524	21443
855.658	21424
855.792	21294
855.926	21382
856.06	21401
856.194	21279
856.327	21264
856.461	21344
856.595	21351
856.729	21325
856.862	21477
856.996	21363
857.13	21492
857.263	21351
857.397	21515
857.53	21252
857.664	21329
857.797	21538
857.931	21477
858.064	21397
858.197	21378
858.331	21291
858.464	21374
858.597	21294
858.731	21279
858.864	21260
858.997	21329
859.13	21272
859.263	21302
859.396	21363
859.529	21272
859.662	21283
859.795	21256
859.928	21325
860.061	21469
860.194	21488
860.327	21405
860.46	21428
860.592	21466
860.725	21500
860.858	21450
860.99	21344
861.123	21161
861.256	21298
861.388	21351
861.521	21907
861.653	21226
861.786	21051
861.918	21256
862.05	21313
862.183	21260
862.315	21226
862.447	21313
862.58	21245
862.712	21077
862.844	20899
862.976	21154
863.108	21222
863.24	21466
863.372	20971
863.504	21020
863.636	21036
863.768	21127
863.9	20994
864.032	21024
864.164	20998
864.296	21058
864.428	21211
864.559	21074
864.691	21085
864.823	21047
864.954	21028
865.086	20929
865.217	20971
865.349	20975
865.48	20895
865.612	20982
865.743	21089
865.875	20979
866.006	20845
866.137	20883
866.269	20910
866.4	20895
866.531	20956
866.662	20830
866.793	20861
866.924	20941
867.055	20842
867.186	20883
867.317	20830
867.448	20792
867.579	20792
867.71	20887
867.841	20857
867.972	20781
868.103	20845
868.233	20826
868.364	20918
868.495	20925
868.625	21108
868.756	21173
868.886	21119
869.017	21207
869.147	21214
869.278	21298
869.408	21093
869.539	21112
869.669	21161
869.799	21116
869.929	21157
870.06	21222
870.19	21367
870.32	21344
870.45	21519
870.58	21454
870.71	21660
870.84	21614
870.97	21492
871.1	21477
871.23	21690
871.36	21686
871.489	21599
871.619	21694
871.749	21675
871.879	21701
872.008	21873
872.138	21690
872.267	21778
872.397	21667
872.526	21629
872.656	21583
872.785	21462
872.915	21739
873.044	21850
873.173	21686
873.303	21686
873.432	21808
873.561	21987
873.69	21633
873.819	21705
873.948	21736
874.077	21618
874.206	21637
874.335	21739
874.464	21934
874.593	21998
874.722	21899
874.851	21865
874.979	22051
875.108	22013
875.237	21892
875.365	21797
875.494	21941
875.623	22063
875.751	21876
875.88	21998
876.008	22090
876.136	22120
876.265	22424
876.393	22348
876.521	22485
876.65	22424
876.778	22371
876.906	22318
877.034	22230
877.162	22265
877.29	22147
877.418	22314
877.546	22276
877.674	22249
877.802	22432
877.93	22276
878.058	22147
878.185	22185
878.313	22257
878.441	22234
878.568	22166
878.696	22246
878.824	22265
878.951	22341
879.079	22474
879.206	22565
879.333	22569
879.461	22527
879.588	22462
879.715	22375
879.842	22470
879.97	22318
880.097	22143
880.224	22143
880.351	22116
880.478	22128
880.605	22207
880.732	22124
880.859	22253
880.986	22063
881.112	22150
881.239	21949
881.366	21842
881.493	21800
881.619	21625
881.746	21736
881.872	21637
881.999	21622
882.125	21675
882.252	21679
882.378	21637
882.505	21903
882.631	21603
882.757	21401
882.883	21458
883.01	21321
883.136	21287
883.262	21260
883.388	21344
883.514	21420
883.64	21378
883.766	21344
883.892	21150
884.018	21268
884.143	21306
884.269	21428
884.395	21157
884.52	20944
884.646	21066
884.772	21036
884.897	20861
885.023	21039
885.148	21150
885.274	21203
885.399	21154
885.524	20925
885.65	20937
885.775	21017
885.9	21013
886.025	21138
886.15	21150
886.275	20982
886.4	20925
886.525	20967
886.65	21020
886.775	20906
886.9	21020
887.025	21291
887.149	20853
887.274	20857
887.399	20727
887.523	20876
887.648	20765
887.773	20819
887.897	20830
888.021	20902
888.146	20667
888.27	20815
888.395	20891
888.519	20910
888.643	20815
888.767	20811
888.891	20743
889.015	20693
889.139	20644
889.263	20579
889.387	20659
889.511	20906
889.635	20796
889.759	20579
889.883	20514
890.006	20552
890.13	20762
890.254	20556
890.377	20507
890.501	20301
890.624	20301
890.748	20339
890.871	20214
890.995	20233
891.118	20168
891.241	20252
891.364	20195
891.488	20336
891.611	20145
891.734	20191
891.857	20191
891.98	20263
892.103	20183
892.226	20180
892.349	20115
892.471	19974
892.594	19997
892.717	20035
892.839	20134
892.962	20130
893.085	20145
893.207	20107
893.33	19993
893.452	19947
893.575	20119
893.697	19989
893.819	20248
893.941	20199
894.064	20168
894.186	20001
894.308	19970
894.43	20172
894.552	20199
894.674	20088
894.796	19871
894.918	20043
895.04	19982
895.161	20092
895.283	20077
895.405	20027
895.526	20016
895.648	20050
895.769	20050
895.891	20008
896.012	20119
896.134	20092
896.255	20073
896.376	20119
896.498	20096
896.619	20240
896.74	20016
896.861	20088
896.982	20332
897.103	20655
897.224	20355
897.345	20267
897.466	20168
897.587	20282
897.708	20499
897.828	20244
897.949	20229
898.07	20145
898.19	20206
898.311	20457
898.431	20286
898.552	20347
898.672	20305
898.792	20313
898.913	20324
899.033	20195
899.153	20096
899.273	19993
899.393	20069
899.513	19944
899.633	20195
899.753	20077
899.873	20020
899.993	20016
900.113	19894
900.232	20073
900.352	19890
900.472	19875
900.591	19807
900.711	19776
900.83	19761
900.95	19947
901.069	19936
901.189	19719
901.308	19582
901.427	19396
901.546	19350
901.665	19453
901.784	19369
901.904	19110
902.023	19274
902.141	19000
902.26	18920
902.379	19012
902.498	18901
902.617	18852
902.735	19046
902.854	18795
902.973	18719
903.091	18673
903.21	18563
903.328	18589
903.446	18437
903.565	18330
903.683	18376
903.801	18304
903.919	18456
904.038	18323
904.156	18136
904.274	18247
904.392	18209
904.51	18129
904.627	18133
904.745	18266
904.863	18201
904.981	17912
905.098	17794
905.216	17733
905.334	17783
905.451	17756
905.569	17790
905.686	17859
905.803	17821
905.921	17596
906.038	17710
906.155	17726
906.272	17501
906.389	17596
906.506	17417
906.623	17391
906.74	17311
906.857	17227
906.974	17216
907.091	17318
907.208	17455
907.324	17395
907.441	17326
907.557	17140
907.674	17052
907.79	17075
907.907	17018
908.023	17071
908.139	17079
908.256	16999
908.372	17025
908.488	17025
908.604	16866
908.72	16786
908.836	16812
908.952	16736
909.068	16797
909.184	16824
909.3	16900
909.415	16782
909.531	16812
909.647	16592
909.762	16538
909.878	16580
909.993	16538
910.108	16470
910.224	16405
910.339	16497
910.454	16348
910.57	16318
910.685	16306
910.8	16531
910.915	16466
911.03	16276
911.145	16185
911.259	16032
911.374	16013
911.489	16021
911.604	16032
911.718	15930
911.833	15873
911.947	15774
912.062	15675
912.176	15743
912.291	15823
912.405	15812
912.519	15911
912.633	16025
912.748	15831
912.862	15831
912.976	15690
913.09	15625
913.204	15637
913.318	15743
913.431	15762
913.545	15633
913.659	15831
913.772	15679
913.886	15462
914	15450
914.113	15526
914.226	15576
914.34	15458
914.453	15363
914.566	15504
914.68	15291
914.793	15325
914.906	15093
915.019	15055
915.132	14948
915.245	14990
915.358	15009
915.47	15055
915.583	15138
915.696	14994
915.809	15173
915.921	15108
916.034	14941
916.146	14906
916.259	14990
916.371	15039
916.483	15013
916.595	14899
916.708	14838
916.82	14864
916.932	14815
917.044	14861
917.156	14819
917.268	14716
917.38	14792
917.491	14720
917.603	14758
917.715	14762
917.826	14819
917.938	14712
918.049	14606
918.161	14655
918.272	14743
918.384	14701
918.495	14644
918.606	14427
918.717	14431
918.828	14469
918.939	14461
919.05	14267
919.161	14423
919.272	14233
919.383	14294
919.494	14541
919.604	14712
919.715	14511
919.826	14408
919.936	14476
920.047	14514
920.157	14446
920.267	14682
920.378	14461
920.488	14438
920.598	14571
920.708	14773
920.818	14526
920.928	14583
921.038	14785
921.148	14697
921.258	14473
921.368	14263
921.477	14233
921.587	14252
921.697	14016
921.806	14164
921.916	14081
922.025	13936
922.134	13875
922.244	13887
922.353	13864
922.462	13696
922.571	13731
922.68	13525
922.789	13453
922.898	13499
923.007	13499
923.116	13601
923.224	13487
923.333	13449
923.442	13331
923.55	13362
923.659	13251
923.767	13388
923.876	13213
923.984	13415
924.092	13293
924.201	13255
924.309	13221
924.417	13263
924.525	13225
924.633	13263
924.741	14206
924.849	13008
924.956	13168
925.064	12951
925.172	12837
925.279	12878
925.387	12878
925.494	13023
925.602	13080
925.709	12993
925.816	12840
925.924	12863
926.031	13004
926.138	12878
926.245	13004
926.352	12798
926.459	12947
926.566	12939
926.673	12688
926.779	12738
926.886	12677
926.993	12521
927.099	12528
927.206	12372
927.312	12475
927.419	12616
927.525	12521
927.631	12506
927.737	12395
927.843	12304
927.95	12315
928.056	12330
928.162	12292
928.267	12456
928.373	12810
928.479	12380
928.585	12148
928.69	12285
928.796	12197
928.901	12140
929.007	12076
929.112	12175
929.218	12125
929.323	11984
929.428	11996
929.533	12213
929.638	12034
929.743	11939
929.848	12038
929.953	11897
930.058	11817
930.163	11676
930.267	11748
930.372	11939
930.477	11710
930.581	11859
930.685	11745
930.79	11665
930.894	11672
930.998	11646
931.103	11737
931.207	11379
931.311	11318
931.415	11288
931.519	11014
931.623	10908
