Data from test_V78500241_3463.txt Node
Date: Fri Mar 25 15:33:58 CST 2022
User: usil
Spectrometer: V785-0024
Trigger mode: 0
Integration Time (sec): 4.000000E-1
Scans to average: 1
Nonlinearity correction enabled: false
Boxcar width: 0
Storing dark spectrum: false
XAxis mode: Wavelengths
Number of Pixels in Spectrum: 1024
>>>>>Begin Spectral Data<<<<<
801.071	27298
801.214	27180
801.356	26887
801.499	26994
801.641	26796
801.783	26868
801.926	26834
802.068	26758
802.211	26716
802.353	26724
802.496	26522
802.638	26526
802.78	26324
802.923	26370
803.065	26252
803.208	26271
803.35	26389
803.492	26514
803.635	26621
803.777	26389
803.919	26594
804.061	26883
804.204	26598
804.346	26644
804.488	26400
804.63	26560
804.773	26301
804.915	26556
805.057	26575
805.199	26473
805.341	26621
805.483	26769
805.626	26689
805.768	26511
805.91	26716
806.052	26765
806.194	26503
806.336	26796
806.478	26655
806.62	26735
806.762	26785
806.904	26849
807.046	27154
807.188	27100
807.33	26975
807.472	27169
807.614	26990
807.756	27039
807.898	26899
808.04	26701
808.182	26773
808.324	26853
808.465	26918
808.607	27157
808.749	27161
808.891	27275
809.033	27515
809.174	27443
809.316	27249
809.458	27268
809.6	27294
809.741	27572
809.883	27359
810.025	27591
810.166	27564
810.308	27519
810.45	27492
810.591	27382
810.733	27226
810.875	27302
811.016	27112
811.158	27093
811.299	27329
811.441	27344
811.582	27302
811.724	27313
811.865	27104
812.007	27195
812.148	27241
812.29	27252
812.431	27652
812.573	27667
812.714	27644
812.855	27709
812.997	27846
813.138	27918
813.279	27884
813.421	27762
813.562	27671
813.703	27462
813.845	27466
813.986	27291
814.127	26929
814.268	26853
814.41	26986
814.551	26735
814.692	26933
814.833	26895
814.974	26902
815.115	26826
815.256	26845
815.397	26632
815.539	26781
815.68	26686
815.821	26655
815.962	26712
816.103	26788
816.244	26564
816.385	26530
816.526	26355
816.666	26218
816.807	26218
816.948	26157
817.089	26240
817.23	26168
817.371	26183
817.512	26012
817.653	26073
817.793	26039
817.934	26138
818.075	26164
818.216	26145
818.356	26206
818.497	26012
818.638	25951
818.778	25852
818.919	26020
819.06	25993
819.2	26008
819.341	26164
819.481	26142
819.622	26244
819.762	26602
819.903	26298
820.043	26419
820.184	26317
820.324	26347
820.465	26206
820.605	26214
820.746	26153
820.886	26100
821.026	26210
821.167	26233
821.307	26389
821.447	26149
821.588	26122
821.728	26058
821.868	25811
822.008	25780
822.149	25620
822.289	25689
822.429	25339
822.569	25304
822.709	25255
822.849	25206
822.99	25141
823.13	25133
823.27	25065
823.41	24992
823.55	25008
823.69	24981
823.83	24966
823.97	24825
824.11	24768
824.25	24772
824.389	24688
824.529	24867
824.669	24840
824.809	24856
824.949	24738
825.089	24814
825.228	24745
825.368	24566
825.508	24544
825.648	24722
825.787	24684
825.927	24665
826.067	24547
826.206	24563
826.346	24654
826.485	24738
826.625	24692
826.765	24757
826.904	24779
827.044	24395
827.183	24376
827.323	24323
827.462	24429
827.601	24372
827.741	24460
827.88	24429
828.02	24220
828.159	24399
828.298	24319
828.437	24437
828.577	24445
828.716	24311
828.855	24296
828.994	24129
829.134	24026
829.273	24125
829.412	24144
829.551	24064
829.69	24018
829.829	24167
829.968	24155
830.107	24148
830.246	24053
830.385	24022
830.524	23923
830.663	23821
830.802	23882
830.941	23657
831.08	23600
831.219	23653
831.357	23691
831.496	23855
831.635	23680
831.774	23543
831.913	23539
832.051	23539
832.19	23448
832.329	23600
832.467	23414
832.606	23273
832.744	23322
832.883	23433
833.022	23391
833.16	23372
833.299	23444
833.437	23406
833.576	23341
833.714	23383
833.852	23482
833.991	23402
834.129	23608
834.267	23604
834.406	23429
834.544	23497
834.682	23444
834.821	23509
834.959	23604
835.097	23398
835.235	23528
835.373	23440
835.511	23368
835.65	23269
835.788	23261
835.926	23216
836.064	23117
836.202	23033
836.34	23337
836.478	23395
836.615	23136
836.753	23284
836.891	23372
837.029	23318
837.167	23200
837.305	23117
837.443	23181
837.58	23090
837.718	23071
837.856	23128
837.993	23102
838.131	23132
838.269	23086
838.406	23098
838.544	22927
838.681	22835
838.819	22790
838.956	22599
839.094	22675
839.231	22725
839.369	22809
839.506	23029
839.643	22915
839.781	22668
839.918	22561
840.055	22554
840.193	22656
840.33	22519
840.467	22649
840.604	22634
840.742	22961
840.879	22344
841.016	22485
841.153	22421
841.29	22672
841.427	22462
841.564	22577
841.701	22508
841.838	22523
841.975	22443
842.112	22462
842.249	22367
842.385	22405
842.522	22588
842.659	22382
842.796	22390
842.933	22303
843.069	22280
843.206	22272
843.343	22455
843.479	22249
843.616	22337
843.752	22131
843.889	22112
844.025	22238
844.162	22063
844.298	22207
844.435	22025
844.571	22032
844.708	22124
844.844	22299
844.98	22078
845.117	22196
845.253	22017
845.389	22032
845.525	22112
845.661	22010
845.798	21964
845.934	21926
846.07	21808
846.206	21755
846.342	21926
846.478	21728
846.614	21545
846.75	21606
846.886	21591
847.022	21629
847.158	21633
847.294	21610
847.429	21583
847.565	21549
847.701	21838
847.837	21306
847.972	21310
848.108	21473
848.244	21397
848.379	21104
848.515	21222
848.65	21241
848.786	21207
848.921	21165
849.057	21173
849.192	21287
849.328	21165
849.463	21218
849.598	21173
849.734	21203
849.869	20990
850.004	20994
850.14	20921
850.275	20956
850.41	20971
850.545	20887
850.68	20781
850.815	20971
850.95	20986
851.085	21062
851.22	21005
851.355	21055
851.49	20960
851.625	20925
851.76	20937
851.895	20864
852.03	20906
852.165	20872
852.299	20853
852.434	21135
852.569	20899
852.703	20910
852.838	20933
852.973	21131
853.107	21028
853.242	20845
853.376	20781
853.511	20583
853.645	20758
853.78	20876
853.914	20861
854.048	20773
854.183	20712
854.317	20693
854.451	20906
854.585	20785
854.72	20746
854.854	20815
854.988	20807
855.122	20815
855.256	20739
855.39	20735
855.524	20857
855.658	20861
855.792	20902
855.926	20777
856.06	20800
856.194	20895
856.327	20800
856.461	20868
856.595	20758
856.729	20765
856.862	20937
856.996	20887
857.13	20895
857.263	20792
857.397	20918
857.53	20735
857.664	20823
857.797	20929
857.931	20838
858.064	20769
858.197	20941
858.331	20765
858.464	20853
858.597	20777
858.731	20781
858.864	20773
858.997	20750
859.13	20705
859.263	20765
859.396	20834
859.529	20754
859.662	20735
859.795	20807
859.928	20830
860.061	20910
860.194	20982
860.327	20743
860.46	20849
860.592	20887
860.725	20914
860.858	20902
860.99	20682
861.123	20754
861.256	20701
861.388	20788
861.521	21485
861.653	20651
861.786	20533
861.918	20629
862.05	20686
862.183	20651
862.315	20758
862.447	20792
862.58	20705
862.712	20492
862.844	20495
862.976	20579
863.108	20556
863.24	21036
863.372	20446
863.504	20503
863.636	20298
863.768	20552
863.9	20446
864.032	20484
864.164	20469
864.296	20473
864.428	20564
864.559	20552
864.691	20533
864.823	20533
864.954	20495
865.086	20488
865.217	20286
865.349	20298
865.48	20408
865.612	20427
865.743	20514
865.875	20423
866.006	20328
866.137	20431
866.269	20286
866.4	20343
866.531	20377
866.662	20248
866.793	20374
866.924	20366
867.055	20370
867.186	20389
867.317	20240
867.448	20199
867.579	20393
867.71	20332
867.841	20328
867.972	20400
868.103	20252
868.233	20423
868.364	20343
868.495	20473
868.625	20560
868.756	20674
868.886	20663
869.017	20564
869.147	20533
869.278	20701
869.408	20625
869.539	20568
869.669	20594
869.799	20621
869.929	20720
870.06	20819
870.19	20910
870.32	20914
870.45	20876
870.58	20910
870.71	21100
870.84	20921
870.97	20967
871.1	21032
871.23	21199
871.36	21123
871.489	21104
871.619	21112
871.749	21188
871.879	21230
872.008	21321
872.138	21218
872.267	21138
872.397	21055
872.526	21013
872.656	20887
872.785	21058
872.915	21298
873.044	21283
873.173	21154
873.303	21268
873.432	21279
873.561	21298
873.69	21310
873.819	21237
873.948	21291
874.077	21294
874.206	21275
874.335	21272
874.464	21416
874.593	21492
874.722	21504
874.851	21519
874.979	21542
875.108	21363
875.237	21344
875.365	21275
875.494	21469
875.623	21515
875.751	21431
875.88	21511
876.008	21724
876.136	21599
876.265	21899
876.393	21972
876.521	21895
876.65	21899
876.778	21797
876.906	21869
877.034	21823
877.162	21850
877.29	21709
877.418	21800
877.546	21880
877.674	21743
877.802	21850
877.93	21827
878.058	21797
878.185	21762
878.313	21751
878.441	21770
878.568	21507
878.696	21766
878.824	21774
878.951	21842
879.079	22021
879.206	22139
879.333	22055
879.461	21869
879.588	21880
879.715	22063
879.842	22181
879.97	21812
880.097	21648
880.224	21690
880.351	21823
880.478	21545
880.605	21591
880.732	21580
880.859	21827
880.986	21629
881.112	21739
881.239	21435
881.366	21389
881.493	21237
881.619	21203
881.746	21268
881.872	21188
881.999	21138
882.125	21169
882.252	21192
882.378	21157
882.505	21294
882.631	21108
882.757	20910
882.883	21028
883.01	20880
883.136	20986
883.262	20693
883.388	20819
883.514	20845
883.64	20990
883.766	20845
883.892	20682
884.018	20693
884.143	20876
884.269	21039
884.395	20579
884.52	20522
884.646	20655
884.772	20686
884.897	20431
885.023	20613
885.148	20571
885.274	20697
885.399	20826
885.524	20560
885.65	20560
885.775	20564
885.9	20465
886.025	20632
886.15	20651
886.275	20450
886.4	20473
886.525	20537
886.65	20438
886.775	20438
886.9	20659
887.025	20769
887.149	20492
887.274	20339
887.399	20324
887.523	20332
887.648	20271
887.773	20271
887.897	20446
888.021	20442
888.146	20305
888.27	20442
888.395	20537
888.519	20355
888.643	20446
888.767	20400
888.891	20244
889.015	20142
889.139	20240
889.263	20161
889.387	20275
889.511	20290
889.635	20294
889.759	20142
889.883	20122
890.006	20233
890.13	20328
890.254	20153
890.377	19970
890.501	19909
890.624	19890
890.748	19974
890.871	19875
890.995	19723
891.118	19791
891.241	19769
891.364	19776
891.488	19822
891.611	19765
891.734	19693
891.857	19811
891.98	19746
892.103	19818
892.226	19742
892.349	19746
892.471	19567
892.594	19662
892.717	19715
892.839	19510
892.962	19609
893.085	19776
893.207	19696
893.33	19537
893.452	19529
893.575	19685
893.697	19552
893.819	19837
893.941	19917
894.064	19906
894.186	19586
894.308	19609
894.43	19784
894.552	19947
894.674	19780
894.796	19567
894.918	19537
895.04	19597
895.161	19674
895.283	19852
895.405	19590
895.526	19609
895.648	19753
895.769	19689
895.891	19597
896.012	19685
896.134	19662
896.255	19609
896.376	19590
896.498	19677
896.619	19677
896.74	19696
896.861	19784
896.982	20081
897.103	20145
897.224	19814
897.345	19826
897.466	19795
897.587	19860
897.708	19963
897.828	19944
897.949	19757
898.07	19693
898.19	19795
898.311	19940
898.431	19833
898.552	19742
898.672	19860
898.792	19883
898.913	19830
899.033	19746
899.153	19533
899.273	19643
899.393	19651
899.513	19651
899.633	19597
899.753	19651
899.873	19559
899.993	19632
900.113	19567
900.232	19582
900.352	19590
900.472	19441
900.591	19407
900.711	19552
900.83	19358
900.95	19601
901.069	19499
901.189	19358
901.308	19053
901.427	18962
901.546	19110
901.665	19034
901.784	19050
901.904	18909
902.023	18760
902.141	18582
902.26	18559
902.379	18658
902.498	18467
902.617	18414
902.735	18563
902.854	18399
902.973	18445
903.091	18117
903.21	18152
903.328	18133
903.446	18114
903.565	18057
903.683	18030
903.801	17927
903.919	17923
904.038	17950
904.156	17813
904.274	17889
904.392	17668
904.51	17866
904.627	17760
904.745	17718
904.863	17764
904.981	17630
905.098	17520
905.216	17448
905.334	17376
905.451	17421
905.569	17395
905.686	17539
905.803	17379
905.921	17185
906.038	17299
906.155	17204
906.272	16999
906.389	17159
906.506	17037
906.623	17022
906.74	17033
906.857	16866
906.974	16889
907.091	16999
907.208	17143
907.324	16866
907.441	16927
907.557	16733
907.674	16748
907.79	16637
907.907	16649
908.023	16679
908.139	16797
908.256	16675
908.372	16672
908.488	16577
908.604	16409
908.72	16337
908.836	16466
908.952	16424
909.068	16497
909.184	16565
909.3	16421
909.415	16390
909.531	16337
909.647	16188
909.762	16051
909.878	16139
909.993	16196
910.108	16131
910.224	16124
910.339	16173
910.454	16025
910.57	15930
910.685	15899
910.8	16169
910.915	16097
911.03	15838
911.145	15747
911.259	15808
911.374	15755
911.489	15553
911.604	15641
911.718	15561
911.833	15576
911.947	15469
912.062	15291
912.176	15504
912.291	15515
912.405	15591
912.519	15591
912.633	15625
912.748	15576
912.862	15485
912.976	15287
913.09	15173
913.204	15310
913.318	15317
913.431	15469
913.545	15332
913.659	15378
913.772	15313
913.886	15214
914	15039
914.113	15230
914.226	15203
914.34	15097
914.453	15017
914.566	15180
914.68	14948
914.793	14906
914.906	14826
915.019	14777
915.132	14686
915.245	14686
915.358	14796
915.47	14674
915.583	14625
915.696	14743
915.809	14891
915.921	14853
916.034	14727
916.146	14644
916.259	14560
916.371	14689
916.483	14682
916.595	14575
916.708	14640
916.82	14602
916.932	14533
917.044	14488
917.156	14450
917.268	14431
917.38	14457
917.491	14377
917.603	14347
917.715	14393
917.826	14400
917.938	14343
918.049	14328
918.161	14389
918.272	14503
918.384	14374
918.495	14366
918.606	14126
918.717	14210
918.828	14183
918.939	14195
919.05	14058
919.161	14084
919.272	13917
919.383	14039
919.494	14218
919.604	14271
919.715	14263
919.826	14073
919.936	14145
920.047	14259
920.157	14077
920.267	14336
920.378	14263
920.488	14126
920.598	14396
920.708	14423
920.818	14298
920.928	14374
921.038	14370
921.148	14442
921.258	14225
921.368	13978
921.477	13944
921.587	13928
921.697	13715
921.806	13894
921.916	13723
922.025	13651
922.134	13552
922.244	13537
922.353	13582
922.462	13438
922.571	13480
922.68	13217
922.789	13221
922.898	13293
923.007	13095
923.116	13228
923.224	13206
923.333	13160
923.442	13114
923.55	13031
923.659	13023
923.767	13141
923.876	12989
923.984	13088
924.092	12886
924.201	12966
924.309	13008
924.417	12897
924.525	12943
924.633	12981
924.741	13548
924.849	12768
924.956	12825
925.064	12715
925.172	12563
925.279	12597
925.387	12650
925.494	12711
925.602	12787
925.709	12635
925.816	12627
925.924	12559
926.031	12635
926.138	12620
926.245	12627
926.352	12506
926.459	12669
926.566	12646
926.673	12551
926.779	12433
926.886	12388
926.993	12205
927.099	12182
927.206	12197
927.312	12201
927.419	12243
927.525	12209
927.631	12292
927.737	12087
927.843	12076
927.95	12026
928.056	12083
928.162	11958
928.267	11996
928.373	12639
928.479	12148
928.585	11901
928.69	11969
928.796	12034
928.901	11977
929.007	11832
929.112	11870
929.218	11775
929.323	11885
929.428	11756
929.533	11923
929.638	11676
929.743	11764
929.848	11688
929.953	11802
930.058	11657
930.163	11474
930.267	11501
930.372	11638
930.477	11383
930.581	11745
930.685	11539
930.79	11383
930.894	11455
930.998	11349
931.103	11448
931.207	11105
931.311	11018
931.415	10923
931.519	10797
931.623	10717
