Data from test_V78500241_1232.txt Node
Date: Fri Mar 25 15:18:26 CST 2022
User: usil
Spectrometer: V785-0024
Trigger mode: 0
Integration Time (sec): 4.000000E-1
Scans to average: 1
Nonlinearity correction enabled: false
Boxcar width: 0
Storing dark spectrum: false
XAxis mode: Wavelengths
Number of Pixels in Spectrum: 1024
>>>>>Begin Spectral Data<<<<<
801.071	28097
801.214	28169
801.356	27759
801.499	27656
801.641	27511
801.783	27622
801.926	27827
802.068	27660
802.211	27603
802.353	27656
802.496	27401
802.638	27325
802.78	27321
802.923	27283
803.065	27207
803.208	27275
803.35	27252
803.492	27492
803.635	27519
803.777	27412
803.919	27534
804.061	27842
804.204	27694
804.346	27462
804.488	27481
804.63	27545
804.773	27408
804.915	27553
805.057	27812
805.199	27561
805.341	27633
805.483	27698
805.626	27701
805.768	27606
805.91	27667
806.052	27648
806.194	27545
806.336	27823
806.478	27766
806.62	27759
806.762	27717
806.904	27998
807.046	28158
807.188	28067
807.33	28086
807.472	28128
807.614	28112
807.756	28048
807.898	28006
808.04	28010
808.182	28002
808.324	27975
808.465	28013
808.607	28280
808.749	28398
808.891	28508
809.033	28485
809.174	28424
809.316	28306
809.458	28356
809.6	28333
809.741	28523
809.883	28573
810.025	28440
810.166	28668
810.308	28649
810.45	28630
810.591	28481
810.733	28470
810.875	28318
811.016	28173
811.158	28223
811.299	28367
811.441	28485
811.582	28443
811.724	28341
811.865	28341
812.007	28303
812.148	28230
812.29	28314
812.431	28504
812.573	28607
812.714	28755
812.855	28790
812.997	28862
813.138	29010
813.279	29079
813.421	28934
813.562	28896
813.703	28786
813.845	28649
813.986	28265
814.127	28158
814.268	28055
814.41	28169
814.551	27964
814.692	28093
814.833	28010
814.974	27842
815.115	27987
815.256	27854
815.397	27861
815.539	27888
815.68	27895
815.821	27835
815.962	27911
816.103	27770
816.244	27800
816.385	27641
816.526	27610
816.666	27431
816.807	27298
816.948	27576
817.089	27625
817.23	27504
817.371	27367
817.512	27321
817.653	27249
817.793	27405
817.934	27355
818.075	27450
818.216	27340
818.356	27283
818.497	27378
818.638	27116
818.778	27032
818.919	27226
819.06	27279
819.2	27214
819.341	27370
819.481	27321
819.622	27496
819.762	27816
819.903	27663
820.043	27595
820.184	27408
820.324	27408
820.465	27591
820.605	27424
820.746	27416
820.886	27332
821.026	27435
821.167	27500
821.307	27492
821.447	27401
821.588	27268
821.728	27119
821.868	26906
822.008	26823
822.149	26788
822.289	26868
822.429	26533
822.569	26495
822.709	26541
822.849	26370
822.99	26480
823.13	26370
823.27	26157
823.41	26294
823.55	26031
823.69	26206
823.83	26096
823.97	26138
824.11	26035
824.25	25769
824.389	26016
824.529	26126
824.669	25989
824.809	26050
824.949	26180
825.089	26031
825.228	26012
825.368	25860
825.508	25902
825.648	25913
825.787	25791
825.927	25917
826.067	25841
826.206	25883
826.346	25947
826.485	25913
826.625	25860
826.765	26043
826.904	26024
827.044	25521
827.183	25708
827.323	25647
827.462	25693
827.601	25674
827.741	25647
827.88	25822
828.02	25544
828.159	25487
828.298	25438
828.437	25476
828.577	25499
828.716	25696
828.855	25438
828.994	25320
829.134	25244
829.273	25403
829.412	25251
829.551	25118
829.69	25244
829.829	25327
829.968	25396
830.107	25320
830.246	25278
830.385	25213
830.524	25141
830.663	25095
830.802	25023
830.941	25000
831.08	24886
831.219	25031
831.357	24932
831.496	25038
831.635	24973
831.774	24882
831.913	24795
832.051	24760
832.19	24730
832.329	24791
832.467	24540
832.606	24589
832.744	24593
832.883	24646
833.022	24551
833.16	24612
833.299	24677
833.437	24669
833.576	24745
833.714	24677
833.852	24700
833.991	24703
834.129	24741
834.267	24608
834.406	24726
834.544	24616
834.682	24856
834.821	24650
834.959	24776
835.097	24616
835.235	24745
835.373	24722
835.511	24585
835.65	24623
835.788	24517
835.926	24361
836.064	24296
836.202	24258
836.34	24448
836.478	24703
836.615	24585
836.753	24502
836.891	24551
837.029	24528
837.167	24502
837.305	24418
837.443	24380
837.58	24289
837.718	24429
837.856	24285
837.993	24281
838.131	24369
838.269	24209
838.406	24308
838.544	24285
838.681	23939
838.819	23958
838.956	23726
839.094	23908
839.231	23923
839.369	24015
839.506	24110
839.643	24049
839.781	23859
839.918	23828
840.055	23889
840.193	23843
840.33	23752
840.467	23630
840.604	23805
840.742	23988
840.879	23600
841.016	23680
841.153	23653
841.29	23847
841.427	23714
841.564	23653
841.701	23676
841.838	23646
841.975	23703
842.112	23520
842.249	23509
842.385	23467
842.522	23619
842.659	23497
842.796	23452
842.933	23391
843.069	23448
843.206	23387
843.343	23554
843.479	23661
843.616	23642
843.752	23296
843.889	23246
844.025	23334
844.162	23254
844.298	23330
844.435	23178
844.571	23330
844.708	23311
844.844	23368
844.98	23410
845.117	23368
845.253	23178
845.389	23033
845.525	23216
845.661	23052
845.798	22972
845.934	23025
846.07	22995
846.206	23010
846.342	23143
846.478	23037
846.614	22729
846.75	22782
846.886	22710
847.022	22793
847.158	22752
847.294	22839
847.429	22706
847.565	22664
847.701	22873
847.837	22459
847.972	22394
848.108	22546
848.244	22588
848.379	22405
848.515	22238
848.65	22344
848.786	22318
848.921	22348
849.057	22375
849.192	22352
849.328	22280
849.463	22303
849.598	22337
849.734	22200
849.869	22257
850.004	22017
850.14	22059
850.275	21998
850.41	21994
850.545	21930
850.68	22074
850.815	22070
850.95	21983
851.085	22314
851.22	22299
851.355	22032
851.49	22070
851.625	22067
851.76	22029
851.895	21953
852.03	21895
852.165	22021
852.299	22006
852.434	22112
852.569	22105
852.703	22067
852.838	22086
852.973	22268
853.107	22105
853.242	21915
853.376	22044
853.511	21831
853.645	21842
853.78	22093
853.914	21785
854.048	21884
854.183	21846
854.317	21785
854.451	22070
854.585	21854
854.72	21873
854.854	21907
854.988	21884
855.122	21823
855.256	21739
855.39	21808
855.524	21926
855.658	21930
855.792	21895
855.926	21895
856.06	21926
856.194	21899
856.327	21930
856.461	21865
856.595	21865
856.729	21854
856.862	21987
856.996	21907
857.13	21945
857.263	22074
857.397	21861
857.53	21819
857.664	22006
857.797	21964
857.931	22040
858.064	21983
858.197	21987
858.331	21838
858.464	21835
858.597	21671
858.731	21747
858.864	21713
858.997	21812
859.13	21949
859.263	21876
859.396	21991
859.529	21766
859.662	21789
859.795	21838
859.928	21880
860.061	22078
860.194	21972
860.327	22070
860.46	21846
860.592	22067
860.725	22105
860.858	21960
860.99	21854
861.123	21857
861.256	21915
861.388	21915
861.521	22542
861.653	21671
861.786	21648
861.918	21618
862.05	21747
862.183	21713
862.315	21785
862.447	21884
862.58	21743
862.712	21519
862.844	21496
862.976	21747
863.108	21819
863.24	21987
863.372	21538
863.504	21557
863.636	21663
863.768	21660
863.9	21553
864.032	21652
864.164	21542
864.296	21591
864.428	21736
864.559	21644
864.691	21580
864.823	21667
864.954	21469
865.086	21515
865.217	21595
865.349	21302
865.48	21443
865.612	21466
865.743	21610
865.875	21435
866.006	21370
866.137	21458
866.269	21469
866.4	21466
866.531	21424
866.662	21401
866.793	21348
866.924	21424
867.055	21462
867.186	21492
867.317	21428
867.448	21397
867.579	21450
867.71	21367
867.841	21310
867.972	21389
868.103	21359
868.233	21424
868.364	21473
868.495	21492
868.625	21656
868.756	21759
868.886	21610
869.017	21713
869.147	21888
869.278	21743
869.408	21561
869.539	21545
869.669	21660
869.799	21595
869.929	21762
870.06	21705
870.19	21865
870.32	21945
870.45	22044
870.58	22101
870.71	22055
870.84	22051
870.97	21983
871.1	21983
871.23	22162
871.36	22265
871.489	22162
871.619	22192
871.749	22295
871.879	22371
872.008	22386
872.138	22246
872.267	22207
872.397	22139
872.526	22093
872.656	22006
872.785	22040
872.915	22211
873.044	22230
873.173	22230
873.303	22314
873.432	22348
873.561	22344
873.69	22295
873.819	22356
873.948	22310
874.077	22348
874.206	22284
874.335	22143
874.464	22352
874.593	22546
874.722	22386
874.851	22504
874.979	22485
875.108	22546
875.237	22386
875.365	22303
875.494	22478
875.623	22611
875.751	22557
875.88	22561
876.008	22462
876.136	22592
876.265	22778
876.393	22980
876.521	22942
876.65	22995
876.778	22866
876.906	22759
877.034	22664
877.162	22835
877.29	22877
877.418	22763
877.546	22725
877.674	22660
877.802	22801
877.93	22790
878.058	22793
878.185	22706
878.313	22744
878.441	22653
878.568	22618
878.696	22717
878.824	22869
878.951	22919
879.079	22972
879.206	23075
879.333	22995
879.461	22809
879.588	22934
879.715	22961
879.842	23033
879.97	22949
880.097	22679
880.224	22588
880.351	22683
880.478	22706
880.605	22622
880.732	22596
880.859	22713
880.986	22569
881.112	22710
881.239	22489
881.366	22417
881.493	22371
881.619	22242
881.746	22078
881.872	22314
881.999	22135
882.125	22116
882.252	22306
882.378	22272
882.505	22154
882.631	22040
882.757	21926
882.883	22070
883.01	21956
883.136	21918
883.262	21641
883.388	21808
883.514	21968
883.64	21831
883.766	21793
883.892	21637
884.018	21724
884.143	21850
884.269	21941
884.395	21686
884.52	21500
884.646	21591
884.772	21481
884.897	21477
885.023	21507
885.148	21644
885.274	21705
885.399	21542
885.524	21595
885.65	21496
885.775	21424
885.9	21431
886.025	21526
886.15	21587
886.275	21408
886.4	21511
886.525	21507
886.65	21568
886.775	21462
886.9	21625
887.025	21751
887.149	21587
887.274	21249
887.399	21370
887.523	21294
887.648	21279
887.773	21184
887.897	21348
888.021	21420
888.146	21268
888.27	21408
888.395	21420
888.519	21359
888.643	21443
888.767	21272
888.891	21089
889.015	21150
889.139	21161
889.263	21192
889.387	21306
889.511	21306
889.635	21226
889.759	21157
889.883	21108
890.006	21173
890.13	21207
890.254	20891
890.377	21001
890.501	20781
890.624	20876
890.748	20834
890.871	20590
890.995	20640
891.118	20655
891.241	20663
891.364	20636
891.488	20925
891.611	20682
891.734	20602
891.857	20655
891.98	20743
892.103	20724
892.226	20594
892.349	20514
892.471	20427
892.594	20640
892.717	20670
892.839	20533
892.962	20560
893.085	20617
893.207	20571
893.33	20412
893.452	20404
893.575	20629
893.697	20495
893.819	20621
893.941	20796
894.064	20731
894.186	20423
894.308	20560
894.43	20579
894.552	20720
894.674	20629
894.796	20343
894.918	20427
895.04	20530
895.161	20549
895.283	20552
895.405	20419
895.526	20522
895.648	20492
895.769	20507
895.891	20526
896.012	20659
896.134	20556
896.255	20522
896.376	20522
896.498	20404
896.619	20583
896.74	20484
896.861	20606
896.982	20864
897.103	21020
897.224	20697
897.345	20750
897.466	20663
897.587	20739
897.708	20724
897.828	20826
897.949	20644
898.07	20568
898.19	20590
898.311	20758
898.431	20735
898.552	20769
898.672	20842
898.792	20727
898.913	20743
899.033	20686
899.153	20518
899.273	20412
899.393	20503
899.513	20541
899.633	20533
899.753	20400
899.873	20488
899.993	20347
900.113	20370
900.232	20522
900.352	20480
900.472	20195
900.591	20244
900.711	20320
900.83	20282
900.95	20415
901.069	20370
901.189	20103
901.308	19856
901.427	19951
901.546	19814
901.665	19883
901.784	19757
901.904	19693
902.023	19567
902.141	19476
902.26	19403
902.379	19441
902.498	19312
902.617	19324
902.735	19365
902.854	19400
902.973	19381
903.091	18989
903.21	19095
903.328	19065
903.446	18920
903.565	18935
903.683	18894
903.801	18707
903.919	18730
904.038	18707
904.156	18616
904.274	18677
904.392	18547
904.51	18532
904.627	18677
904.745	18528
904.863	18661
904.981	18422
905.098	18292
905.216	18148
905.334	18296
905.451	18395
905.569	18304
905.686	18285
905.803	18296
905.921	18087
906.038	18152
906.155	18114
906.272	17996
906.389	18022
906.506	17832
906.623	17794
906.74	17760
906.857	17779
906.974	17809
907.091	17828
907.208	17912
907.324	17790
907.441	17760
907.557	17501
907.674	17596
907.79	17505
907.907	17459
908.023	17729
908.139	17558
908.256	17497
908.372	17349
908.488	17356
908.604	17250
908.72	17284
908.836	17261
908.952	17140
909.068	17239
909.184	17315
909.3	17231
909.415	17273
909.531	17330
909.647	17025
909.762	16934
909.878	16984
909.993	16919
910.108	16824
910.224	16774
910.339	16866
910.454	16767
910.57	16713
910.685	16592
910.8	16915
910.915	16805
911.03	16713
911.145	16599
911.259	16497
911.374	16573
911.489	16356
911.604	16363
911.718	16299
911.833	16299
911.947	16166
912.062	16090
912.176	16253
912.291	16268
912.405	16204
912.519	16436
912.633	16390
912.748	16295
912.862	16215
912.976	16135
913.09	16044
913.204	16101
913.318	16040
913.431	16128
913.545	16120
913.659	16185
913.772	16021
913.886	15857
914	15861
914.113	16048
914.226	15945
914.34	15945
914.453	15816
914.566	15934
914.68	15728
914.793	15720
914.906	15576
915.019	15401
915.132	15424
915.245	15473
915.358	15431
915.47	15458
915.583	15370
915.696	15557
915.809	15542
915.921	15511
916.034	15389
916.146	15336
916.259	15370
916.371	15439
916.483	15439
916.595	15241
916.708	15222
916.82	15374
916.932	15142
917.044	15180
917.156	15233
917.268	15093
917.38	15161
917.491	15108
917.603	15036
917.715	15169
917.826	15302
917.938	15017
918.049	15001
918.161	15176
918.272	15173
918.384	15116
918.495	14994
918.606	14933
918.717	14857
918.828	14948
918.939	14864
919.05	14807
919.161	14792
919.272	14663
919.383	14659
919.494	14910
919.604	15028
919.715	14796
919.826	14705
919.936	14811
920.047	14861
920.157	14811
920.267	15032
920.378	14849
920.488	14762
920.598	14963
920.708	14982
920.818	14929
920.928	14986
921.038	15077
921.148	15028
921.258	14762
921.368	14533
921.477	14549
921.587	14545
921.697	14404
921.806	14629
921.916	14336
922.025	14225
922.134	14191
922.244	14103
922.353	14252
922.462	14096
922.571	14008
922.68	13925
922.789	13830
922.898	13826
923.007	13818
923.116	13830
923.224	13795
923.333	13746
923.442	13662
923.55	13605
923.659	13632
923.767	13689
923.876	13624
923.984	13601
924.092	13525
924.201	13502
924.309	13544
924.417	13567
924.525	13480
924.633	13480
924.741	14271
924.849	13244
924.956	13445
925.064	13259
925.172	13171
925.279	13160
925.387	13228
925.494	13270
925.602	13320
925.709	13282
925.816	13209
925.924	13084
926.031	13160
926.138	13175
926.245	13190
926.352	13080
926.459	13209
926.566	13141
926.673	13031
926.779	12973
926.886	12989
926.993	12920
927.099	12783
927.206	12760
927.312	12757
927.419	12833
927.525	12719
927.631	12703
927.737	12688
927.843	12597
927.95	12517
928.056	12540
928.162	12574
928.267	12681
928.373	13266
928.479	12779
928.585	12479
928.69	12559
928.796	12563
928.901	12414
929.007	12315
929.112	12403
929.218	12433
929.323	12350
929.428	12262
929.533	12372
929.638	12281
929.743	12273
929.848	12296
929.953	12243
930.058	12140
930.163	12015
930.267	11939
930.372	12068
930.477	11927
930.581	12251
930.685	12026
930.79	11950
930.894	11912
930.998	11863
931.103	11958
931.207	11623
931.311	11543
931.415	11429
931.519	11288
931.623	11269
