Data from test_V78500241_733.txt Node
Date: Fri Mar 25 15:14:57 CST 2022
User: usil
Spectrometer: V785-0024
Trigger mode: 0
Integration Time (sec): 4.000000E-1
Scans to average: 1
Nonlinearity correction enabled: false
Boxcar width: 0
Storing dark spectrum: false
XAxis mode: Wavelengths
Number of Pixels in Spectrum: 1024
>>>>>Begin Spectral Data<<<<<
801.071	27660
801.214	27511
801.356	27469
801.499	27351
801.641	27298
801.783	27275
801.926	27291
802.068	27173
802.211	27032
802.353	27230
802.496	26940
802.638	26792
802.78	26986
802.923	26807
803.065	26777
803.208	26937
803.35	26864
803.492	27081
803.635	27032
803.777	26880
803.919	27123
804.061	27450
804.204	27127
804.346	27104
804.488	26963
804.63	27047
804.773	26998
804.915	27135
805.057	27279
805.199	26921
805.341	27146
805.483	27260
805.626	27264
805.768	26967
805.91	27062
806.052	27199
806.194	27184
806.336	27401
806.478	27340
806.62	27184
806.762	27252
806.904	27420
807.046	27713
807.188	27583
807.33	27587
807.472	27671
807.614	27545
807.756	27739
807.898	27542
808.04	27408
808.182	27618
808.324	27382
808.465	27488
808.607	27762
808.749	27759
808.891	28013
809.033	27934
809.174	28105
809.316	27793
809.458	27914
809.6	27994
809.741	27949
809.883	28017
810.025	28128
810.166	28265
810.308	28109
810.45	28082
810.591	28143
810.733	27888
810.875	27793
811.016	27682
811.158	27743
811.299	27930
811.441	28086
811.582	27994
811.724	27785
811.865	27816
812.007	27911
812.148	27846
812.29	28006
812.431	27979
812.573	28226
812.714	28238
812.855	28436
812.997	28493
813.138	28618
813.279	28550
813.421	28504
813.562	28424
813.703	28314
813.845	28070
813.986	27876
814.127	27587
814.268	27481
814.41	27534
814.551	27641
814.692	27736
814.833	27477
814.974	27500
815.115	27675
815.256	27424
815.397	27439
815.539	27439
815.68	27325
815.821	27264
815.962	27344
816.103	27317
816.244	27283
816.385	27047
816.526	27024
816.666	26944
816.807	26918
816.948	26758
817.089	26940
817.23	26804
817.371	26830
817.512	26891
817.653	26769
817.793	26712
817.934	26792
818.075	26842
818.216	26864
818.356	26830
818.497	26838
818.638	26663
818.778	26511
818.919	26678
819.06	26659
819.2	26682
819.341	26876
819.481	26902
819.622	26971
819.762	27066
819.903	27180
820.043	27123
820.184	26994
820.324	26948
820.465	27055
820.605	26982
820.746	27017
820.886	26769
821.026	26933
821.167	26921
821.307	26944
821.447	26864
821.588	26800
821.728	26708
821.868	26450
822.008	26385
822.149	26275
822.289	26233
822.429	26065
822.569	25947
822.709	25974
822.849	25871
822.99	25856
823.13	25795
823.27	25826
823.41	25616
823.55	25392
823.69	25609
823.83	25613
823.97	25582
824.11	25388
824.25	25365
824.389	25514
824.529	25373
824.669	25434
824.809	25613
824.949	25510
825.089	25495
825.228	25426
825.368	25373
825.508	25289
825.648	25438
825.787	25362
825.927	25434
826.067	25259
826.206	25472
826.346	25381
826.485	25346
826.625	25491
826.765	25426
826.904	25274
827.044	25088
827.183	25114
827.323	25038
827.462	25091
827.601	25038
827.741	25050
827.88	25031
828.02	24954
828.159	25076
828.298	24970
828.437	25000
828.577	25012
828.716	25133
828.855	24920
828.994	24806
829.134	24802
829.273	24852
829.412	24734
829.551	24601
829.69	24795
829.829	24741
829.968	24863
830.107	24821
830.246	24745
830.385	24700
830.524	24589
830.663	24544
830.802	24559
830.941	24353
831.08	24327
831.219	24509
831.357	24300
831.496	24521
831.635	24395
831.774	24258
831.913	24163
832.051	24129
832.19	24026
832.329	24186
832.467	24091
832.606	24003
832.744	24083
832.883	24022
833.022	23965
833.16	24114
833.299	24076
833.437	24076
833.576	24083
833.714	23996
833.852	24072
833.991	24148
834.129	24144
834.267	24171
834.406	24098
834.544	24087
834.682	24018
834.821	24083
834.959	24140
835.097	24068
835.235	24030
835.373	24038
835.511	24083
835.65	23912
835.788	23916
835.926	23786
836.064	23756
836.202	23824
836.34	23859
836.478	23973
836.615	23931
836.753	23870
836.891	24011
837.029	23980
837.167	23821
837.305	23741
837.443	23832
837.58	23665
837.718	23741
837.856	23836
837.993	23733
838.131	23790
838.269	23577
838.406	23695
838.544	23570
838.681	23387
838.819	23337
838.956	23200
839.094	23117
839.231	23258
839.369	23368
839.506	23653
839.643	23318
839.781	23193
839.918	23128
840.055	23227
840.193	23181
840.33	23151
840.467	23155
840.604	23143
840.742	23353
840.879	22995
841.016	23044
841.153	23067
841.29	23178
841.427	23109
841.564	23105
841.701	23193
841.838	23185
841.975	22995
842.112	22908
842.249	22923
842.385	22885
842.522	23041
842.659	22850
842.796	22873
842.933	22889
843.069	22740
843.206	22953
843.343	22961
843.479	22892
843.616	22965
843.752	22561
843.889	22778
844.025	22778
844.162	22725
844.298	22752
844.435	22672
844.571	22592
844.708	22634
844.844	22782
844.98	22744
845.117	22721
845.253	22592
845.389	22470
845.525	22569
845.661	22538
845.798	22413
845.934	22451
846.07	22238
846.206	22371
846.342	22550
846.478	22363
846.614	22040
846.75	22017
846.886	22036
847.022	22158
847.158	22135
847.294	22048
847.429	22169
847.565	22086
847.701	22242
847.837	21785
847.972	21747
848.108	21994
848.244	21979
848.379	21846
848.515	21671
848.65	21732
848.786	21682
848.921	21781
849.057	21755
849.192	21823
849.328	21709
849.463	21766
849.598	21580
849.734	21682
849.869	21561
850.004	21466
850.14	21599
850.275	21443
850.41	21526
850.545	21500
850.68	21431
850.815	21492
850.95	21488
851.085	21580
851.22	21572
851.355	21542
851.49	21485
851.625	21431
851.76	21545
851.895	21359
852.03	21378
852.165	21481
852.299	21458
852.434	21713
852.569	21538
852.703	21545
852.838	21488
852.973	21542
853.107	21564
853.242	21458
853.376	21336
853.511	21188
853.645	21203
853.78	21416
853.914	21351
854.048	21230
854.183	21287
854.317	21313
854.451	21568
854.585	21199
854.72	21317
854.854	21279
854.988	21192
855.122	21344
855.256	21089
855.39	21359
855.524	21466
855.658	21439
855.792	21252
855.926	21382
856.06	21306
856.194	21405
856.327	21241
856.461	21329
856.595	21306
856.729	21233
856.862	21302
856.996	21374
857.13	21294
857.263	21416
857.397	21473
857.53	21310
857.664	21428
857.797	21272
857.931	21389
858.064	21279
858.197	21439
858.331	21291
858.464	21283
858.597	21230
858.731	21344
858.864	21226
858.997	21252
859.13	21272
859.263	21260
859.396	21435
859.529	21306
859.662	21165
859.795	21256
859.928	21302
860.061	21408
860.194	21504
860.327	21283
860.46	21386
860.592	21458
860.725	21424
860.858	21298
860.99	21313
861.123	21230
861.256	21256
861.388	21252
861.521	22086
861.653	21211
861.786	21032
861.918	21112
862.05	21214
862.183	21085
862.315	21260
862.447	21420
862.58	21222
862.712	21085
862.844	20990
862.976	21070
863.108	21184
863.24	21374
863.372	21009
863.504	20990
863.636	20990
863.768	21017
863.9	21077
864.032	20979
864.164	20967
864.296	20975
864.428	21074
864.559	21058
864.691	21001
864.823	21047
864.954	20967
865.086	20960
865.217	21005
865.349	20853
865.48	20895
865.612	20979
865.743	21089
865.875	20994
866.006	20849
866.137	20857
866.269	20838
866.4	20982
866.531	20857
866.662	20754
866.793	20811
866.924	20796
867.055	20849
867.186	20906
867.317	20845
867.448	20568
867.579	20849
867.71	20705
867.841	20693
867.972	20891
868.103	20834
868.233	20887
868.364	20746
868.495	20910
868.625	21051
868.756	21154
868.886	20998
869.017	21104
869.147	21203
869.278	21260
869.408	21093
869.539	21123
869.669	21226
869.799	21108
869.929	21256
870.06	21218
870.19	21264
870.32	21424
870.45	21496
870.58	21469
870.71	21614
870.84	21641
870.97	21557
871.1	21363
871.23	21694
871.36	21644
871.489	21549
871.619	21625
871.749	21717
871.879	21701
872.008	21800
872.138	21564
872.267	21614
872.397	21576
872.526	21610
872.656	21557
872.785	21526
872.915	21755
873.044	21785
873.173	21686
873.303	21648
873.432	21793
873.561	21713
873.69	21759
873.819	21698
873.948	21675
874.077	21838
874.206	21797
874.335	21747
874.464	21835
874.593	21903
874.722	21926
874.851	21934
874.979	21899
875.108	22036
875.237	21781
875.365	21808
875.494	21850
875.623	21937
875.751	21854
875.88	22006
876.008	22036
876.136	22097
876.265	22268
876.393	22413
876.521	22265
876.65	22421
876.778	22234
876.906	22246
877.034	22143
877.162	22287
877.29	22268
877.418	22295
877.546	22344
877.674	22284
877.802	22090
877.93	22257
878.058	22207
878.185	22154
878.313	22188
878.441	22268
878.568	21960
878.696	22112
878.824	22253
878.951	22249
879.079	22405
879.206	22455
879.333	22508
879.461	22352
879.588	22265
879.715	22348
879.842	22462
879.97	22360
880.097	21994
880.224	22173
880.351	22207
880.478	22196
880.605	22093
880.732	22048
880.859	22268
880.986	22177
881.112	22059
881.239	21949
881.366	21808
881.493	21781
881.619	21717
881.746	21572
881.872	21671
881.999	21701
882.125	21545
882.252	21705
882.378	21629
882.505	21747
882.631	21534
882.757	21344
882.883	21473
883.01	21325
883.136	21389
883.262	21230
883.388	21245
883.514	21477
883.64	21325
883.766	21237
883.892	21077
884.018	21260
884.143	21321
884.269	21363
884.395	21077
884.52	20891
884.646	20921
884.772	20857
884.897	20853
885.023	21009
885.148	21112
885.274	21211
885.399	21161
885.524	21093
885.65	21032
885.775	20994
885.9	20887
886.025	21070
886.15	21096
886.275	20975
886.4	20895
886.525	20918
886.65	20975
886.775	20975
886.9	21138
887.025	21135
887.149	21043
887.274	20758
887.399	20625
887.523	20804
887.648	20788
887.773	20670
887.897	20727
888.021	20785
888.146	20697
888.27	20887
888.395	20933
888.519	20887
888.643	20765
888.767	20910
888.891	20648
889.015	20560
889.139	20526
889.263	20571
889.387	20648
889.511	20731
889.635	20834
889.759	20560
889.883	20469
890.006	20488
890.13	20716
890.254	20461
890.377	20480
890.501	20457
890.624	20275
890.748	20370
890.871	20225
890.995	20142
891.118	20100
891.241	20081
891.364	20214
891.488	20271
891.611	20206
891.734	20092
891.857	20107
891.98	20039
892.103	20229
892.226	20263
892.349	20062
892.471	19883
892.594	20142
892.717	20092
892.839	20001
892.962	20031
893.085	20161
893.207	20111
893.33	20020
893.452	19940
893.575	20020
893.697	20031
893.819	20259
893.941	20210
894.064	20294
894.186	19955
894.308	19890
894.43	20016
894.552	20278
894.674	20199
894.796	19928
894.918	20046
895.04	20035
895.161	20039
895.283	20096
895.405	19936
895.526	19989
895.648	20054
895.769	19959
895.891	20043
896.012	20100
896.134	20027
896.255	20107
896.376	19978
896.498	20031
896.619	20008
896.74	20100
896.861	20119
896.982	20305
897.103	20438
897.224	20332
897.345	20237
897.466	20229
897.587	20317
897.708	20252
897.828	20317
897.949	20267
898.07	20073
898.19	20187
898.311	20317
898.431	20164
898.552	20290
898.672	20229
898.792	20362
898.913	20233
899.033	20126
899.153	20077
899.273	20008
899.393	19974
899.513	20161
899.633	19974
899.753	19982
899.873	19898
899.993	20050
900.113	20077
900.232	20005
900.352	19963
900.472	19879
900.591	19715
900.711	19807
900.83	19791
900.95	19883
901.069	19864
901.189	19628
901.308	19556
901.427	19400
901.546	19365
901.665	19403
901.784	19445
901.904	19362
902.023	19202
902.141	18924
902.26	18939
902.379	18897
902.498	18905
902.617	18863
902.735	19027
902.854	18943
902.973	18924
903.091	18532
903.21	18616
903.328	18582
903.446	18601
903.565	18410
903.683	18308
903.801	18266
903.919	18342
904.038	18239
904.156	18098
904.274	18304
904.392	18144
904.51	18106
904.627	18209
904.745	18182
904.863	18144
904.981	17882
905.098	17748
905.216	17783
905.334	17649
905.451	17809
905.569	17855
905.686	17878
905.803	17779
905.921	17600
906.038	17577
906.155	17653
906.272	17592
906.389	17543
906.506	17448
906.623	17356
906.74	17242
906.857	17311
906.974	17288
907.091	17398
907.208	17429
907.324	17406
907.441	17288
907.557	17151
907.674	17045
907.79	16987
907.907	17060
908.023	17143
908.139	17041
908.256	16980
908.372	16965
908.488	16999
908.604	16953
908.72	16630
908.836	16847
908.952	16843
909.068	16713
909.184	16999
909.3	16763
909.415	16805
909.531	16622
909.647	16550
909.762	16485
909.878	16470
909.993	16535
910.108	16421
910.224	16497
910.339	16428
910.454	16276
910.57	16265
910.685	16261
910.8	16394
910.915	16508
911.03	16265
911.145	16169
911.259	16135
911.374	16093
911.489	15972
911.604	15888
911.718	15911
911.833	15888
911.947	15587
912.062	15595
912.176	15717
912.291	15903
912.405	15724
912.519	15922
912.633	16002
912.748	15774
912.862	15759
912.976	15698
913.09	15488
913.204	15675
913.318	15576
913.431	15717
913.545	15747
913.659	15713
913.772	15557
913.886	15538
914	15317
914.113	15561
914.226	15679
914.34	15370
914.453	15393
914.566	15530
914.68	15416
914.793	15348
914.906	15116
915.019	15104
915.132	15047
915.245	15097
915.358	15165
915.47	15112
915.583	15051
915.696	15047
915.809	15169
915.921	15203
916.034	14960
916.146	14937
916.259	14868
916.371	14990
916.483	15001
916.595	14929
916.708	14956
916.82	14944
916.932	14838
917.044	14785
917.156	14800
917.268	14670
917.38	14705
917.491	14697
917.603	14773
917.715	14777
917.826	14765
917.938	14663
918.049	14541
918.161	14648
918.272	14834
918.384	14739
918.495	14651
918.606	14450
918.717	14450
918.828	14465
918.939	14427
919.05	14301
919.161	14503
919.272	14305
919.383	14328
919.494	14454
919.604	14651
919.715	14522
919.826	14313
919.936	14488
920.047	14488
920.157	14374
920.267	14667
920.378	14530
920.488	14419
920.598	14564
920.708	14727
920.818	14560
920.928	14579
921.038	14765
921.148	14648
921.258	14408
921.368	14286
921.477	14153
921.587	14233
921.697	14119
921.806	14237
921.916	14050
922.025	13856
922.134	14001
922.244	13712
922.353	13822
922.462	13620
922.571	13651
922.68	13441
922.789	13483
922.898	13430
923.007	13457
923.116	13472
923.224	13506
923.333	13297
923.442	13293
923.55	13270
923.659	13304
923.767	13278
923.876	13278
923.984	13339
924.092	13168
924.201	13198
924.309	13183
924.417	13221
924.525	13126
924.633	13194
924.741	13959
924.849	12958
924.956	13122
925.064	12932
925.172	12844
925.279	12913
925.387	12913
925.494	12924
925.602	12977
925.709	12837
925.816	12688
925.924	12802
926.031	12996
926.138	12886
926.245	12825
926.352	12662
926.459	12882
926.566	12920
926.673	12749
926.779	12639
926.886	12646
926.993	12525
927.099	12479
927.206	12323
927.312	12429
927.419	12448
927.525	12433
927.631	12467
927.737	12342
927.843	12292
927.95	12197
928.056	12334
928.162	12251
928.267	12410
928.373	12951
928.479	12388
928.585	12102
928.69	12175
928.796	12300
928.901	12133
929.007	11988
929.112	12110
929.218	12102
929.323	12087
929.428	11954
929.533	12159
929.638	11996
929.743	12049
929.848	11988
929.953	11946
930.058	11756
930.163	11718
930.267	11722
930.372	11870
930.477	11596
930.581	11885
930.685	11779
930.79	11532
930.894	11589
930.998	11570
931.103	11703
931.207	11322
931.311	11277
931.415	11178
931.519	11018
931.623	10915
