Data from test_V78500241_2906.txt Node
Date: Fri Mar 25 15:30:05 CST 2022
User: usil
Spectrometer: V785-0024
Trigger mode: 0
Integration Time (sec): 4.000000E-1
Scans to average: 1
Nonlinearity correction enabled: false
Boxcar width: 0
Storing dark spectrum: false
XAxis mode: Wavelengths
Number of Pixels in Spectrum: 1024
>>>>>Begin Spectral Data<<<<<
801.071	27161
801.214	27154
801.356	26986
801.499	26880
801.641	26644
801.783	26625
801.926	26731
802.068	26773
802.211	26609
802.353	26644
802.496	26438
802.638	26438
802.78	26336
802.923	26244
803.065	26195
803.208	26339
803.35	26385
803.492	26400
803.635	26579
803.777	26495
803.919	26450
804.061	26724
804.204	26579
804.346	26427
804.488	26507
804.63	26396
804.773	26389
804.915	26339
805.057	26594
805.199	26503
805.341	26533
805.483	26602
805.626	26693
805.768	26575
805.91	26648
806.052	26697
806.194	26594
806.336	26826
806.478	26518
806.62	26636
806.762	26640
806.904	26933
807.046	27047
807.188	26994
807.33	27077
807.472	27192
807.614	26971
807.756	27009
807.898	27024
808.04	26758
808.182	26876
808.324	26948
808.465	26940
808.607	27066
808.749	27165
808.891	27207
809.033	27340
809.174	27184
809.316	27112
809.458	27077
809.6	27119
809.741	27233
809.883	27222
810.025	27500
810.166	27405
810.308	27492
810.45	27481
810.591	27233
810.733	27207
810.875	27214
811.016	27195
811.158	27043
811.299	27279
811.441	27313
811.582	27466
811.724	27252
811.865	27157
812.007	27131
812.148	27237
812.29	27226
812.431	27397
812.573	27427
812.714	27614
812.855	27644
812.997	27675
813.138	27823
813.279	27842
813.421	27717
813.562	27720
813.703	27485
813.845	27424
813.986	27020
814.127	26971
814.268	26906
814.41	26963
814.551	26876
814.692	26883
814.833	26887
814.974	26731
815.115	26937
815.256	26762
815.397	26659
815.539	26815
815.68	26697
815.821	26507
815.962	26613
816.103	26530
816.244	26533
816.385	26469
816.526	26423
816.666	26202
816.807	26202
816.948	26332
817.089	26218
817.23	26168
817.371	25993
817.512	26050
817.653	26142
817.793	25986
817.934	26096
818.075	26145
818.216	26225
818.356	26012
818.497	26073
818.638	25765
818.778	25890
818.919	25921
819.06	26005
819.2	26039
819.341	26065
819.481	26035
819.622	26088
819.762	26415
819.903	26252
820.043	26195
820.184	26176
820.324	26122
820.465	26111
820.605	26187
820.746	26180
820.886	26157
821.026	26172
821.167	26077
821.307	26199
821.447	26008
821.588	26077
821.728	25947
821.868	25670
822.008	25529
822.149	25571
822.289	25666
822.429	25350
822.569	25164
822.709	25285
822.849	25133
822.99	25080
823.13	25050
823.27	25110
823.41	24757
823.55	24692
823.69	24882
823.83	24840
823.97	24833
824.11	24741
824.25	24681
824.389	24749
824.529	24760
824.669	24745
824.809	24741
824.949	24612
825.089	24787
825.228	24692
825.368	24555
825.508	24521
825.648	24597
825.787	24555
825.927	24612
826.067	24505
826.206	24669
826.346	24623
826.485	24547
826.625	24627
826.765	24730
826.904	24551
827.044	24361
827.183	24388
827.323	24273
827.462	24296
827.601	24201
827.741	24334
827.88	24266
828.02	24155
828.159	24213
828.298	24308
828.437	24292
828.577	24186
828.716	24338
828.855	24110
828.994	23984
829.134	23942
829.273	24049
829.412	23958
829.551	23889
829.69	23931
829.829	24049
829.968	23984
830.107	23863
830.246	24041
830.385	23935
830.524	23824
830.663	23805
830.802	23745
830.941	23615
831.08	23520
831.219	23516
831.357	23642
831.496	23786
831.635	23471
831.774	23463
831.913	23387
832.051	23246
832.19	23235
832.329	23410
832.467	23288
832.606	23318
832.744	23193
832.883	23239
833.022	23265
833.16	23299
833.299	23387
833.437	23322
833.576	23296
833.714	23292
833.852	23414
833.991	23292
834.129	23391
834.267	23410
834.406	23345
834.544	23353
834.682	23258
834.821	23345
834.959	23444
835.097	23105
835.235	23349
835.373	23200
835.511	23197
835.65	23216
835.788	23136
835.926	23086
836.064	22877
836.202	23003
836.34	23212
836.478	23223
836.615	23280
836.753	23056
836.891	23299
837.029	23174
837.167	23056
837.305	23041
837.443	22896
837.58	22915
837.718	22987
837.856	23067
837.993	22869
838.131	23014
838.269	22839
838.406	22805
838.544	22771
838.681	22691
838.819	22626
838.956	22504
839.094	22344
839.231	22466
839.369	22599
839.506	22881
839.643	22733
839.781	22440
839.918	22394
840.055	22363
840.193	22428
840.33	22474
840.467	22375
840.604	22333
840.742	22733
840.879	22295
841.016	22200
841.153	22230
841.29	22402
841.427	22325
841.564	22341
841.701	22219
841.838	22280
841.975	22196
842.112	22352
842.249	22337
842.385	22154
842.522	22462
842.659	22086
842.796	22017
842.933	22120
843.069	22048
843.206	22059
843.343	22116
843.479	22128
843.616	22109
843.752	21937
843.889	21888
844.025	22040
844.162	21789
844.298	22010
844.435	21937
844.571	21892
844.708	21827
844.844	21945
844.98	21899
845.117	21895
845.253	21762
845.389	21641
845.525	21789
845.661	21804
845.798	21663
845.934	21686
846.07	21507
846.206	21739
846.342	21686
846.478	21606
846.614	21443
846.75	21207
846.886	21310
847.022	21378
847.158	21435
847.294	21393
847.429	21424
847.565	21310
847.701	21622
847.837	21108
847.972	21047
848.108	21142
848.244	21108
848.379	21036
848.515	21039
848.65	20944
848.786	20979
848.921	21051
849.057	21096
849.192	21074
849.328	20986
849.463	20937
849.598	20883
849.734	20864
849.869	20845
850.004	20765
850.14	20746
850.275	20804
850.41	20503
850.545	20708
850.68	20705
850.815	20743
850.95	20693
851.085	20944
851.22	20807
851.355	20842
851.49	20743
851.625	20689
851.76	20819
851.895	20697
852.03	20632
852.165	20693
852.299	20845
852.434	20746
852.569	20697
852.703	20693
852.838	20762
852.973	20899
853.107	20788
853.242	20575
853.376	20587
853.511	20450
853.645	20511
853.78	20724
853.914	20541
854.048	20579
854.183	20499
854.317	20514
854.451	20632
854.585	20526
854.72	20480
854.854	20537
854.988	20518
855.122	20499
855.256	20290
855.39	20613
855.524	20579
855.658	20564
855.792	20522
855.926	20648
856.06	20632
856.194	20674
856.327	20625
856.461	20427
856.595	20537
856.729	20499
856.862	20701
856.996	20689
857.13	20640
857.263	20800
857.397	20708
857.53	20579
857.664	20659
857.797	20560
857.931	20552
858.064	20579
858.197	20644
858.331	20617
858.464	20507
858.597	20469
858.731	20480
858.864	20564
858.997	20404
859.13	20469
859.263	20568
859.396	20655
859.529	20533
859.662	20533
859.795	20503
859.928	20552
860.061	20663
860.194	20739
860.327	20590
860.46	20606
860.592	20708
860.725	20644
860.858	20682
860.99	20621
861.123	20495
861.256	20545
861.388	20678
861.521	21157
861.653	20484
861.786	20396
861.918	20389
862.05	20514
862.183	20374
862.315	20514
862.447	20480
862.58	20625
862.712	20290
862.844	20290
862.976	20339
863.108	20412
863.24	20724
863.372	20233
863.504	20301
863.636	20309
863.768	20210
863.9	20286
864.032	20161
864.164	20271
864.296	20294
864.428	20278
864.559	20328
864.691	20267
864.823	20267
864.954	20294
865.086	20240
865.217	20157
865.349	20172
865.48	20134
865.612	20191
865.743	20237
865.875	20111
866.006	20046
866.137	20157
866.269	20229
866.4	20161
866.531	20145
866.662	19997
866.793	20103
866.924	20126
867.055	20001
867.186	20225
867.317	20043
867.448	19921
867.579	20043
867.71	20046
867.841	20111
867.972	20103
868.103	20081
868.233	20031
868.364	20039
868.495	20206
868.625	20328
868.756	20317
868.886	20332
869.017	20339
869.147	20526
869.278	20434
869.408	20267
869.539	20377
869.669	20427
869.799	20370
869.929	20507
870.06	20400
870.19	20629
870.32	20743
870.45	20659
870.58	20880
870.71	20895
870.84	20758
870.97	20735
871.1	20777
871.23	20902
871.36	20956
871.489	20933
871.619	20891
871.749	20906
871.879	20933
872.008	21112
872.138	20857
872.267	21001
872.397	20815
872.526	20815
872.656	20762
872.785	20830
872.915	20941
873.044	20990
873.173	20910
873.303	20925
873.432	21028
873.561	21089
873.69	20967
873.819	20979
873.948	21062
874.077	20956
874.206	20914
874.335	20872
874.464	21127
874.593	21119
874.722	21135
874.851	21211
874.979	21222
875.108	21306
875.237	21142
875.365	21165
875.494	21302
875.623	21348
875.751	21135
875.88	21317
876.008	21405
876.136	21351
876.265	21618
876.393	21679
876.521	21701
876.65	21633
876.778	21603
876.906	21583
877.034	21564
877.162	21576
877.29	21359
877.418	21553
877.546	21542
877.674	21515
877.802	21534
877.93	21519
878.058	21587
878.185	21397
878.313	21458
878.441	21515
878.568	21355
878.696	21530
878.824	21583
878.951	21595
879.079	21660
879.206	21922
879.333	21770
879.461	21564
879.588	21618
879.715	21686
879.842	21789
879.97	21606
880.097	21401
880.224	21378
880.351	21386
880.478	21378
880.605	21386
880.732	21428
880.859	21625
880.986	21420
881.112	21420
881.239	21279
881.366	21119
881.493	21058
881.619	20937
881.746	21081
881.872	20986
881.999	21005
882.125	20876
882.252	21001
882.378	20883
882.505	21070
882.631	21058
882.757	20625
882.883	20651
883.01	20629
883.136	20621
883.262	20522
883.388	20503
883.514	20655
883.64	20724
883.766	20655
883.892	20469
884.018	20495
884.143	20552
884.269	20689
884.395	20415
884.52	20343
884.646	20419
884.772	20237
884.897	20218
885.023	20313
885.148	20503
885.274	20457
885.399	20594
885.524	20240
885.65	20271
885.775	20469
885.9	20355
886.025	20446
886.15	20431
886.275	20313
886.4	20252
886.525	20248
886.65	20229
886.775	20149
886.9	20480
887.025	20530
887.149	20286
887.274	20187
887.399	20107
887.523	20081
887.648	20050
887.773	20005
887.897	20248
888.021	20142
888.146	20039
888.27	20275
888.395	20202
888.519	20240
888.643	20210
888.767	20096
888.891	20111
889.015	19982
889.139	19936
889.263	20001
889.387	20149
889.511	20191
889.635	20073
889.759	19993
889.883	20008
890.006	20008
890.13	20054
890.254	19811
890.377	19928
890.501	19685
890.624	19651
890.748	19715
890.871	19590
890.995	19582
891.118	19533
891.241	19582
891.364	19480
891.488	19639
891.611	19594
891.734	19533
891.857	19556
891.98	19556
892.103	19514
892.226	19540
892.349	19472
892.471	19297
892.594	19468
892.717	19445
892.839	19514
892.962	19548
893.085	19438
893.207	19407
893.33	19365
893.452	19282
893.575	19548
893.697	19510
893.819	19563
893.941	19677
894.064	19651
894.186	19426
894.308	19407
894.43	19601
894.552	19632
894.674	19491
894.796	19396
894.918	19377
895.04	19362
895.161	19658
895.283	19468
895.405	19400
895.526	19411
895.648	19445
895.769	19506
895.891	19563
896.012	19510
896.134	19529
896.255	19460
896.376	19525
896.498	19415
896.619	19624
896.74	19434
896.861	19495
896.982	19742
897.103	19898
897.224	19658
897.345	19643
897.466	19548
897.587	19719
897.708	19833
897.828	19693
897.949	19597
898.07	19506
898.19	19521
898.311	19715
898.431	19689
898.552	19655
898.672	19769
898.792	19715
898.913	19693
899.033	19552
899.153	19438
899.273	19419
899.393	19499
899.513	19525
899.633	19464
899.753	19415
899.873	19476
899.993	19495
900.113	19426
900.232	19499
900.352	19270
900.472	19225
900.591	19225
900.711	19202
900.83	19103
900.95	19251
901.069	19304
901.189	19213
901.308	18886
901.427	18875
901.546	18901
901.665	18840
901.784	18856
901.904	18700
902.023	18631
902.141	18479
902.26	18441
902.379	18460
902.498	18235
902.617	18285
902.735	18410
902.854	18384
902.973	18247
903.091	18057
903.21	18121
903.328	18136
903.446	17923
903.565	17859
903.683	17874
903.801	17767
903.919	17756
904.038	17832
904.156	17684
904.274	17642
904.392	17680
904.51	17604
904.627	17687
904.745	17691
904.863	17615
904.981	17459
905.098	17387
905.216	17311
905.334	17353
905.451	17322
905.569	17353
905.686	17231
905.803	17250
905.921	17109
906.038	17200
906.155	17181
906.272	17006
906.389	17010
906.506	16862
906.623	16839
906.74	16862
906.857	16698
906.974	16771
907.091	16866
907.208	16919
907.324	16850
907.441	16778
907.557	16527
907.674	16603
907.79	16523
907.907	16535
908.023	16538
908.139	16588
908.256	16481
908.372	16436
908.488	16329
908.604	16299
908.72	16333
908.836	16261
908.952	16306
909.068	16257
909.184	16322
909.3	16265
909.415	16291
909.531	16261
909.647	16025
909.762	16036
909.878	15899
909.993	16017
910.108	16025
910.224	15983
910.339	16006
910.454	15892
910.57	15838
910.685	15747
910.8	16002
910.915	15934
911.03	15907
911.145	15637
911.259	15610
911.374	15584
911.489	15515
911.604	15496
911.718	15310
911.833	15351
911.947	15272
912.062	15245
912.176	15287
912.291	15428
912.405	15332
912.519	15633
912.633	15603
912.748	15378
912.862	15298
912.976	15184
913.09	14975
913.204	15226
913.318	15146
913.431	15192
913.545	15291
913.659	15260
913.772	15138
913.886	14967
914	14937
914.113	15058
914.226	15039
914.34	15123
914.453	14750
914.566	15009
914.68	14906
914.793	14842
914.906	14667
915.019	14636
915.132	14587
915.245	14549
915.358	14606
915.47	14556
915.583	14598
915.696	14579
915.809	14724
915.921	14667
916.034	14583
916.146	14518
916.259	14377
916.371	14526
916.483	14457
916.595	14427
916.708	14480
916.82	14583
916.932	14461
917.044	14404
917.156	14473
917.268	14210
917.38	14244
917.491	14278
917.603	14336
917.715	14252
917.826	14400
917.938	14138
918.049	14161
918.161	14298
918.272	14313
918.384	14381
918.495	14199
918.606	14020
918.717	13997
918.828	14115
918.939	14138
919.05	13967
919.161	13970
919.272	13845
919.383	13883
919.494	13993
919.604	14278
919.715	14065
919.826	14016
919.936	14027
920.047	14168
920.157	14027
920.267	14157
920.378	13997
920.488	13917
920.598	14237
920.708	14278
920.818	14138
920.928	14119
921.038	14225
921.148	14252
921.258	13982
921.368	13963
921.477	13712
921.587	13772
921.697	13662
921.806	13734
921.916	13586
922.025	13460
922.134	13472
922.244	13388
922.353	13533
922.462	13377
922.571	13255
922.68	13152
922.789	13114
922.898	13065
923.007	12993
923.116	13095
923.224	13057
923.333	13095
923.442	12932
923.55	12913
923.659	12878
923.767	12977
923.876	12825
923.984	12905
924.092	12814
924.201	12871
924.309	12840
924.417	12890
924.525	12825
924.633	12806
924.741	13719
924.849	12525
924.956	12741
925.064	12547
925.172	12479
925.279	12582
925.387	12570
925.494	12563
925.602	12555
925.709	12532
925.816	12483
925.924	12471
926.031	12513
926.138	12448
926.245	12517
926.352	12437
926.459	12525
926.566	12490
926.673	12376
926.779	12327
926.886	12270
926.993	12098
927.099	12011
927.206	12064
927.312	11942
927.419	12057
927.525	12034
927.631	12121
927.737	11942
927.843	11996
927.95	11752
928.056	11931
928.162	11965
928.267	12011
928.373	12551
928.479	11973
928.585	11882
928.69	11908
928.796	11889
928.901	11847
929.007	11551
929.112	11809
929.218	11718
929.323	11714
929.428	11615
929.533	11733
929.638	11558
929.743	11608
929.848	11676
929.953	11604
930.058	11474
930.163	11376
930.267	11356
930.372	11532
930.477	11372
930.581	11554
930.685	11478
930.79	11223
930.894	11269
930.998	11208
931.103	11402
931.207	11006
931.311	10873
931.415	10854
931.519	10660
931.623	10641
