Data from test_V78500241_3363.txt Node
Date: Fri Mar 25 15:33:16 CST 2022
User: usil
Spectrometer: V785-0024
Trigger mode: 0
Integration Time (sec): 4.000000E-1
Scans to average: 1
Nonlinearity correction enabled: false
Boxcar width: 0
Storing dark spectrum: false
XAxis mode: Wavelengths
Number of Pixels in Spectrum: 1024
>>>>>Begin Spectral Data<<<<<
801.071	27188
801.214	27180
801.356	26918
801.499	26811
801.641	26773
801.783	26743
801.926	26777
802.068	26659
802.211	26632
802.353	26594
802.496	26514
802.638	26377
802.78	26381
802.923	26164
803.065	26176
803.208	26358
803.35	26351
803.492	26602
803.635	26476
803.777	26309
803.919	26469
804.061	26845
804.204	26537
804.346	26461
804.488	26503
804.63	26343
804.773	26400
804.915	26495
805.057	26514
805.199	26431
805.341	26533
805.483	26545
805.626	26629
805.768	26476
805.91	26716
806.052	26655
806.194	26495
806.336	26853
806.478	26514
806.62	26560
806.762	26769
806.904	26796
807.046	27077
807.188	27085
807.33	27127
807.472	27180
807.614	26826
807.756	26940
807.898	26823
808.04	26853
808.182	26769
808.324	26807
808.465	26876
808.607	26925
808.749	27249
808.891	27184
809.033	27378
809.174	27294
809.316	27165
809.458	27070
809.6	27154
809.741	27226
809.883	27310
810.025	27378
810.166	27427
810.308	27374
810.45	27321
810.591	27507
810.733	27203
810.875	27055
811.016	27135
811.158	27096
811.299	27321
811.441	27291
811.582	27321
811.724	27138
811.865	27024
812.007	27123
812.148	27142
812.29	27279
812.431	27329
812.573	27367
812.714	27515
812.855	27614
812.997	27804
813.138	27983
813.279	27827
813.421	27633
813.562	27542
813.703	27526
813.845	27294
813.986	27096
814.127	26986
814.268	26861
814.41	26948
814.551	26765
814.692	26864
814.833	26670
814.974	26762
815.115	26750
815.256	26636
815.397	26682
815.539	26735
815.68	26530
815.821	26488
815.962	26659
816.103	26568
816.244	26476
816.385	26434
816.526	26221
816.666	26164
816.807	26073
816.948	26096
817.089	26069
817.23	26214
817.371	26024
817.512	26100
817.653	26130
817.793	25978
817.934	26012
818.075	26130
818.216	26187
818.356	26012
818.497	25982
818.638	25780
818.778	25818
818.919	25788
819.06	25849
819.2	25959
819.341	26126
819.481	26096
819.622	26237
819.762	26427
819.903	26377
820.043	26355
820.184	26225
820.324	26039
820.465	26202
820.605	26248
820.746	26088
820.886	25944
821.026	26065
821.167	26153
821.307	26164
821.447	25944
821.588	26100
821.728	25883
821.868	25780
822.008	25544
822.149	25651
822.289	25537
822.429	25426
822.569	25202
822.709	25232
822.849	25168
822.99	25065
823.13	25008
823.27	24989
823.41	24878
823.55	24738
823.69	24913
823.83	24817
823.97	24795
824.11	24623
824.25	24532
824.389	24730
824.529	24825
824.669	24700
824.809	24787
824.949	24825
825.089	24806
825.228	24734
825.368	24585
825.508	24456
825.648	24528
825.787	24429
825.927	24505
826.067	24403
826.206	24620
826.346	24589
826.485	24589
826.625	24696
826.765	24661
826.904	24631
827.044	24323
827.183	24163
827.323	24209
827.462	24338
827.601	24285
827.741	24296
827.88	24186
828.02	24159
828.159	24262
828.298	24296
828.437	24311
828.577	24136
828.716	24311
828.855	24133
828.994	24015
829.134	24057
829.273	23984
829.412	24030
829.551	23950
829.69	24083
829.829	23980
829.968	24022
830.107	24041
830.246	23980
830.385	23923
830.524	24003
830.663	23794
830.802	23745
830.941	23577
831.08	23566
831.219	23668
831.357	23608
831.496	23870
831.635	23501
831.774	23566
831.913	23448
832.051	23414
832.19	23360
832.329	23440
832.467	23444
832.606	23288
832.744	23204
832.883	23216
833.022	23185
833.16	23246
833.299	23315
833.437	23383
833.576	23433
833.714	23474
833.852	23391
833.991	23356
834.129	23455
834.267	23398
834.406	23398
834.544	23471
834.682	23395
834.821	23478
834.959	23414
835.097	23322
835.235	23440
835.373	23395
835.511	23391
835.65	23315
835.788	23471
835.926	23147
836.064	23121
836.202	23147
836.34	23140
836.478	23356
836.615	23151
836.753	23258
836.891	23402
837.029	23280
837.167	23254
837.305	23128
837.443	23216
837.58	23140
837.718	23208
837.856	23174
837.993	23044
838.131	23098
838.269	22961
838.406	22995
838.544	22866
838.681	22889
838.819	22744
838.956	22542
839.094	22565
839.231	22622
839.369	22869
839.506	22972
839.643	22805
839.781	22459
839.918	22497
840.055	22580
840.193	22630
840.33	22554
840.467	22523
840.604	22569
840.742	22904
840.879	22443
841.016	22367
841.153	22428
841.29	22607
841.427	22436
841.564	22577
841.701	22405
841.838	22333
841.975	22367
842.112	22421
842.249	22257
842.385	22268
842.522	22428
842.659	22291
842.796	22291
842.933	22344
843.069	22162
843.206	22249
843.343	22337
843.479	22234
843.616	22211
843.752	22067
843.889	22112
844.025	22188
844.162	21972
844.298	22090
844.435	22097
844.571	21956
844.708	21968
844.844	22093
844.98	22253
845.117	22116
845.253	22002
845.389	21865
845.525	21926
845.661	22017
845.798	21686
845.934	21861
846.07	21728
846.206	21956
846.342	21918
846.478	21816
846.614	21504
846.75	21477
846.886	21424
847.022	21530
847.158	21507
847.294	21538
847.429	21568
847.565	21519
847.701	21701
847.837	21291
847.972	21195
848.108	21336
848.244	21302
848.379	21157
848.515	21131
848.65	21043
848.786	21043
848.921	21096
849.057	21176
849.192	21176
849.328	21176
849.463	21131
849.598	21142
849.734	20979
849.869	21020
850.004	20902
850.14	20880
850.275	21020
850.41	20735
850.545	20788
850.68	20765
850.815	20899
850.95	20830
851.085	21009
851.22	20902
851.355	20777
851.49	20952
851.625	20872
851.76	20796
851.895	20716
852.03	20689
852.165	20906
852.299	20906
852.434	20765
852.569	20864
852.703	20872
852.838	20910
852.973	20998
853.107	20941
853.242	20834
853.376	20648
853.511	20617
853.645	20556
853.78	20830
853.914	20727
854.048	20735
854.183	20739
854.317	20746
854.451	20880
854.585	20640
854.72	20590
854.854	20571
854.988	20674
855.122	20663
855.256	20621
855.39	20655
855.524	20743
855.658	20697
855.792	20773
855.926	20617
856.06	20720
856.194	20781
856.327	20663
856.461	20560
856.595	20625
856.729	20659
856.862	20727
856.996	20708
857.13	20754
857.263	20765
857.397	20826
857.53	20655
857.664	20785
857.797	20739
857.931	20807
858.064	20708
858.197	20762
858.331	20674
858.464	20575
858.597	20518
858.731	20686
858.864	20632
858.997	20636
859.13	20712
859.263	20720
859.396	20788
859.529	20670
859.662	20651
859.795	20716
859.928	20659
860.061	20785
860.194	20842
860.327	20788
860.46	20750
860.592	20876
860.725	20842
860.858	20887
860.99	20564
861.123	20575
861.256	20602
861.388	20735
861.521	21389
861.653	20377
861.786	20431
861.918	20503
862.05	20575
862.183	20587
862.315	20678
862.447	20701
862.58	20556
862.712	20415
862.844	20423
862.976	20537
863.108	20457
863.24	20731
863.372	20385
863.504	20507
863.636	20282
863.768	20511
863.9	20492
864.032	20400
864.164	20389
864.296	20377
864.428	20522
864.559	20431
864.691	20484
864.823	20461
864.954	20282
865.086	20415
865.217	20355
865.349	20172
865.48	20377
865.612	20206
865.743	20347
865.875	20320
866.006	20294
866.137	20343
866.269	20286
866.4	20381
866.531	20282
866.662	20103
866.793	20271
866.924	20324
867.055	20206
867.186	20332
867.317	20195
867.448	20084
867.579	20225
867.71	20225
867.841	20149
867.972	20351
868.103	20218
868.233	20294
868.364	20317
868.495	20294
868.625	20419
868.756	20606
868.886	20503
869.017	20446
869.147	20629
869.278	20625
869.408	20530
869.539	20514
869.669	20503
869.799	20579
869.929	20598
870.06	20571
870.19	20895
870.32	20864
870.45	20804
870.58	20952
870.71	20921
870.84	20979
870.97	21024
871.1	20887
871.23	21024
871.36	21104
871.489	21085
871.619	21020
871.749	21047
871.879	21093
872.008	21237
872.138	21024
872.267	21028
872.397	20986
872.526	20800
872.656	20944
872.785	20883
872.915	21165
873.044	21169
873.173	21214
873.303	21135
873.432	21199
873.561	21207
873.69	21093
873.819	21116
873.948	21154
874.077	21226
874.206	21024
874.335	21093
874.464	21119
874.593	21340
874.722	21313
874.851	21313
874.979	21329
875.108	21378
875.237	21298
875.365	21230
875.494	21348
875.623	21401
875.751	21272
875.88	21458
876.008	21515
876.136	21648
876.265	21778
876.393	21816
876.521	21854
876.65	21899
876.778	21766
876.906	21694
877.034	21755
877.162	21736
877.29	21682
877.418	21709
877.546	21660
877.674	21762
877.802	21739
877.93	21618
878.058	21637
878.185	21667
878.313	21701
878.441	21656
878.568	21553
878.696	21629
878.824	21618
878.951	21793
879.079	21823
879.206	21998
879.333	21861
879.461	21705
879.588	21850
879.715	21835
879.842	21991
879.97	21686
880.097	21599
880.224	21496
880.351	21671
880.478	21401
880.605	21462
880.732	21507
880.859	21770
880.986	21564
881.112	21515
881.239	21412
881.366	21252
881.493	21199
881.619	21150
881.746	21055
881.872	21188
881.999	21127
882.125	20963
882.252	21093
882.378	21070
882.505	21199
882.631	20925
882.757	20918
882.883	20883
883.01	20982
883.136	20689
883.262	20644
883.388	20598
883.514	20785
883.64	20800
883.766	20872
883.892	20648
884.018	20613
884.143	20762
884.269	20819
884.395	20545
884.52	20488
884.646	20552
884.772	20362
884.897	20313
885.023	20533
885.148	20522
885.274	20594
885.399	20629
885.524	20473
885.65	20484
885.775	20609
885.9	20533
886.025	20499
886.15	20484
886.275	20503
886.4	20355
886.525	20533
886.65	20419
886.775	20355
886.9	20511
887.025	20762
887.149	20495
887.274	20290
887.399	20290
887.523	20195
887.648	20176
887.773	20225
887.897	20278
888.021	20412
888.146	20259
888.27	20400
888.395	20294
888.519	20343
888.643	20282
888.767	20187
888.891	20058
889.015	20092
889.139	20161
889.263	20008
889.387	20214
889.511	20221
889.635	20233
889.759	20062
889.883	20096
890.006	19978
890.13	20100
890.254	19993
890.377	19917
890.501	19784
890.624	19849
890.748	19887
890.871	19738
890.995	19651
891.118	19628
891.241	19597
891.364	19662
891.488	19833
891.611	19548
891.734	19632
891.857	19708
891.98	19693
892.103	19586
892.226	19700
892.349	19582
892.471	19445
892.594	19521
892.717	19643
892.839	19449
892.962	19533
893.085	19597
893.207	19464
893.33	19521
893.452	19426
893.575	19616
893.697	19540
893.819	19674
893.941	19761
894.064	19559
894.186	19445
894.308	19384
894.43	19567
894.552	19700
894.674	19666
894.796	19441
894.918	19483
895.04	19518
895.161	19635
895.283	19605
895.405	19559
895.526	19552
895.648	19571
895.769	19510
895.891	19582
896.012	19666
896.134	19548
896.255	19677
896.376	19468
896.498	19518
896.619	19655
896.74	19563
896.861	19632
896.982	19913
897.103	20100
897.224	19864
897.345	19742
897.466	19734
897.587	19731
897.708	19898
897.828	19837
897.949	19769
898.07	19499
898.19	19738
898.311	19868
898.431	19723
898.552	19860
898.672	19822
898.792	19921
898.913	19791
899.033	19677
899.153	19445
899.273	19556
899.393	19586
899.513	19590
899.633	19620
899.753	19674
899.873	19441
899.993	19605
900.113	19468
900.232	19525
900.352	19480
900.472	19419
900.591	19335
900.711	19320
900.83	19308
900.95	19350
901.069	19415
901.189	19255
901.308	18932
901.427	18970
901.546	18913
901.665	18833
901.784	18943
901.904	18753
902.023	18726
902.141	18513
902.26	18509
902.379	18475
902.498	18224
902.617	18304
902.735	18437
902.854	18319
902.973	18372
903.091	18102
903.21	18133
903.328	18155
903.446	17988
903.565	17859
903.683	17912
903.801	17889
903.919	17923
904.038	17893
904.156	17748
904.274	17695
904.392	17718
904.51	17646
904.627	17638
904.745	17748
904.863	17649
904.981	17452
905.098	17376
905.216	17406
905.334	17364
905.451	17379
905.569	17322
905.686	17277
905.803	17307
905.921	17151
906.038	17197
906.155	17155
906.272	17098
906.389	17014
906.506	16896
906.623	16957
906.74	16972
906.857	16831
906.974	16858
907.091	16938
907.208	16923
907.324	16942
907.441	16839
907.557	16634
907.674	16516
907.79	16497
907.907	16577
908.023	16603
908.139	16672
908.256	16596
908.372	16478
908.488	16440
908.604	16497
908.72	16402
908.836	16481
908.952	16325
909.068	16363
909.184	16459
909.3	16265
909.415	16428
909.531	16280
909.647	16135
909.762	16090
909.878	16017
909.993	15930
910.108	15987
910.224	15987
910.339	16074
910.454	15983
910.57	15846
910.685	15679
910.8	16063
910.915	15949
911.03	15873
911.145	15637
911.259	15679
911.374	15675
911.489	15656
911.604	15447
911.718	15397
911.833	15447
911.947	15401
912.062	15310
912.176	15359
912.291	15378
912.405	15401
912.519	15542
912.633	15610
912.748	15454
912.862	15367
912.976	15203
913.09	15051
913.204	15230
913.318	15203
913.431	15302
913.545	15355
913.659	15382
913.772	15211
913.886	15051
914	15032
914.113	15165
914.226	15173
914.34	15116
914.453	14963
914.566	15097
914.68	15036
914.793	14910
914.906	14758
915.019	14621
915.132	14518
915.245	14625
915.358	14670
915.47	14632
915.583	14541
915.696	14678
915.809	14754
915.921	14845
916.034	14636
916.146	14537
916.259	14610
916.371	14594
916.483	14602
916.595	14594
916.708	14537
916.82	14571
916.932	14495
917.044	14480
917.156	14400
917.268	14415
917.38	14385
917.491	14259
917.603	14404
917.715	14377
917.826	14465
917.938	14339
918.049	14172
918.161	14267
918.272	14393
918.384	14427
918.495	14317
918.606	14111
918.717	13989
918.828	14168
918.939	14039
919.05	14054
919.161	14016
919.272	13894
919.383	13928
919.494	14157
919.604	14355
919.715	14065
919.826	13906
919.936	14039
920.047	14069
920.157	14149
920.267	14248
920.378	14149
920.488	14046
920.598	14157
920.708	14385
920.818	14199
920.928	14119
921.038	14339
921.148	14404
921.258	14005
921.368	13959
921.477	13833
921.587	13830
921.697	13750
921.806	13822
921.916	13674
922.025	13575
922.134	13445
922.244	13491
922.353	13491
922.462	13304
922.571	13339
922.68	13149
922.789	13110
922.898	13145
923.007	13118
923.116	13164
923.224	13046
923.333	13110
923.442	12993
923.55	12966
923.659	13034
923.767	13057
923.876	12871
923.984	12932
924.092	12810
924.201	12875
924.309	12840
924.417	12837
924.525	12806
924.633	12806
924.741	13803
924.849	12540
924.956	12711
925.064	12582
925.172	12532
925.279	12467
925.387	12612
925.494	12570
925.602	12745
925.709	12601
925.816	12437
925.924	12521
926.031	12620
926.138	12555
926.245	12486
926.352	12357
926.459	12566
926.566	12566
926.673	12494
926.779	12228
926.886	12323
926.993	12205
927.099	12178
927.206	12026
927.312	12167
927.419	12178
927.525	12125
927.631	12087
927.737	12011
927.843	12003
927.95	11859
928.056	11931
928.162	11916
928.267	12038
928.373	12506
928.479	12087
928.585	11794
928.69	11946
928.796	11942
928.901	11863
929.007	11680
929.112	11866
929.218	11684
929.323	11748
929.428	11649
929.533	11786
929.638	11668
929.743	11699
929.848	11634
929.953	11608
930.058	11592
930.163	11349
930.267	11360
930.372	11539
930.477	11330
930.581	11642
930.685	11493
930.79	11250
930.894	11311
930.998	11258
931.103	11436
931.207	11067
931.311	11029
931.415	10896
931.519	10672
931.623	10710
