Data from test_V78500241_1119.txt Node
Date: Fri Mar 25 15:17:38 CST 2022
User: usil
Spectrometer: V785-0024
Trigger mode: 0
Integration Time (sec): 4.000000E-1
Scans to average: 1
Nonlinearity correction enabled: false
Boxcar width: 0
Storing dark spectrum: false
XAxis mode: Wavelengths
Number of Pixels in Spectrum: 1024
>>>>>Begin Spectral Data<<<<<
801.071	28215
801.214	28196
801.356	27934
801.499	27789
801.641	27724
801.783	27690
801.926	27774
802.068	27800
802.211	27793
802.353	27618
802.496	27564
802.638	27344
802.78	27336
802.923	27317
803.065	27370
803.208	27420
803.35	27291
803.492	27500
803.635	27603
803.777	27629
803.919	27606
804.061	27972
804.204	27606
804.346	27496
804.488	27450
804.63	27561
804.773	27408
804.915	27679
805.057	27797
805.199	27686
805.341	27759
805.483	27713
805.626	27724
805.768	27538
805.91	27595
806.052	27633
806.194	27644
806.336	27895
806.478	27724
806.62	27785
806.762	27861
806.904	27835
807.046	28337
807.188	28173
807.33	28173
807.472	28257
807.614	27975
807.756	28253
807.898	28002
808.04	27880
808.182	27926
808.324	27968
808.465	28177
808.607	28341
808.749	28348
808.891	28497
809.033	28546
809.174	28329
809.316	28428
809.458	28379
809.6	28238
809.741	28561
809.883	28466
810.025	28626
810.166	28691
810.308	28630
810.45	28645
810.591	28588
810.733	28455
810.875	28325
811.016	28268
811.158	28436
811.299	28462
811.441	28546
811.582	28535
811.724	28333
811.865	28474
812.007	28371
812.148	28401
812.29	28314
812.431	28535
812.573	28843
812.714	28847
812.855	29025
812.997	29140
813.138	29204
813.279	29132
813.421	28984
813.562	28911
813.703	28835
813.845	28653
813.986	28497
814.127	28268
814.268	28158
814.41	28124
814.551	28063
814.692	28154
814.833	28109
814.974	28093
815.115	28105
815.256	27934
815.397	28109
815.539	28086
815.68	27945
815.821	27937
815.962	27926
816.103	27918
816.244	27865
816.385	27857
816.526	27793
816.666	27629
816.807	27515
816.948	27652
817.089	27614
817.23	27504
817.371	27367
817.512	27572
817.653	27485
817.793	27382
817.934	27500
818.075	27469
818.216	27500
818.356	27424
818.497	27378
818.638	27241
818.778	27195
818.919	27131
819.06	27188
819.2	27313
819.341	27382
819.481	27329
819.622	27549
819.762	27842
819.903	27812
820.043	27625
820.184	27504
820.324	27542
820.465	27842
820.605	27656
820.746	27610
820.886	27473
821.026	27561
821.167	27538
821.307	27606
821.447	27416
821.588	27321
821.728	27245
821.868	27074
822.008	26834
822.149	26937
822.289	26899
822.429	26674
822.569	26560
822.709	26640
822.849	26396
822.99	26453
823.13	26320
823.27	26347
823.41	26225
823.55	26210
823.69	26271
823.83	26317
823.97	26183
824.11	26065
824.25	26005
824.389	25978
824.529	26252
824.669	26111
824.809	26107
824.949	26214
825.089	26153
825.228	26126
825.368	26096
825.508	25875
825.648	26027
825.787	25947
825.927	26073
826.067	25989
826.206	25936
826.346	25993
826.485	26073
826.625	25925
826.765	26046
826.904	25959
827.044	25772
827.183	25655
827.323	25742
827.462	25826
827.601	25769
827.741	25712
827.88	25696
828.02	25556
828.159	25708
828.298	25788
828.437	25799
828.577	25761
828.716	25723
828.855	25635
828.994	25388
829.134	25373
829.273	25457
829.412	25392
829.551	25350
829.69	25506
829.829	25377
829.968	25400
830.107	25453
830.246	25449
830.385	25487
830.524	25198
830.663	25122
830.802	25183
830.941	25179
831.08	24939
831.219	25050
831.357	25171
831.496	25362
831.635	24947
831.774	24989
831.913	24875
832.051	24753
832.19	24703
832.329	24928
832.467	24833
832.606	24764
832.744	24760
832.883	24658
833.022	24798
833.16	24509
833.299	24749
833.437	24859
833.576	24730
833.714	24726
833.852	24844
833.991	24871
834.129	24848
834.267	24897
834.406	24837
834.544	24821
834.682	24779
834.821	24707
834.959	24871
835.097	24757
835.235	24821
835.373	24833
835.511	24734
835.65	24673
835.788	24646
835.926	24429
836.064	24414
836.202	24471
836.34	24623
836.478	24658
836.615	24616
836.753	24661
836.891	24711
837.029	24612
837.167	24494
837.305	24502
837.443	24414
837.58	24498
837.718	24620
837.856	24525
837.993	24376
838.131	24410
838.269	24235
838.406	24228
838.544	24353
838.681	24114
838.819	24095
838.956	23920
839.094	23802
839.231	23901
839.369	24174
839.506	24330
839.643	24216
839.781	23999
839.918	23847
840.055	23984
840.193	23939
840.33	23889
840.467	23851
840.604	23889
840.742	24041
840.879	23615
841.016	23718
841.153	23714
841.29	23916
841.427	23714
841.564	23889
841.701	23840
841.838	23722
841.975	23745
842.112	23809
842.249	23604
842.385	23581
842.522	23859
842.659	23611
842.796	23516
842.933	23733
843.069	23531
843.206	23642
843.343	23695
843.479	23646
843.616	23585
843.752	23322
843.889	23543
844.025	23444
844.162	23330
844.298	23501
844.435	23288
844.571	23315
844.708	23467
844.844	23444
844.98	23501
845.117	23539
845.253	23379
845.389	23299
845.525	23288
845.661	23155
845.798	23086
845.934	23220
846.07	23037
846.206	23124
846.342	23223
846.478	23094
846.614	22793
846.75	22843
846.886	22793
847.022	22889
847.158	22927
847.294	22847
847.429	22858
847.565	22782
847.701	23064
847.837	22611
847.972	22630
848.108	22687
848.244	22584
848.379	22497
848.515	22348
848.65	22291
848.786	22265
848.921	22363
849.057	22504
849.192	22462
849.328	22432
849.463	22440
849.598	22382
849.734	22272
849.869	22341
850.004	22051
850.14	22211
850.275	22150
850.41	22044
850.545	22086
850.68	22211
850.815	22173
850.95	22124
851.085	22295
851.22	22318
851.355	22219
851.49	22154
851.625	22158
851.76	22150
851.895	22150
852.03	22116
852.165	22173
852.299	22124
852.434	22265
852.569	22120
852.703	22162
852.838	22238
852.973	22390
853.107	22280
853.242	22147
853.376	22150
853.511	21876
853.645	21964
853.78	22040
853.914	21968
854.048	21930
854.183	21930
854.317	22135
854.451	22154
854.585	22013
854.72	21968
854.854	22059
854.988	21835
855.122	22074
855.256	21861
855.39	21907
855.524	22040
855.658	22067
855.792	21930
855.926	22025
856.06	22040
856.194	22230
856.327	21956
856.461	22021
856.595	22002
856.729	21953
856.862	22173
856.996	22070
857.13	21937
857.263	22059
857.397	22055
857.53	21926
857.664	21968
857.797	22051
857.931	22105
858.064	22105
858.197	22010
858.331	22006
858.464	21937
858.597	21846
858.731	21880
858.864	21987
858.997	21880
859.13	21930
859.263	22139
859.396	22032
859.529	21888
859.662	21934
859.795	22032
859.928	22029
860.061	22147
860.194	22230
860.327	22055
860.46	22120
860.592	22139
860.725	22303
860.858	22013
860.99	21994
861.123	21991
861.256	22067
861.388	22048
861.521	22763
861.653	21861
861.786	21884
861.918	21751
862.05	21892
862.183	21816
862.315	21934
862.447	21915
862.58	21865
862.712	21701
862.844	21675
862.976	21793
863.108	21827
863.24	22249
863.372	21591
863.504	21713
863.636	21561
863.768	21804
863.9	21713
864.032	21538
864.164	21694
864.296	21682
864.428	21793
864.559	21808
864.691	21785
864.823	21644
864.954	21743
865.086	21686
865.217	21629
865.349	21439
865.48	21644
865.612	21610
865.743	21778
865.875	21614
866.006	21553
866.137	21572
866.269	21519
866.4	21614
866.531	21485
866.662	21488
866.793	21595
866.924	21504
867.055	21553
867.186	21568
867.317	21534
867.448	21405
867.579	21488
867.71	21428
867.841	21447
867.972	21477
868.103	21450
868.233	21515
868.364	21633
868.495	21603
868.625	21599
868.756	21789
868.886	21781
869.017	21793
869.147	21823
869.278	21873
869.408	21819
869.539	21827
869.669	21804
869.799	21850
869.929	21956
870.06	21857
870.19	22002
870.32	22010
870.45	22067
870.58	22116
870.71	22147
870.84	22215
870.97	22021
871.1	22192
871.23	22306
871.36	22371
871.489	22169
871.619	22223
871.749	22356
871.879	22493
872.008	22459
872.138	22333
872.267	22375
872.397	22291
872.526	22097
872.656	22207
872.785	22177
872.915	22352
873.044	22367
873.173	22306
873.303	22432
873.432	22516
873.561	22527
873.69	22470
873.819	22337
873.948	22322
874.077	22371
874.206	22249
874.335	22409
874.464	22462
874.593	22542
874.722	22550
874.851	22611
874.979	22656
875.108	22622
875.237	22542
875.365	22462
875.494	22424
875.623	22717
875.751	22634
875.88	22717
876.008	22717
876.136	22694
876.265	22889
876.393	23010
876.521	22934
876.65	23010
876.778	22889
876.906	22877
877.034	22900
877.162	22889
877.29	22824
877.418	22854
877.546	22976
877.674	22896
877.802	22843
877.93	22869
878.058	22843
878.185	22725
878.313	22824
878.441	22927
878.568	22847
878.696	22835
878.824	22957
878.951	23056
879.079	23155
879.206	23132
879.333	23124
879.461	22980
879.588	23048
879.715	23121
879.842	23303
879.97	23041
880.097	22763
880.224	22805
880.351	22748
880.478	22835
880.605	22641
880.732	22691
880.859	22915
880.986	22805
881.112	22824
881.239	22561
881.366	22512
881.493	22478
881.619	22367
881.746	22546
881.872	22284
881.999	22386
882.125	22135
882.252	22276
882.378	22360
882.505	22382
882.631	22147
882.757	22048
882.883	22074
883.01	22036
883.136	21987
883.262	21804
883.388	21778
883.514	21934
883.64	21983
883.766	21953
883.892	21808
884.018	21850
884.143	21888
884.269	21903
884.395	21743
884.52	21698
884.646	21549
884.772	21606
884.897	21545
885.023	21526
885.148	21682
885.274	21743
885.399	21701
885.524	21660
885.65	21591
885.775	21679
885.9	21629
886.025	21762
886.15	21698
886.275	21561
886.4	21488
886.525	21652
886.65	21660
886.775	21481
886.9	21690
887.025	21857
887.149	21557
887.274	21367
887.399	21256
887.523	21443
887.648	21378
887.773	21310
887.897	21359
888.021	21462
888.146	21370
888.27	21408
888.395	21515
888.519	21439
888.643	21462
888.767	21397
888.891	21264
889.015	21146
889.139	21222
889.263	21207
889.387	21199
889.511	21447
889.635	21340
889.759	21173
889.883	21100
890.006	21222
890.13	21306
890.254	21051
890.377	21093
890.501	20979
890.624	20921
890.748	21017
890.871	20811
890.995	20781
891.118	20735
891.241	20731
891.364	20712
891.488	20796
891.611	20781
891.734	20861
891.857	20746
891.98	20800
892.103	20708
892.226	20785
892.349	20636
892.471	20518
892.594	20720
892.717	20777
892.839	20598
892.962	20518
893.085	20590
893.207	20693
893.33	20537
893.452	20499
893.575	20636
893.697	20556
893.819	20819
893.941	20804
894.064	20842
894.186	20602
894.308	20457
894.43	20552
894.552	20727
894.674	20796
894.796	20484
894.918	20701
895.04	20454
895.161	20659
895.283	20659
895.405	20598
895.526	20697
895.648	20629
895.769	20678
895.891	20632
896.012	20769
896.134	20724
896.255	20659
896.376	20724
896.498	20621
896.619	20670
896.74	20670
896.861	20594
896.982	20986
897.103	21138
897.224	20910
897.345	20929
897.466	20876
897.587	20895
897.708	20979
897.828	20838
897.949	20788
898.07	20648
898.19	20773
898.311	20906
898.431	20640
898.552	20838
898.672	20918
898.792	20933
898.913	20769
899.033	20640
899.153	20625
899.273	20442
899.393	20404
899.513	20545
899.633	20552
899.753	20507
899.873	20450
899.993	20609
900.113	20492
900.232	20450
900.352	20522
900.472	20355
900.591	20256
900.711	20351
900.83	20343
900.95	20351
901.069	20370
901.189	20153
901.308	19940
901.427	19967
901.546	19989
901.665	19917
901.784	19997
901.904	19685
902.023	19597
902.141	19491
902.26	19491
902.379	19586
902.498	19384
902.617	19301
902.735	19464
902.854	19251
902.973	19320
903.091	19133
903.21	19004
903.328	19050
903.446	18954
903.565	18856
903.683	18825
903.801	18730
903.919	18886
904.038	18837
904.156	18650
904.274	18757
904.392	18677
904.51	18578
904.627	18692
904.745	18604
904.863	18654
904.981	18372
905.098	18273
905.216	18410
905.334	18365
905.451	18418
905.569	18304
905.686	18346
905.803	18251
905.921	18095
906.038	18163
906.155	18232
906.272	17992
906.389	18034
906.506	17912
906.623	17824
906.74	17836
906.857	17771
906.974	17748
907.091	17897
907.208	17935
907.324	17764
907.441	17767
907.557	17589
907.674	17642
907.79	17493
907.907	17566
908.023	17493
908.139	17657
908.256	17615
908.372	17345
908.488	17402
908.604	17311
908.72	17337
908.836	17330
908.952	17220
909.068	17322
909.184	17337
909.3	17334
909.415	17353
909.531	17212
909.647	16991
909.762	17022
909.878	16877
909.993	16923
910.108	16953
910.224	16972
910.339	16987
910.454	16843
910.57	16702
910.685	16763
910.8	16972
910.915	16919
911.03	16729
911.145	16656
911.259	16596
911.374	16481
911.489	16508
911.604	16371
911.718	16333
911.833	16234
911.947	16291
912.062	16162
912.176	16246
912.291	16181
912.405	16280
912.519	16424
912.633	16481
912.748	16325
912.862	16261
912.976	16135
913.09	16048
913.204	16109
913.318	16006
913.431	16238
913.545	16143
913.659	16196
913.772	15991
913.886	15907
914	15941
914.113	16036
914.226	15964
914.34	16013
914.453	15892
914.566	15903
914.68	15800
914.793	15686
914.906	15545
915.019	15488
915.132	15473
915.245	15545
915.358	15679
915.47	15580
915.583	15564
915.696	15473
915.809	15599
915.921	15584
916.034	15420
916.146	15405
916.259	15443
916.371	15420
916.483	15511
916.595	15412
916.708	15382
916.82	15298
916.932	15310
917.044	15279
917.156	15294
917.268	15138
917.38	15180
917.491	15047
917.603	15203
917.715	15176
917.826	15310
917.938	15024
918.049	14967
918.161	15104
918.272	15256
918.384	15272
918.495	15104
918.606	14838
918.717	14899
918.828	14990
918.939	14857
919.05	14785
919.161	14933
919.272	14735
919.383	14663
919.494	14933
919.604	15127
919.715	14868
919.826	14769
919.936	14830
920.047	14944
920.157	14838
920.267	15081
920.378	14857
920.488	14845
920.598	15028
920.708	15116
920.818	14925
920.928	14895
921.038	15100
921.148	15123
921.258	14769
921.368	14663
921.477	14640
921.587	14568
921.697	14450
921.806	14522
921.916	14393
922.025	14252
922.134	14180
922.244	14233
922.353	14248
922.462	14069
922.571	13989
922.68	13917
922.789	13818
922.898	13955
923.007	13750
923.116	13909
923.224	13780
923.333	13818
923.442	13731
923.55	13628
923.659	13753
923.767	13693
923.876	13586
923.984	13681
924.092	13601
924.201	13628
924.309	13639
924.417	13571
924.525	13499
924.633	13521
924.741	14408
924.849	13350
924.956	13445
925.064	13346
925.172	13221
925.279	13259
925.387	13236
925.494	13228
925.602	13430
925.709	13206
925.816	13118
925.924	13263
926.031	13297
926.138	13198
926.245	13213
926.352	13038
926.459	13137
926.566	13240
926.673	13069
926.779	13034
926.886	12954
926.993	12806
927.099	12768
927.206	12738
927.312	12779
927.419	12707
927.525	12760
927.631	12829
927.737	12722
927.843	12669
927.95	12544
928.056	12673
928.162	12684
928.267	12654
928.373	13228
928.479	12620
928.585	12494
928.69	12593
928.796	12574
928.901	12456
929.007	12334
929.112	12517
929.218	12517
929.323	12334
929.428	12460
929.533	12490
929.638	12270
929.743	12232
929.848	12365
929.953	12323
930.058	12182
930.163	12057
930.267	12102
930.372	12163
930.477	12041
930.581	12167
930.685	12072
930.79	11935
930.894	11961
930.998	11847
931.103	11973
931.207	11707
931.311	11532
931.415	11524
931.519	11315
931.623	11246
