Data from test_V78500241_2402.txt Node
Date: Fri Mar 25 15:26:35 CST 2022
User: usil
Spectrometer: V785-0024
Trigger mode: 0
Integration Time (sec): 4.000000E-1
Scans to average: 1
Nonlinearity correction enabled: false
Boxcar width: 0
Storing dark spectrum: false
XAxis mode: Wavelengths
Number of Pixels in Spectrum: 1024
>>>>>Begin Spectral Data<<<<<
801.071	27173
801.214	27268
801.356	26826
801.499	26880
801.641	26735
801.783	26701
801.926	26651
802.068	26746
802.211	26552
802.353	26640
802.496	26419
802.638	26195
802.78	26317
802.923	26336
803.065	26229
803.208	26298
803.35	26408
803.492	26423
803.635	26476
803.777	26465
803.919	26461
804.061	26788
804.204	26606
804.346	26385
804.488	26438
804.63	26575
804.773	26400
804.915	26625
805.057	26503
805.199	26511
805.341	26659
805.483	26689
805.626	26575
805.768	26442
805.91	26590
806.052	26587
806.194	26450
806.336	26693
806.478	26613
806.62	26507
806.762	26651
806.904	26849
807.046	27077
807.188	27017
807.33	26956
807.472	27150
807.614	26861
807.756	26921
807.898	26876
808.04	26800
808.182	26735
808.324	26861
808.465	26994
808.607	27066
808.749	27146
808.891	27329
809.033	27397
809.174	27408
809.316	27252
809.458	27344
809.6	27161
809.741	27256
809.883	27424
810.025	27370
810.166	27382
810.308	27431
810.45	27416
810.591	27351
810.733	27138
810.875	27192
811.016	27020
811.158	27024
811.299	27116
811.441	27397
811.582	27348
811.724	27173
811.865	27180
812.007	27142
812.148	27260
812.29	27321
812.431	27370
812.573	27500
812.714	27511
812.855	27637
812.997	27762
813.138	27911
813.279	27869
813.421	27717
813.562	27511
813.703	27496
813.845	27408
813.986	27169
814.127	26910
814.268	26914
814.41	26708
814.551	26857
814.692	26826
814.833	26762
814.974	26701
815.115	27017
815.256	26644
815.397	26758
815.539	26697
815.68	26743
815.821	26366
815.962	26575
816.103	26678
816.244	26427
816.385	26453
816.526	26278
816.666	26332
816.807	26103
816.948	26168
817.089	26195
817.23	26065
817.371	26065
817.512	26122
817.653	26096
817.793	26111
817.934	26199
818.075	26111
818.216	26039
818.356	26130
818.497	26008
818.638	25940
818.778	25776
818.919	25868
819.06	26039
819.2	26012
819.341	25890
819.481	26256
819.622	26282
819.762	26484
819.903	26362
820.043	26347
820.184	26210
820.324	26168
820.465	26374
820.605	26336
820.746	26221
820.886	25974
821.026	26240
821.167	26111
821.307	26107
821.447	26122
821.588	26031
821.728	25887
821.868	25769
822.008	25613
822.149	25643
822.289	25529
822.429	25327
822.569	25312
822.709	25297
822.849	25065
822.99	25034
823.13	25118
823.27	24951
823.41	24878
823.55	24639
823.69	24821
823.83	24863
823.97	24802
824.11	24840
824.25	24798
824.389	24627
824.529	24905
824.669	24840
824.809	24791
824.949	24791
825.089	24825
825.228	24730
825.368	24635
825.508	24601
825.648	24559
825.787	24547
825.927	24665
826.067	24498
826.206	24521
826.346	24688
826.485	24574
826.625	24521
826.765	24726
826.904	24566
827.044	24456
827.183	24376
827.323	24247
827.462	24300
827.601	24311
827.741	24232
827.88	24251
828.02	24251
828.159	24258
828.298	24273
828.437	24296
828.577	24201
828.716	24342
828.855	24182
828.994	24087
829.134	23889
829.273	24015
829.412	23954
829.551	24022
829.69	23984
829.829	24045
829.968	24057
830.107	24095
830.246	23859
830.385	23874
830.524	23908
830.663	23840
830.802	23619
830.941	23512
831.08	23592
831.219	23775
831.357	23615
831.496	23802
831.635	23615
831.774	23581
831.913	23459
832.051	23452
832.19	23364
832.329	23299
832.467	23334
832.606	23258
832.744	23307
832.883	23223
833.022	23193
833.16	23315
833.299	23235
833.437	23474
833.576	23311
833.714	23239
833.852	23288
833.991	23307
834.129	23436
834.267	23341
834.406	23436
834.544	23372
834.682	23311
834.821	23345
834.959	23482
835.097	23212
835.235	23326
835.373	23250
835.511	23292
835.65	23296
835.788	23280
835.926	23094
836.064	22957
836.202	23064
836.34	23223
836.478	23254
836.615	23159
836.753	23162
836.891	23231
837.029	23235
837.167	23223
837.305	23098
837.443	23094
837.58	23052
837.718	23128
837.856	22972
837.993	22949
838.131	23037
838.269	22934
838.406	22915
838.544	22927
838.681	22672
838.819	22672
838.956	22599
839.094	22565
839.231	22596
839.369	22797
839.506	22927
839.643	22740
839.781	22592
839.918	22474
840.055	22512
840.193	22481
840.33	22436
840.467	22447
840.604	22432
840.742	22660
840.879	22234
841.016	22390
841.153	22242
841.29	22557
841.427	22493
841.564	22538
841.701	22459
841.838	22382
841.975	22234
842.112	22295
842.249	22314
842.385	22265
842.522	22303
842.659	22299
842.796	22166
842.933	22257
843.069	22147
843.206	22268
843.343	22322
843.479	22291
843.616	22158
843.752	22067
843.889	22029
844.025	22044
844.162	21892
844.298	21983
844.435	22040
844.571	21991
844.708	22010
844.844	22086
844.98	22093
845.117	22166
845.253	21892
845.389	21865
845.525	21865
845.661	21926
845.798	21724
845.934	21694
846.07	21804
846.206	21724
846.342	21819
846.478	21720
846.614	21530
846.75	21397
846.886	21447
847.022	21500
847.158	21534
847.294	21416
847.429	21431
847.565	21572
847.701	21797
847.837	21211
847.972	21195
848.108	21317
848.244	21256
848.379	21161
848.515	20986
848.65	20941
848.786	20982
848.921	21066
849.057	21131
849.192	21180
849.328	21195
849.463	21123
849.598	20986
849.734	20971
849.869	20823
850.004	20781
850.14	20948
850.275	20823
850.41	20712
850.545	20689
850.68	20739
850.815	20960
850.95	20758
851.085	21020
851.22	21051
851.355	20853
851.49	20705
851.625	20781
851.76	20769
851.895	20701
852.03	20716
852.165	20804
852.299	20708
852.434	20963
852.569	20853
852.703	20823
852.838	20899
852.973	21043
853.107	20929
853.242	20735
853.376	20727
853.511	20590
853.645	20549
853.78	20743
853.914	20583
854.048	20480
854.183	20651
854.317	20632
854.451	20819
854.585	20640
854.72	20697
854.854	20788
854.988	20541
855.122	20701
855.256	20499
855.39	20518
855.524	20830
855.658	20663
855.792	20769
855.926	20834
856.06	20682
856.194	20785
856.327	20667
856.461	20518
856.595	20594
856.729	20629
856.862	20689
856.996	20762
857.13	20621
857.263	20765
857.397	20735
857.53	20602
857.664	20663
857.797	20731
857.931	20743
858.064	20640
858.197	20762
858.331	20708
858.464	20552
858.597	20484
858.731	20598
858.864	20651
858.997	20530
859.13	20769
859.263	20781
859.396	20750
859.529	20514
859.662	20598
859.795	20579
859.928	20701
860.061	20769
860.194	20872
860.327	20743
860.46	20579
860.592	20788
860.725	20906
860.858	20701
860.99	20617
861.123	20587
861.256	20689
861.388	20625
861.521	21203
861.653	20412
861.786	20434
861.918	20537
862.05	20541
862.183	20674
862.315	20621
862.447	20609
862.58	20564
862.712	20423
862.844	20301
862.976	20480
863.108	20374
863.24	20705
863.372	20278
863.504	20423
863.636	20404
863.768	20438
863.9	20370
864.032	20320
864.164	20358
864.296	20412
864.428	20389
864.559	20617
864.691	20537
864.823	20408
864.954	20393
865.086	20233
865.217	20271
865.349	20145
865.48	20309
865.612	20237
865.743	20381
865.875	20301
866.006	20206
866.137	20210
866.269	20324
866.4	20237
866.531	20183
866.662	20221
866.793	20035
866.924	20191
867.055	20111
867.186	20142
867.317	20191
867.448	20092
867.579	20233
867.71	19997
867.841	20031
867.972	20233
868.103	20248
868.233	20206
868.364	20183
868.495	20240
868.625	20446
868.756	20598
868.886	20427
869.017	20404
869.147	20579
869.278	20667
869.408	20457
869.539	20530
869.669	20396
869.799	20469
869.929	20545
870.06	20511
870.19	20765
870.32	20807
870.45	20796
870.58	20663
870.71	20910
870.84	20880
870.97	20804
871.1	20902
871.23	21013
871.36	21085
871.489	20933
871.619	20998
871.749	21058
871.879	21077
872.008	21176
872.138	21020
872.267	21089
872.397	20967
872.526	20883
872.656	20948
872.785	20773
872.915	21195
873.044	21195
873.173	21138
873.303	21135
873.432	21188
873.561	21165
873.69	21066
873.819	21055
873.948	20990
874.077	21154
874.206	21024
874.335	21036
874.464	21135
874.593	21363
874.722	21252
874.851	21264
874.979	21294
875.108	21450
875.237	21287
875.365	21154
875.494	21245
875.623	21397
875.751	21256
875.88	21275
876.008	21443
876.136	21511
876.265	21622
876.393	21827
876.521	21644
876.65	21717
876.778	21724
876.906	21675
877.034	21682
877.162	21629
877.29	21637
877.418	21595
877.546	21778
877.674	21599
877.802	21648
877.93	21660
878.058	21652
878.185	21564
878.313	21603
878.441	21614
878.568	21363
878.696	21549
878.824	21709
878.951	21751
879.079	21831
879.206	21838
879.333	21819
879.461	21743
879.588	21907
879.715	21907
879.842	21869
879.97	21648
880.097	21469
880.224	21523
880.351	21511
880.478	21561
880.605	21412
880.732	21538
880.859	21671
880.986	21481
881.112	21408
881.239	21458
881.366	21150
881.493	21135
881.619	21112
881.746	21020
881.872	20948
881.999	21036
882.125	20975
882.252	21169
882.378	21135
882.505	21176
882.631	20963
882.757	20800
882.883	20872
883.01	20845
883.136	20724
883.262	20689
883.388	20598
883.514	20785
883.64	20842
883.766	20629
883.892	20511
884.018	20636
884.143	20720
884.269	20804
884.395	20632
884.52	20404
884.646	20522
884.772	20408
884.897	20400
885.023	20499
885.148	20503
885.274	20556
885.399	20587
885.524	20434
885.65	20431
885.775	20469
885.9	20423
886.025	20629
886.15	20541
886.275	20400
886.4	20309
886.525	20404
886.65	20446
886.775	20278
886.9	20393
887.025	20488
887.149	20343
887.274	20282
887.399	20183
887.523	20324
887.648	20096
887.773	20149
887.897	20237
888.021	20218
888.146	20180
888.27	20400
888.395	20210
888.519	20263
888.643	20168
888.767	20313
888.891	20065
889.015	19989
889.139	20050
889.263	19947
889.387	20062
889.511	20172
889.635	20149
889.759	20111
889.883	20050
890.006	19993
890.13	20008
890.254	19925
890.377	19909
890.501	19890
890.624	19693
890.748	19731
890.871	19643
890.995	19575
891.118	19521
891.241	19658
891.364	19628
891.488	19658
891.611	19578
891.734	19571
891.857	19685
891.98	19548
892.103	19578
892.226	19495
892.349	19548
892.471	19369
892.594	19578
892.717	19521
892.839	19533
892.962	19518
893.085	19578
893.207	19472
893.33	19365
893.452	19365
893.575	19453
893.697	19426
893.819	19662
893.941	19647
894.064	19590
894.186	19388
894.308	19285
894.43	19601
894.552	19689
894.674	19419
894.796	19407
894.918	19350
895.04	19388
895.161	19453
895.283	19422
895.405	19396
895.526	19529
895.648	19518
895.769	19559
895.891	19502
896.012	19632
896.134	19689
896.255	19487
896.376	19499
896.498	19567
896.619	19491
896.74	19590
896.861	19582
896.982	19833
897.103	19940
897.224	19780
897.345	19799
897.466	19681
897.587	19776
897.708	19837
897.828	19772
897.949	19753
898.07	19616
898.19	19643
898.311	19955
898.431	19738
898.552	19742
898.672	19811
898.792	19791
898.913	19795
899.033	19613
899.153	19601
899.273	19518
899.393	19430
899.513	19468
899.633	19559
899.753	19510
899.873	19548
899.993	19434
900.113	19533
900.232	19571
900.352	19544
900.472	19232
900.591	19164
900.711	19339
900.83	19289
900.95	19426
901.069	19339
901.189	19183
901.308	19023
901.427	18875
901.546	18878
901.665	18951
901.784	18977
901.904	18837
902.023	18715
902.141	18460
902.26	18464
902.379	18593
902.498	18342
902.617	18414
902.735	18464
902.854	18418
902.973	18376
903.091	18205
903.21	18159
903.328	18045
903.446	17954
903.565	17992
903.683	18019
903.801	17813
903.919	17897
904.038	17836
904.156	17649
904.274	17783
904.392	17589
904.51	17695
904.627	17748
904.745	17703
904.863	17710
904.981	17547
905.098	17318
905.216	17296
905.334	17402
905.451	17406
905.569	17368
905.686	17459
905.803	17341
905.921	17132
906.038	17220
906.155	17132
906.272	17090
906.389	17071
906.506	16805
906.623	16896
906.74	16885
906.857	16725
906.974	16805
907.091	17006
907.208	17018
907.324	16900
907.441	16752
907.557	16683
907.674	16592
907.79	16615
907.907	16622
908.023	16721
908.139	16577
908.256	16561
908.372	16584
908.488	16497
908.604	16413
908.72	16421
908.836	16363
908.952	16386
909.068	16489
909.184	16390
909.3	16322
909.415	16413
909.531	16234
909.647	16120
909.762	16017
909.878	15945
909.993	16086
910.108	16055
910.224	16006
910.339	16036
910.454	15880
910.57	15899
910.685	15789
910.8	15956
910.915	15968
911.03	15888
911.145	15774
911.259	15724
911.374	15591
911.489	15667
911.604	15610
911.718	15389
911.833	15420
911.947	15336
912.062	15279
912.176	15397
912.291	15389
912.405	15439
912.519	15549
912.633	15576
912.748	15450
912.862	15500
912.976	15272
913.09	15127
913.204	15184
913.318	15275
913.431	15317
913.545	15241
913.659	15367
913.772	15119
913.886	15009
914	14998
914.113	15066
914.226	15180
914.34	15055
914.453	14990
914.566	15047
914.68	14891
914.793	14921
914.906	14765
915.019	14632
915.132	14579
915.245	14617
915.358	14670
915.47	14613
915.583	14712
915.696	14613
915.809	14758
915.921	14754
916.034	14621
916.146	14549
916.259	14598
916.371	14632
916.483	14678
916.595	14457
916.708	14492
916.82	14476
916.932	14396
917.044	14568
917.156	14492
917.268	14290
917.38	14271
917.491	14286
917.603	14301
917.715	14461
917.826	14408
917.938	14191
918.049	14164
918.161	14298
918.272	14427
918.384	14404
918.495	14267
918.606	14161
918.717	14008
918.828	14199
918.939	14191
919.05	14077
919.161	14065
919.272	13917
919.383	14084
919.494	14103
919.604	14267
919.715	14016
919.826	13959
919.936	14020
920.047	14145
920.157	14111
920.267	14301
920.378	14119
920.488	14043
920.598	14123
920.708	14317
920.818	14377
920.928	14267
921.038	14332
921.148	14275
921.258	13967
921.368	13967
921.477	13811
921.587	13830
921.697	13700
921.806	13837
921.916	13685
922.025	13613
922.134	13381
922.244	13430
922.353	13594
922.462	13396
922.571	13331
922.68	13110
922.789	13194
922.898	13209
923.007	13042
923.116	13126
923.224	13076
923.333	13038
923.442	12947
923.55	12882
923.659	12970
923.767	13008
923.876	12852
923.984	12981
924.092	12814
924.201	12871
924.309	12859
924.417	12859
924.525	12787
924.633	12772
924.741	13753
924.849	12593
924.956	12810
925.064	12525
925.172	12509
925.279	12490
925.387	12536
925.494	12601
925.602	12711
925.709	12654
925.816	12513
925.924	12544
926.031	12547
926.138	12551
926.245	12578
926.352	12369
926.459	12525
926.566	12547
926.673	12365
926.779	12369
926.886	12292
926.993	12159
927.099	12140
927.206	12129
927.312	12095
927.419	12209
927.525	12182
927.631	12144
927.737	12026
927.843	12087
927.95	11874
928.056	11904
928.162	11927
928.267	12011
928.373	12582
928.479	12015
928.585	11859
928.69	11927
928.796	11961
928.901	11859
929.007	11699
929.112	11847
929.218	11859
929.323	11710
929.428	11665
929.533	11870
929.638	11684
929.743	11676
929.848	11688
929.953	11668
930.058	11486
930.163	11433
930.267	11505
930.372	11554
930.477	11383
930.581	11539
930.685	11459
930.79	11273
930.894	11296
930.998	11220
931.103	11436
931.207	11006
931.311	10946
931.415	10862
931.519	10733
931.623	10656
