Data from test_V78500241_389.txt Node
Date: Fri Mar 25 15:12:34 CST 2022
User: usil
Spectrometer: V785-0024
Trigger mode: 0
Integration Time (sec): 4.000000E-1
Scans to average: 1
Nonlinearity correction enabled: false
Boxcar width: 0
Storing dark spectrum: false
XAxis mode: Wavelengths
Number of Pixels in Spectrum: 1024
>>>>>Begin Spectral Data<<<<<
801.071	27017
801.214	26998
801.356	26678
801.499	26750
801.641	26533
801.783	26522
801.926	26708
802.068	26461
802.211	26431
802.353	26473
802.496	26233
802.638	26259
802.78	26225
802.923	26058
803.065	26172
803.208	26035
803.35	26229
803.492	26336
803.635	26419
803.777	26214
803.919	26431
804.061	26648
804.204	26473
804.346	26298
804.488	26199
804.63	26370
804.773	26180
804.915	26328
805.057	26419
805.199	26229
805.341	26415
805.483	26366
805.626	26412
805.768	26351
805.91	26381
806.052	26434
806.194	26320
806.336	26522
806.478	26431
806.62	26492
806.762	26602
806.904	26769
807.046	26960
807.188	26834
807.33	26804
807.472	26948
807.614	26826
807.756	26823
807.898	26663
808.04	26629
808.182	26678
808.324	26712
808.465	26659
808.607	26830
808.749	26887
808.891	27100
809.033	27237
809.174	27077
809.316	27074
809.458	26933
809.6	26975
809.741	27081
809.883	27188
810.025	27222
810.166	27317
810.308	27256
810.45	27272
810.591	27291
810.733	27131
810.875	27009
811.016	26952
811.158	26902
811.299	27043
811.441	27119
811.582	27184
811.724	26979
811.865	26952
812.007	26956
812.148	27123
812.29	27104
812.431	27222
812.573	27249
812.714	27306
812.855	27500
812.997	27698
813.138	27804
813.279	27713
813.421	27492
813.562	27420
813.703	27344
813.845	27150
813.986	26940
814.127	26804
814.268	26785
814.41	26746
814.551	26705
814.692	26716
814.833	26522
814.974	26705
815.115	26682
815.256	26609
815.397	26560
815.539	26518
815.68	26621
815.821	26473
815.962	26507
816.103	26400
816.244	26248
816.385	26244
816.526	26256
816.666	26001
816.807	25978
816.948	25932
817.089	26183
817.23	26008
817.371	26084
817.512	25860
817.653	25887
817.793	25868
817.934	25875
818.075	26024
818.216	26054
818.356	25921
818.497	25864
818.638	25677
818.778	25742
818.919	25750
819.06	25784
819.2	25769
819.341	25955
819.481	25970
819.622	25955
819.762	26328
819.903	26240
820.043	26084
820.184	26153
820.324	26008
820.465	26111
820.605	25970
820.746	26092
820.886	25932
821.026	26005
821.167	26046
821.307	26142
821.447	25959
821.588	25925
821.728	25689
821.868	25529
822.008	25567
822.149	25479
822.289	25327
822.429	25031
822.569	25057
822.709	25179
822.849	24928
822.99	24833
823.13	24935
823.27	24810
823.41	24688
823.55	24692
823.69	24601
823.83	24692
823.97	24608
824.11	24597
824.25	24536
824.389	24521
824.529	24612
824.669	24479
824.809	24623
824.949	24639
825.089	24486
825.228	24521
825.368	24391
825.508	24357
825.648	24395
825.787	24464
825.927	24547
826.067	24384
826.206	24505
826.346	24319
826.485	24399
826.625	24300
826.765	24445
826.904	24464
827.044	24197
827.183	24258
827.323	24140
827.462	24213
827.601	23992
827.741	24114
827.88	24129
828.02	24026
828.159	24053
828.298	24144
828.437	24041
828.577	24155
828.716	24174
828.855	24117
828.994	23904
829.134	24034
829.273	23916
829.412	23802
829.551	23908
829.69	23771
829.829	23832
829.968	23828
830.107	23798
830.246	23722
830.385	23836
830.524	23741
830.663	23630
830.802	23634
830.941	23562
831.08	23425
831.219	23440
831.357	23493
831.496	23642
831.635	23630
831.774	23254
831.913	23330
832.051	23345
832.19	23223
832.329	23227
832.467	23113
832.606	23052
832.744	23235
832.883	23246
833.022	23159
833.16	23223
833.299	23136
833.437	23166
833.576	23181
833.714	23258
833.852	23220
833.991	23216
834.129	23216
834.267	23326
834.406	23166
834.544	23254
834.682	23181
834.821	23121
834.959	23387
835.097	23265
835.235	23254
835.373	23193
835.511	23185
835.65	23216
835.788	22980
835.926	22927
836.064	22866
836.202	22934
836.34	22999
836.478	23174
836.615	23079
836.753	23117
836.891	23060
837.029	23064
837.167	23052
837.305	22972
837.443	22866
837.58	22946
837.718	22980
837.856	22961
837.993	22820
838.131	22980
838.269	22763
838.406	22938
838.544	22675
838.681	22573
838.819	22596
838.956	22474
839.094	22478
839.231	22565
839.369	22474
839.506	22668
839.643	22630
839.781	22538
839.918	22402
840.055	22386
840.193	22363
840.33	22405
840.467	22356
840.604	22424
840.742	22554
840.879	22261
841.016	22276
841.153	22147
841.29	22394
841.427	22219
841.564	22382
841.701	22265
841.838	22306
841.975	22352
842.112	22261
842.249	22219
842.385	22093
842.522	22424
842.659	22143
842.796	22021
842.933	22154
843.069	22006
843.206	22063
843.343	22147
843.479	22013
843.616	22124
843.752	21956
843.889	21861
844.025	21960
844.162	21930
844.298	21892
844.435	21922
844.571	21785
844.708	21823
844.844	22105
844.98	21915
845.117	21937
845.253	21778
845.389	21808
845.525	21895
845.661	21698
845.798	21652
845.934	21641
846.07	21561
846.206	21709
846.342	21739
846.478	21545
846.614	21355
846.75	21283
846.886	21336
847.022	21389
847.158	21424
847.294	21351
847.429	21473
847.565	21222
847.701	21523
847.837	21195
847.972	21116
848.108	21032
848.244	21192
848.379	20914
848.515	20963
848.65	20975
848.786	21020
848.921	20902
849.057	21074
849.192	20967
849.328	21017
849.463	20925
849.598	20872
849.734	20807
849.869	20754
850.004	20834
850.14	20731
850.275	20579
850.41	20754
850.545	20537
850.68	20617
850.815	20655
850.95	20644
851.085	20941
851.22	20891
851.355	20712
851.49	20826
851.625	20621
851.76	20674
851.895	20598
852.03	20492
852.165	20773
852.299	20796
852.434	20823
852.569	20602
852.703	20705
852.838	20705
852.973	20796
853.107	20750
853.242	20693
853.376	20632
853.511	20499
853.645	20575
853.78	20571
853.914	20476
854.048	20545
854.183	20492
854.317	20526
854.451	20674
854.585	20438
854.72	20518
854.854	20621
854.988	20492
855.122	20495
855.256	20381
855.39	20431
855.524	20549
855.658	20640
855.792	20552
855.926	20415
856.06	20594
856.194	20651
856.327	20587
856.461	20590
856.595	20461
856.729	20609
856.862	20560
856.996	20503
857.13	20674
857.263	20678
857.397	20670
857.53	20469
857.664	20644
857.797	20522
857.931	20602
858.064	20511
858.197	20659
858.331	20446
858.464	20454
858.597	20358
858.731	20552
858.864	20457
858.997	20579
859.13	20541
859.263	20575
859.396	20629
859.529	20423
859.662	20404
859.795	20473
859.928	20545
860.061	20651
860.194	20796
860.327	20476
860.46	20545
860.592	20530
860.725	20773
860.858	20689
860.99	20541
861.123	20412
861.256	20549
861.388	20602
861.521	21146
861.653	20355
861.786	20347
861.918	20465
862.05	20499
862.183	20484
862.315	20556
862.447	20492
862.58	20442
862.712	20298
862.844	20153
862.976	20267
863.108	20218
863.24	20716
863.372	20221
863.504	20111
863.636	20298
863.768	20298
863.9	20176
864.032	20199
864.164	20282
864.296	20385
864.428	20240
864.559	20313
864.691	20328
864.823	20161
864.954	20271
865.086	20206
865.217	20195
865.349	19963
865.48	20058
865.612	20157
865.743	20210
865.875	20187
866.006	20168
866.137	20210
866.269	20138
866.4	20088
866.531	20168
866.662	20016
866.793	20096
866.924	20126
867.055	20050
867.186	20073
867.317	20111
867.448	20020
867.579	20111
867.71	20046
867.841	20100
867.972	20012
868.103	20039
868.233	20115
868.364	20149
868.495	20195
868.625	20275
868.756	20469
868.886	20263
869.017	20286
869.147	20374
869.278	20431
869.408	20355
869.539	20366
869.669	20389
869.799	20415
869.929	20484
870.06	20377
870.19	20712
870.32	20689
870.45	20773
870.58	20705
870.71	20842
870.84	20834
870.97	20815
871.1	20804
871.23	20864
871.36	20952
871.489	20845
871.619	21009
871.749	20944
871.879	20975
872.008	21119
872.138	20967
872.267	20971
872.397	20906
872.526	20708
872.656	20830
872.785	20788
872.915	20906
873.044	21066
873.173	20975
873.303	20998
873.432	20998
873.561	21074
873.69	20880
873.819	20857
873.948	21066
874.077	20956
874.206	20883
874.335	20990
874.464	21020
874.593	21283
874.722	21195
874.851	21287
874.979	21138
875.108	21214
875.237	21146
875.365	21157
875.494	21131
875.623	21222
875.751	21207
875.88	21264
876.008	21306
876.136	21389
876.265	21667
876.393	21652
876.521	21728
876.65	21781
876.778	21542
876.906	21534
877.034	21519
877.162	21439
877.29	21595
877.418	21576
877.546	21549
877.674	21603
877.802	21583
877.93	21561
878.058	21564
878.185	21447
878.313	21504
878.441	21572
878.568	21302
878.696	21374
878.824	21504
878.951	21709
879.079	21728
879.206	21819
879.333	21770
879.461	21641
879.588	21778
879.715	21671
879.842	21709
879.97	21587
880.097	21431
880.224	21325
880.351	21393
880.478	21450
880.605	21344
880.732	21355
880.859	21587
880.986	21473
881.112	21439
881.239	21150
881.366	21192
881.493	21100
881.619	21009
881.746	21047
881.872	20891
881.999	20902
882.125	20868
882.252	21047
882.378	20937
882.505	21077
882.631	20834
882.757	20735
882.883	20636
883.01	20773
883.136	20686
883.262	20537
883.388	20609
883.514	20579
883.64	20739
883.766	20590
883.892	20473
884.018	20469
884.143	20708
884.269	20689
884.395	20434
884.52	20343
884.646	20366
884.772	20176
884.897	20298
885.023	20343
885.148	20419
885.274	20598
885.399	20404
885.524	20294
885.65	20305
885.775	20385
885.9	20294
886.025	20499
886.15	20393
886.275	20286
886.4	20225
886.525	20374
886.65	20309
886.775	20339
886.9	20396
887.025	20484
887.149	20256
887.274	20126
887.399	20005
887.523	20130
887.648	20107
887.773	19936
887.897	20202
888.021	20172
888.146	20073
888.27	20153
888.395	20290
888.519	20069
888.643	20153
888.767	20142
888.891	20088
889.015	19928
889.139	19917
889.263	19921
889.387	20046
889.511	20050
889.635	20088
889.759	19967
889.883	19852
890.006	19947
890.13	20084
890.254	19814
890.377	19765
890.501	19757
890.624	19605
890.748	19647
890.871	19563
890.995	19460
891.118	19430
891.241	19616
891.364	19514
891.488	19556
891.611	19502
891.734	19422
891.857	19533
891.98	19514
892.103	19559
892.226	19491
892.349	19438
892.471	19259
892.594	19403
892.717	19426
892.839	19373
892.962	19377
893.085	19403
893.207	19289
893.33	19225
893.452	19289
893.575	19373
893.697	19392
893.819	19464
893.941	19597
894.064	19514
894.186	19343
894.308	19346
894.43	19411
894.552	19597
894.674	19438
894.796	19400
894.918	19339
895.04	19403
895.161	19506
895.283	19480
895.405	19331
895.526	19304
895.648	19460
895.769	19381
895.891	19567
896.012	19552
896.134	19491
896.255	19514
896.376	19403
896.498	19270
896.619	19407
896.74	19457
896.861	19472
896.982	19708
897.103	19868
897.224	19780
897.345	19655
897.466	19556
897.587	19643
897.708	19731
897.828	19727
897.949	19643
898.07	19445
898.19	19662
898.311	19586
898.431	19548
898.552	19708
898.672	19715
898.792	19693
898.913	19700
899.033	19525
899.153	19548
899.273	19430
899.393	19499
899.513	19529
899.633	19438
899.753	19438
899.873	19377
899.993	19449
900.113	19362
900.232	19362
900.352	19312
900.472	19198
900.591	19103
900.711	19266
900.83	19133
900.95	19247
901.069	19331
901.189	19015
901.308	18905
901.427	18844
901.546	18730
901.665	18798
901.784	18760
901.904	18608
902.023	18555
902.141	18441
902.26	18369
902.379	18422
902.498	18311
902.617	18232
902.735	18304
902.854	18201
902.973	18251
903.091	18079
903.21	17916
903.328	18011
903.446	17920
903.565	17802
903.683	17771
903.801	17665
903.919	17714
904.038	17642
904.156	17566
904.274	17707
904.392	17543
904.51	17562
904.627	17573
904.745	17684
904.863	17596
904.981	17474
905.098	17296
905.216	17311
905.334	17254
905.451	17341
905.569	17174
905.686	17292
905.803	17178
905.921	16976
906.038	17258
906.155	17155
906.272	16991
906.389	17006
906.506	16892
906.623	16721
906.74	16816
906.857	16569
906.974	16725
907.091	16866
907.208	16938
907.324	16801
907.441	16702
907.557	16634
907.674	16535
907.79	16409
907.907	16485
908.023	16497
908.139	16599
908.256	16485
908.372	16325
908.488	16428
908.604	16306
908.72	16143
908.836	16185
908.952	16280
909.068	16158
909.184	16310
909.3	16173
909.415	16219
909.531	16272
909.647	15949
909.762	15960
909.878	15998
909.993	16021
910.108	15918
910.224	15941
910.339	15876
910.454	15816
910.57	15789
910.685	15690
910.8	15987
910.915	15911
911.03	15690
911.145	15644
911.259	15682
911.374	15606
911.489	15485
911.604	15523
911.718	15298
911.833	15260
911.947	15256
912.062	15100
912.176	15359
912.291	15412
912.405	15310
912.519	15454
912.633	15481
912.748	15298
912.862	15291
912.976	15135
913.09	15055
913.204	15036
913.318	15013
913.431	15233
913.545	15192
913.659	15310
913.772	15097
913.886	15051
914	14914
914.113	15074
914.226	15036
914.34	14941
914.453	14906
914.566	15028
914.68	14845
914.793	14887
914.906	14701
915.019	14693
915.132	14454
915.245	14610
915.358	14469
915.47	14465
915.583	14533
915.696	14598
915.809	14613
915.921	14705
916.034	14522
916.146	14438
916.259	14537
916.371	14587
916.483	14579
916.595	14332
916.708	14461
916.82	14381
916.932	14442
917.044	14415
917.156	14343
917.268	14309
917.38	14237
917.491	14142
917.603	14176
917.715	14271
917.826	14244
917.938	14164
918.049	14077
918.161	14267
918.272	14286
918.384	14320
918.495	14153
918.606	14050
918.717	13963
918.828	14024
918.939	13959
919.05	13982
919.161	14020
919.272	13727
919.383	13780
919.494	14046
919.604	14252
919.715	13993
919.826	13925
919.936	14073
920.047	14103
920.157	13986
920.267	14195
920.378	14039
920.488	13841
920.598	14119
920.708	14202
920.818	14164
920.928	14157
921.038	14259
921.148	14214
921.258	13967
921.368	13852
921.477	13734
921.587	13708
921.697	13613
921.806	13594
921.916	13533
922.025	13373
922.134	13381
922.244	13438
922.353	13384
922.462	13221
922.571	13160
922.68	12962
922.789	13019
922.898	13141
923.007	13000
923.116	13000
923.224	12977
923.333	13042
923.442	12875
923.55	12890
923.659	12916
923.767	12962
923.876	12829
923.984	12920
924.092	12837
924.201	12814
924.309	12795
924.417	12856
924.525	12760
924.633	12787
924.741	13441
924.849	12509
924.956	12726
925.064	12578
925.172	12391
925.279	12384
925.387	12544
925.494	12460
925.602	12540
925.709	12502
925.816	12372
925.924	12380
926.031	12551
926.138	12403
926.245	12460
926.352	12315
926.459	12536
926.566	12422
926.673	12311
926.779	12163
926.886	12247
926.993	12136
927.099	12121
927.206	11980
927.312	12057
927.419	12091
927.525	12026
927.631	12034
927.737	11999
927.843	11859
927.95	11821
928.056	11916
928.162	11847
928.267	11965
928.373	12555
928.479	11977
928.585	11741
928.69	11859
928.796	11843
928.901	11771
929.007	11657
929.112	11691
929.218	11695
929.323	11668
929.428	11672
929.533	11786
929.638	11528
929.743	11604
929.848	11520
929.953	11604
930.058	11547
930.163	11269
930.267	11372
930.372	11501
930.477	11197
930.581	11592
930.685	11417
930.79	11193
930.894	11235
930.998	11204
931.103	11414
931.207	11033
931.311	10900
931.415	10782
931.519	10626
931.623	10618
