Data from test_V78500241_1038.txt Node
Date: Fri Mar 25 15:17:05 CST 2022
User: usil
Spectrometer: V785-0024
Trigger mode: 0
Integration Time (sec): 4.000000E-1
Scans to average: 1
Nonlinearity correction enabled: false
Boxcar width: 0
Storing dark spectrum: false
XAxis mode: Wavelengths
Number of Pixels in Spectrum: 1024
>>>>>Begin Spectral Data<<<<<
801.071	28268
801.214	28017
801.356	27884
801.499	27675
801.641	27831
801.783	27865
801.926	27831
802.068	27880
802.211	27694
802.353	27762
802.496	27500
802.638	27454
802.78	27530
802.923	27416
803.065	27420
803.208	27515
803.35	27519
803.492	27454
803.635	27625
803.777	27583
803.919	27580
804.061	27918
804.204	27667
804.346	27644
804.488	27576
804.63	27671
804.773	27583
804.915	27793
805.057	27778
805.199	27583
805.341	27812
805.483	27789
805.626	27850
805.768	27610
805.91	27793
806.052	27861
806.194	27705
806.336	27930
806.478	27838
806.62	27846
806.762	28070
806.904	28036
807.046	28409
807.188	28223
807.33	28162
807.472	28291
807.614	28200
807.756	28215
807.898	28162
808.04	28006
808.182	28101
808.324	28299
808.465	28249
808.607	28226
808.749	28497
808.891	28569
809.033	28538
809.174	28656
809.316	28325
809.458	28322
809.6	28531
809.741	28577
809.883	28557
810.025	28831
810.166	28759
810.308	28797
810.45	28645
810.591	28691
810.733	28592
810.875	28500
811.016	28497
811.158	28303
811.299	28729
811.441	28641
811.582	28516
811.724	28516
811.865	28588
812.007	28546
812.148	28440
812.29	28538
812.431	28679
812.573	28824
812.714	28873
812.855	29060
812.997	29060
813.138	29368
813.279	29231
813.421	28930
813.562	28934
813.703	28911
813.845	28850
813.986	28523
814.127	28401
814.268	28169
814.41	28230
814.551	28078
814.692	28333
814.833	28025
814.974	28185
815.115	28211
815.256	27972
815.397	28120
815.539	28059
815.68	27987
815.821	27972
815.962	27979
816.103	27983
816.244	27880
816.385	27857
816.526	27705
816.666	27686
816.807	27477
816.948	27443
817.089	27568
817.23	27545
817.371	27549
817.512	27443
817.653	27637
817.793	27462
817.934	27523
818.075	27587
818.216	27648
818.356	27507
818.497	27439
818.638	27416
818.778	27268
818.919	27214
819.06	27435
819.2	27405
819.341	27500
819.481	27534
819.622	27671
819.762	27823
819.903	27816
820.043	27561
820.184	27663
820.324	27667
820.465	27720
820.605	27781
820.746	27667
820.886	27504
821.026	27618
821.167	27728
821.307	27671
821.447	27492
821.588	27336
821.728	27233
821.868	27226
822.008	27058
822.149	26952
822.289	27055
822.429	26762
822.569	26716
822.709	26564
822.849	26511
822.99	26541
823.13	26412
823.27	26461
823.41	26313
823.55	26153
823.69	26252
823.83	26404
823.97	26377
824.11	26153
824.25	26138
824.389	26092
824.529	26168
824.669	26263
824.809	26183
824.949	26324
825.089	26313
825.228	26199
825.368	25917
825.508	26111
825.648	26122
825.787	25997
825.927	26050
826.067	25932
826.206	25917
826.346	26062
826.485	26081
826.625	25966
826.765	26115
826.904	26122
827.044	25909
827.183	25784
827.323	25674
827.462	25944
827.601	25822
827.741	25921
827.88	25974
828.02	25575
828.159	25750
828.298	25731
828.437	25830
828.577	25632
828.716	25868
828.855	25647
828.994	25571
829.134	25445
829.273	25472
829.412	25464
829.551	25373
829.69	25449
829.829	25518
829.968	25544
830.107	25510
830.246	25571
830.385	25320
830.524	25544
830.663	25202
830.802	25126
830.941	25034
831.08	25080
831.219	25301
831.357	25209
831.496	25350
831.635	25065
831.774	24973
831.913	25008
832.051	24924
832.19	25015
832.329	24886
832.467	24772
832.606	24578
832.744	24722
832.883	24692
833.022	24719
833.16	24760
833.299	24764
833.437	24806
833.576	24833
833.714	24886
833.852	24958
833.991	24829
834.129	24833
834.267	24935
834.406	24810
834.544	24772
834.682	24882
834.821	24764
834.959	24962
835.097	24806
835.235	24844
835.373	24760
835.511	24806
835.65	24525
835.788	24627
835.926	24597
836.064	24509
836.202	24445
836.34	24749
836.478	24696
836.615	24639
836.753	24783
836.891	24692
837.029	24681
837.167	24639
837.305	24528
837.443	24475
837.58	24616
837.718	24532
837.856	24486
837.993	24441
838.131	24429
838.269	24414
838.406	24350
838.544	24270
838.681	24083
838.819	24235
838.956	23999
839.094	24030
839.231	23980
839.369	24144
839.506	24357
839.643	24220
839.781	23889
839.918	24049
840.055	23973
840.193	23859
840.33	23836
840.467	23908
840.604	23885
840.742	24258
840.879	23684
841.016	23783
841.153	23786
841.29	23999
841.427	23866
841.564	24007
841.701	23870
841.838	23805
841.975	23824
842.112	23733
842.249	23699
842.385	23733
842.522	23726
842.659	23691
842.796	23436
842.933	23528
843.069	23695
843.206	23600
843.343	23608
843.479	23581
843.616	23577
843.752	23421
843.889	23402
844.025	23573
844.162	23417
844.298	23471
844.435	23459
844.571	23395
844.708	23414
844.844	23482
844.98	23528
845.117	23516
845.253	23353
845.389	23292
845.525	23299
845.661	23269
845.798	23071
845.934	23239
846.07	23147
846.206	23216
846.342	23269
846.478	23098
846.614	22805
846.75	22881
846.886	22828
847.022	22812
847.158	22889
847.294	23010
847.429	22915
847.565	22900
847.701	23029
847.837	22634
847.972	22634
848.108	22782
848.244	22607
848.379	22440
848.515	22535
848.65	22470
848.786	22497
848.921	22516
849.057	22550
849.192	22538
849.328	22550
849.463	22554
849.598	22428
849.734	22390
849.869	22329
850.004	22405
850.14	22249
850.275	22325
850.41	22207
850.545	22097
850.68	22173
850.815	22207
850.95	22135
851.085	22478
851.22	22337
851.355	22253
851.49	22219
851.625	22196
851.76	22215
851.895	22211
852.03	22101
852.165	22303
852.299	22276
852.434	22398
852.569	22188
852.703	22280
852.838	22421
852.973	22363
853.107	22348
853.242	22192
853.376	22097
853.511	21949
853.645	21953
853.78	22120
853.914	22097
854.048	22010
854.183	21922
854.317	22074
854.451	22223
854.585	22013
854.72	22055
854.854	22051
854.988	22044
855.122	22013
855.256	21953
855.39	22070
855.524	22124
855.658	22055
855.792	22086
855.926	22070
856.06	22109
856.194	22166
856.327	21972
856.461	21953
856.595	21956
856.729	22063
856.862	22169
856.996	21979
857.13	22055
857.263	22090
857.397	22158
857.53	22029
857.664	22013
857.797	22097
857.931	22154
858.064	22010
858.197	22124
858.331	22063
858.464	22029
858.597	21956
858.731	22105
858.864	22059
858.997	21964
859.13	22025
859.263	21972
859.396	22078
859.529	22036
859.662	22078
859.795	21922
859.928	22105
860.061	22211
860.194	22325
860.327	22067
860.46	22078
860.592	22185
860.725	22200
860.858	22158
860.99	22116
861.123	21949
861.256	22059
861.388	22063
861.521	22710
861.653	21876
861.786	21865
861.918	21876
862.05	21983
862.183	21926
862.315	21865
862.447	22010
862.58	21873
862.712	21755
862.844	21785
862.976	21869
863.108	21869
863.24	22249
863.372	21675
863.504	21739
863.636	21728
863.768	21907
863.9	21679
864.032	21595
864.164	21808
864.296	21736
864.428	21793
864.559	21888
864.691	21701
864.823	21800
864.954	21766
865.086	21762
865.217	21656
865.349	21610
865.48	21618
865.612	21656
865.743	21800
865.875	21755
866.006	21557
866.137	21724
866.269	21675
866.4	21667
866.531	21652
866.662	21424
866.793	21488
866.924	21545
867.055	21523
867.186	21671
867.317	21564
867.448	21420
867.579	21523
867.71	21580
867.841	21488
867.972	21641
868.103	21443
868.233	21603
868.364	21618
868.495	21759
868.625	21827
868.756	21797
868.886	21823
869.017	21720
869.147	21819
869.278	21945
869.408	21869
869.539	21728
869.669	21857
869.799	21819
869.929	21865
870.06	21915
870.19	22010
870.32	22101
870.45	22143
870.58	22173
870.71	22291
870.84	22402
870.97	22291
871.1	22078
871.23	22329
871.36	22363
871.489	22196
871.619	22451
871.749	22360
871.879	22375
872.008	22352
872.138	22371
872.267	22318
872.397	22242
872.526	22234
872.656	22230
872.785	22226
872.915	22428
873.044	22557
873.173	22325
873.303	22508
873.432	22512
873.561	22440
873.69	22470
873.819	22405
873.948	22390
874.077	22436
874.206	22291
874.335	22356
874.464	22493
874.593	22679
874.722	22584
874.851	22649
874.979	22683
875.108	22691
875.237	22603
875.365	22508
875.494	22683
875.623	22561
875.751	22527
875.88	22668
876.008	22866
876.136	22820
876.265	23025
876.393	23128
876.521	23189
876.65	23029
876.778	22976
876.906	23044
877.034	22930
877.162	22968
877.29	22812
877.418	22923
877.546	22976
877.674	22976
877.802	22877
877.93	22881
878.058	22919
878.185	22919
878.313	22809
878.441	22892
878.568	22812
878.696	22984
878.824	22885
878.951	23067
879.079	23102
879.206	23242
879.333	23037
879.461	22976
879.588	23128
879.715	23048
879.842	23227
879.97	22881
880.097	22809
880.224	22771
880.351	22816
880.478	22847
880.605	22713
880.732	22820
880.859	22957
880.986	22774
881.112	22919
881.239	22622
881.366	22603
881.493	22440
881.619	22284
881.746	22447
881.872	22440
881.999	22314
882.125	22185
882.252	22417
882.378	22303
882.505	22443
882.631	22143
882.757	22078
882.883	22162
883.01	22017
883.136	22017
883.262	21918
883.388	22006
883.514	21998
883.64	21975
883.766	21907
883.892	21800
884.018	21804
884.143	22002
884.269	22029
884.395	21675
884.52	21648
884.646	21682
884.772	21534
884.897	21587
885.023	21595
885.148	21739
885.274	21785
885.399	21804
885.524	21660
885.65	21728
885.775	21759
885.9	21766
886.025	21759
886.15	21671
886.275	21614
886.4	21393
886.525	21572
886.65	21561
886.775	21576
886.9	21690
887.025	21915
887.149	21622
887.274	21420
887.399	21447
887.523	21374
887.648	21348
887.773	21264
887.897	21488
888.021	21591
888.146	21355
888.27	21519
888.395	21485
888.519	21424
888.643	21393
888.767	21443
888.891	21382
889.015	21161
889.139	21329
889.263	21222
889.387	21408
889.511	21485
889.635	21393
889.759	21131
889.883	21268
890.006	21275
890.13	21252
890.254	21165
890.377	21104
890.501	21009
890.624	20971
890.748	20982
890.871	20906
890.995	20769
891.118	20727
891.241	20891
891.364	20750
891.488	20887
891.611	20689
891.734	20773
891.857	20785
891.98	20902
892.103	20887
892.226	20758
892.349	20781
892.471	20518
892.594	20720
892.717	20762
892.839	20720
892.962	20659
893.085	20701
893.207	20632
893.33	20530
893.452	20514
893.575	20735
893.697	20720
893.819	20880
893.941	20823
894.064	20811
894.186	20674
894.308	20609
894.43	20716
894.552	20849
894.674	20663
894.796	20583
894.918	20689
895.04	20492
895.161	20682
895.283	20651
895.405	20629
895.526	20754
895.648	20613
895.769	20716
895.891	20788
896.012	20724
896.134	20617
896.255	20629
896.376	20560
896.498	20720
896.619	20598
896.74	20667
896.861	20651
896.982	20998
897.103	21146
897.224	20899
897.345	20921
897.466	20868
897.587	20880
897.708	21104
897.828	20902
897.949	20758
898.07	20621
898.19	20758
898.311	20963
898.431	20800
898.552	20788
898.672	20925
898.792	20929
898.913	20876
899.033	20785
899.153	20644
899.273	20552
899.393	20583
899.513	20396
899.633	20667
899.753	20530
899.873	20568
899.993	20594
900.113	20560
900.232	20514
900.352	20507
900.472	20377
900.591	20374
900.711	20328
900.83	20298
900.95	20385
901.069	20480
901.189	20244
901.308	20062
901.427	19890
901.546	19955
901.665	19967
901.784	19841
901.904	19864
902.023	19693
902.141	19567
902.26	19384
902.379	19533
902.498	19502
902.617	19396
902.735	19502
902.854	19362
902.973	19491
903.091	19053
903.21	19118
903.328	19141
903.446	19012
903.565	18909
903.683	18894
903.801	18681
903.919	18947
904.038	18833
904.156	18711
904.274	18817
904.392	18776
904.51	18665
904.627	18700
904.745	18719
904.863	18817
904.981	18410
905.098	18391
905.216	18380
905.334	18460
905.451	18388
905.569	18228
905.686	18346
905.803	18380
905.921	18167
906.038	18289
906.155	18110
906.272	18087
906.389	18072
906.506	17874
906.623	17851
906.74	17859
906.857	17794
906.974	17843
907.091	17965
907.208	17999
907.324	17878
907.441	17794
907.557	17566
907.674	17592
907.79	17638
907.907	17585
908.023	17611
908.139	17642
908.256	17539
908.372	17501
908.488	17455
908.604	17364
908.72	17280
908.836	17261
908.952	17383
909.068	17402
909.184	17512
909.3	17273
909.415	17356
909.531	17345
909.647	17071
909.762	17006
909.878	16957
909.993	17102
910.108	16961
910.224	16930
910.339	16999
910.454	16946
910.57	16771
910.685	16702
910.8	17010
910.915	16942
911.03	16831
911.145	16683
911.259	16622
911.374	16660
911.489	16558
911.604	16508
911.718	16329
911.833	16318
911.947	16375
912.062	16249
912.176	16284
912.291	16242
912.405	16348
912.519	16512
912.633	16497
912.748	16299
912.862	16352
912.976	16242
913.09	16086
913.204	16181
913.318	16200
913.431	16162
913.545	16120
913.659	16204
913.772	16090
913.886	16090
914	15994
914.113	16112
914.226	15991
914.34	16032
914.453	15895
914.566	15975
914.68	15835
914.793	15854
914.906	15610
915.019	15564
915.132	15564
915.245	15507
915.358	15728
915.47	15500
915.583	15614
915.696	15633
915.809	15644
915.921	15675
916.034	15523
916.146	15420
916.259	15431
916.371	15526
916.483	15408
916.595	15378
916.708	15325
916.82	15412
916.932	15291
917.044	15233
917.156	15279
917.268	15264
917.38	15245
917.491	15074
917.603	15184
917.715	15112
917.826	15169
917.938	15150
918.049	14918
918.161	15093
918.272	15332
918.384	15203
918.495	15165
918.606	14891
918.717	14941
918.828	14876
918.939	14990
919.05	14872
919.161	14887
919.272	14800
919.383	14815
919.494	14880
919.604	15005
919.715	14925
919.826	14792
919.936	14781
920.047	14921
920.157	14861
920.267	15024
920.378	14948
920.488	14857
920.598	15074
920.708	15165
920.818	15009
920.928	15032
921.038	15192
921.148	15119
921.258	14815
921.368	14750
921.477	14697
921.587	14613
921.697	14412
921.806	14552
921.916	14381
922.025	14374
922.134	14206
922.244	14176
922.353	14294
922.462	14130
922.571	13982
922.68	13989
922.789	13928
922.898	13917
923.007	13841
923.116	13936
923.224	13890
923.333	13879
923.442	13723
923.55	13658
923.659	13757
923.767	13712
923.876	13662
923.984	13734
924.092	13533
924.201	13590
924.309	13605
924.417	13578
924.525	13483
924.633	13518
924.741	14522
924.849	13411
924.956	13476
925.064	13358
925.172	13236
925.279	13278
925.387	13324
925.494	13350
925.602	13434
925.709	13206
925.816	13118
925.924	13149
926.031	13263
926.138	13217
926.245	13247
926.352	13168
926.459	13354
926.566	13381
926.673	13183
926.779	13023
926.886	13065
926.993	12958
927.099	12798
927.206	12703
927.312	12817
927.419	12863
927.525	12867
927.631	12943
927.737	12650
927.843	12559
927.95	12521
928.056	12677
928.162	12677
928.267	12673
928.373	13324
928.479	12768
928.585	12513
928.69	12623
928.796	12574
928.901	12483
929.007	12426
929.112	12589
929.218	12426
929.323	12414
929.428	12433
929.533	12509
929.638	12327
929.743	12285
929.848	12369
929.953	12289
930.058	12182
930.163	12064
930.267	12015
930.372	12140
930.477	12026
930.581	12163
930.685	12095
930.79	12019
930.894	11946
930.998	11897
931.103	11965
931.207	11699
931.311	11577
931.415	11505
931.519	11242
931.623	11296
