Data from test_V78500241_683.txt Node
Date: Fri Mar 25 15:14:36 CST 2022
User: usil
Spectrometer: V785-0024
Trigger mode: 0
Integration Time (sec): 4.000000E-1
Scans to average: 1
Nonlinearity correction enabled: false
Boxcar width: 0
Storing dark spectrum: false
XAxis mode: Wavelengths
Number of Pixels in Spectrum: 1024
>>>>>Begin Spectral Data<<<<<
801.071	28177
801.214	27945
801.356	27865
801.499	27762
801.641	27526
801.783	27595
801.926	27690
802.068	27641
802.211	27614
802.353	27572
802.496	27348
802.638	27245
802.78	27161
802.923	27138
803.065	27249
803.208	27252
803.35	27218
803.492	27287
803.635	27572
803.777	27458
803.919	27496
804.061	27743
804.204	27637
804.346	27454
804.488	27275
804.63	27450
804.773	27336
804.915	27344
805.057	27477
805.199	27405
805.341	27561
805.483	27496
805.626	27637
805.768	27530
805.91	27526
806.052	27507
806.194	27629
806.336	27781
806.478	27618
806.62	27724
806.762	27720
806.904	27888
807.046	28185
807.188	28109
807.33	28017
807.472	28017
807.614	28048
807.756	27975
807.898	27819
808.04	27793
808.182	27835
808.324	27835
808.465	27857
808.607	28207
808.749	28303
808.891	28413
809.033	28417
809.174	28299
809.316	28371
809.458	28207
809.6	28196
809.741	28295
809.883	28466
810.025	28596
810.166	28493
810.308	28668
810.45	28637
810.591	28645
810.733	28310
810.875	28173
811.016	28265
811.158	28341
811.299	28325
811.441	28421
811.582	28447
811.724	28139
811.865	28242
812.007	28211
812.148	28341
812.29	28303
812.431	28337
812.573	28713
812.714	28706
812.855	28801
812.997	28953
813.138	29094
813.279	28858
813.421	28919
813.562	28869
813.703	28702
813.845	28634
813.986	28291
814.127	28105
814.268	27994
814.41	28002
814.551	27884
814.692	28181
814.833	28002
814.974	27918
815.115	28070
815.256	27869
815.397	27755
815.539	27975
815.68	27663
815.821	27671
815.962	27793
816.103	27755
816.244	27759
816.385	27568
816.526	27545
816.666	27450
816.807	27275
816.948	27306
817.089	27447
817.23	27351
817.371	27393
817.512	27408
817.653	27180
817.793	27340
817.934	27237
818.075	27336
818.216	27427
818.356	27146
818.497	27135
818.638	27127
818.778	27112
818.919	26975
819.06	27135
819.2	27142
819.341	27370
819.481	27268
819.622	27424
819.762	27618
819.903	27443
820.043	27466
820.184	27329
820.324	27393
820.465	27443
820.605	27424
820.746	27344
820.886	27298
821.026	27424
821.167	27325
821.307	27363
821.447	27275
821.588	27043
821.728	26986
821.868	26861
822.008	26834
822.149	26689
822.289	26609
822.429	26457
822.569	26495
822.709	26305
822.849	26278
822.99	26267
823.13	26240
823.27	26301
823.41	26027
823.55	26062
823.69	26195
823.83	26005
823.97	26001
824.11	26016
824.25	25704
824.389	25928
824.529	25986
824.669	25951
824.809	26016
824.949	25879
825.089	25833
825.228	25955
825.368	25803
825.508	25845
825.648	25719
825.787	25845
825.927	25811
826.067	25700
826.206	25849
826.346	25738
826.485	25849
826.625	25837
826.765	25875
826.904	25883
827.044	25521
827.183	25559
827.323	25441
827.462	25563
827.601	25388
827.741	25533
827.88	25472
828.02	25491
828.159	25343
828.298	25510
828.437	25575
828.577	25521
828.716	25529
828.855	25487
828.994	24981
829.134	25160
829.273	25221
829.412	25194
829.551	25122
829.69	25255
829.829	25221
829.968	25278
830.107	25304
830.246	25339
830.385	25190
830.524	25168
830.663	25042
830.802	24856
830.941	24738
831.08	24810
831.219	24935
831.357	24901
831.496	24996
831.635	24749
831.774	24715
831.913	24684
832.051	24627
832.19	24559
832.329	24646
832.467	24570
832.606	24509
832.744	24494
832.883	24399
833.022	24426
833.16	24578
833.299	24547
833.437	24513
833.576	24627
833.714	24555
833.852	24578
833.991	24620
834.129	24719
834.267	24544
834.406	24601
834.544	24513
834.682	24574
834.821	24407
834.959	24772
835.097	24422
835.235	24475
835.373	24494
835.511	24441
835.65	24330
835.788	24433
835.926	24289
836.064	24057
836.202	24129
836.34	24376
836.478	24258
836.615	24350
836.753	24384
836.891	24433
837.029	24300
837.167	24289
837.305	24228
837.443	24262
837.58	24247
837.718	24224
837.856	24144
837.993	24121
838.131	24190
838.269	23965
838.406	24106
838.544	23882
838.681	23855
838.819	23935
838.956	23547
839.094	23684
839.231	23684
839.369	23687
839.506	23961
839.643	23980
839.781	23695
839.918	23608
840.055	23707
840.193	23646
840.33	23585
840.467	23501
840.604	23665
840.742	23741
840.879	23467
841.016	23490
841.153	23440
841.29	23642
841.427	23512
841.564	23627
841.701	23573
841.838	23638
841.975	23436
842.112	23277
842.249	23471
842.385	23368
842.522	23524
842.659	23337
842.796	23212
842.933	23326
843.069	23379
843.206	23296
843.343	23254
843.479	23258
843.616	23288
843.752	23136
843.889	23117
844.025	23360
844.162	23189
844.298	23174
844.435	23029
844.571	23117
844.708	23227
844.844	23132
844.98	23132
845.117	23174
845.253	22961
845.389	22850
845.525	22984
845.661	22942
845.798	22839
845.934	23014
846.07	22793
846.206	22805
846.342	22927
846.478	22736
846.614	22691
846.75	22474
846.886	22557
847.022	22691
847.158	22554
847.294	22512
847.429	22645
847.565	22535
847.701	22908
847.837	22352
847.972	22200
848.108	22295
848.244	22417
848.379	22272
848.515	22181
848.65	22162
848.786	22021
848.921	22272
849.057	22341
849.192	22291
849.328	22135
849.463	22196
849.598	22067
849.734	22032
849.869	21968
850.004	21873
850.14	21975
850.275	21911
850.41	21831
850.545	21857
850.68	21766
850.815	21915
850.95	21922
851.085	22044
851.22	22055
851.355	21819
851.49	21949
851.625	21800
851.76	21892
851.895	21857
852.03	21808
852.165	21888
852.299	21880
852.434	22010
852.569	21945
852.703	21888
852.838	22006
852.973	21960
853.107	22139
853.242	21816
853.376	21694
853.511	21614
853.645	21766
853.78	21720
853.914	21747
854.048	21599
854.183	21690
854.317	21743
854.451	22013
854.585	21720
854.72	21690
854.854	21842
854.988	21587
855.122	21709
855.256	21595
855.39	21648
855.524	21781
855.658	21861
855.792	21835
855.926	21675
856.06	21774
856.194	21770
856.327	21720
856.461	21603
856.595	21625
856.729	21739
856.862	21838
856.996	21884
857.13	21926
857.263	21899
857.397	21785
857.53	21781
857.664	21739
857.797	21838
857.931	21842
858.064	21804
858.197	21804
858.331	21572
858.464	21770
858.597	21637
858.731	21675
858.864	21694
858.997	21576
859.13	21743
859.263	21720
859.396	21823
859.529	21618
859.662	21671
859.795	21686
859.928	21861
860.061	21964
860.194	21983
860.327	21861
860.46	21625
860.592	21823
860.725	21876
860.858	21850
860.99	21724
861.123	21637
861.256	21618
861.388	21720
861.521	22493
861.653	21599
861.786	21564
861.918	21553
862.05	21599
862.183	21713
862.315	21660
862.447	21656
862.58	21603
862.712	21424
862.844	21450
862.976	21485
863.108	21606
863.24	21816
863.372	21397
863.504	21336
863.636	21397
863.768	21523
863.9	21401
864.032	21397
864.164	21317
864.296	21519
864.428	21545
864.559	21462
864.691	21515
864.823	21393
864.954	21386
865.086	21359
865.217	21454
865.349	21222
865.48	21275
865.612	21519
865.743	21454
865.875	21382
866.006	21329
866.137	21332
866.269	21317
866.4	21340
866.531	21355
866.662	21135
866.793	21211
866.924	21321
867.055	21260
867.186	21237
867.317	21249
867.448	21180
867.579	21150
867.71	21192
867.841	21123
867.972	21226
868.103	21203
868.233	21268
868.364	21245
868.495	21344
868.625	21462
868.756	21618
868.886	21431
869.017	21553
869.147	21553
869.278	21599
869.408	21515
869.539	21462
869.669	21625
869.799	21496
869.929	21557
870.06	21625
870.19	21838
870.32	21747
870.45	21842
870.58	21941
870.71	21934
870.84	22025
870.97	21888
871.1	21930
871.23	22093
871.36	21968
871.489	21964
871.619	22074
871.749	22112
871.879	22101
872.008	22135
872.138	22051
872.267	22109
872.397	22128
872.526	21911
872.656	22025
872.785	21903
872.915	22158
873.044	22135
873.173	22166
873.303	22139
873.432	22070
873.561	22204
873.69	22101
873.819	22158
873.948	22344
874.077	22169
874.206	22112
874.335	22154
874.464	22238
874.593	22310
874.722	22257
874.851	22310
874.979	22409
875.108	22314
875.237	22329
875.365	22188
875.494	22303
875.623	22417
875.751	22128
875.88	22337
876.008	22352
876.136	22626
876.265	22664
876.393	22809
876.521	22702
876.65	22759
876.778	22786
876.906	22683
877.034	22630
877.162	22706
877.29	22546
877.418	22702
877.546	22736
877.674	22664
877.802	22660
877.93	22546
878.058	22504
878.185	22546
878.313	22649
878.441	22759
878.568	22584
878.696	22611
878.824	22683
878.951	22774
879.079	22869
879.206	22991
879.333	22782
879.461	22679
879.588	22839
879.715	22904
879.842	22869
879.97	22748
880.097	22424
880.224	22470
880.351	22599
880.478	22386
880.605	22466
880.732	22375
880.859	22691
880.986	22523
881.112	22432
881.239	22329
881.366	22192
881.493	22196
881.619	22109
881.746	22070
881.872	22078
881.999	22010
882.125	22055
882.252	22036
882.378	22036
882.505	22097
882.631	22017
882.757	21785
882.883	21781
883.01	21690
883.136	21641
883.262	21671
883.388	21549
883.514	21728
883.64	21724
883.766	21804
883.892	21583
884.018	21519
884.143	21675
884.269	21686
884.395	21500
884.52	21424
884.646	21359
884.772	21317
884.897	21199
885.023	21488
885.148	21424
885.274	21622
885.399	21511
885.524	21321
885.65	21408
885.775	21416
885.9	21351
886.025	21443
886.15	21443
886.275	21473
886.4	21317
886.525	21344
886.65	21325
886.775	21374
886.9	21458
887.025	21618
887.149	21207
887.274	21214
887.399	21157
887.523	21245
887.648	21195
887.773	20937
887.897	21226
888.021	21096
888.146	21135
888.27	21241
888.395	21287
888.519	21237
888.643	21176
888.767	21249
888.891	21142
889.015	20899
889.139	21024
889.263	20910
889.387	20986
889.511	21188
889.635	20998
889.759	20929
889.883	20925
890.006	20944
890.13	20979
890.254	20823
890.377	20868
890.501	20667
890.624	20731
890.748	20678
890.871	20640
890.995	20480
891.118	20431
891.241	20617
891.364	20625
891.488	20568
891.611	20514
891.734	20492
891.857	20530
891.98	20655
892.103	20636
892.226	20556
892.349	20583
892.471	20278
892.594	20404
892.717	20419
892.839	20495
892.962	20511
893.085	20396
893.207	20290
893.33	20313
893.452	20355
893.575	20552
893.697	20488
893.819	20617
893.941	20670
894.064	20556
894.186	20332
894.308	20396
894.43	20522
894.552	20526
894.674	20469
894.796	20301
894.918	20396
895.04	20336
895.161	20488
895.283	20404
895.405	20362
895.526	20381
895.648	20412
895.769	20492
895.891	20431
896.012	20454
896.134	20457
896.255	20454
896.376	20351
896.498	20427
896.619	20347
896.74	20309
896.861	20465
896.982	20765
897.103	20826
897.224	20617
897.345	20602
897.466	20545
897.587	20556
897.708	20735
897.828	20689
897.949	20499
898.07	20465
898.19	20644
898.311	20602
898.431	20530
898.552	20587
898.672	20708
898.792	20659
898.913	20648
899.033	20427
899.153	20282
899.273	20229
899.393	20427
899.513	20396
899.633	20256
899.753	20309
899.873	20164
899.993	20301
900.113	20256
900.232	20267
900.352	20199
900.472	20134
900.591	20050
900.711	20088
900.83	20024
900.95	20195
901.069	20259
901.189	20050
901.308	19849
901.427	19666
901.546	19898
901.665	19753
901.784	19750
901.904	19639
902.023	19422
902.141	19343
902.26	19346
902.379	19316
902.498	19285
902.617	19236
902.735	19240
902.854	19171
902.973	19122
903.091	18947
903.21	18909
903.328	18939
903.446	18757
903.565	18677
903.683	18871
903.801	18589
903.919	18730
904.038	18650
904.156	18433
904.274	18475
904.392	18426
904.51	18452
904.627	18437
904.745	18494
904.863	18490
904.981	18281
905.098	18167
905.216	18083
905.334	18034
905.451	18209
905.569	18136
905.686	18224
905.803	18076
905.921	17878
906.038	18098
906.155	17950
906.272	17824
906.389	17802
906.506	17726
906.623	17649
906.74	17570
906.857	17532
906.974	17379
907.091	17745
907.208	17783
907.324	17672
907.441	17596
907.557	17391
907.674	17353
907.79	17296
907.907	17284
908.023	17318
908.139	17414
908.256	17258
908.372	17174
908.488	17250
908.604	17083
908.72	16930
908.836	17098
908.952	17064
909.068	17174
909.184	17299
909.3	17025
909.415	17052
909.531	17121
909.647	16911
909.762	16831
909.878	16816
909.993	16748
910.108	16748
910.224	16759
910.339	16767
910.454	16672
910.57	16626
910.685	16523
910.8	16862
910.915	16790
911.03	16649
911.145	16538
911.259	16348
911.374	16386
911.489	16249
911.604	16295
911.718	16135
911.833	16139
911.947	15975
912.062	15972
912.176	16173
912.291	16101
912.405	16211
912.519	16261
912.633	16284
912.748	16147
912.862	16147
912.976	16013
913.09	15880
913.204	15945
913.318	15994
913.431	15987
913.545	15956
913.659	15979
913.772	15873
913.886	15819
914	15789
914.113	15778
914.226	15789
914.34	15732
914.453	15526
914.566	15804
914.68	15728
914.793	15580
914.906	15500
915.019	15492
915.132	15291
915.245	15313
915.358	15264
915.47	15317
915.583	15340
915.696	15424
915.809	15397
915.921	15511
916.034	15291
916.146	15264
916.259	15214
916.371	15351
916.483	15332
916.595	15279
916.708	15100
916.82	15138
916.932	15131
917.044	15192
917.156	15097
917.268	15066
917.38	15009
917.491	14963
917.603	14914
917.715	14963
917.826	15097
917.938	14925
918.049	14838
918.161	14941
918.272	15085
918.384	15039
918.495	14925
918.606	14708
918.717	14621
918.828	14792
918.939	14735
919.05	14590
919.161	14651
919.272	14560
919.383	14545
919.494	14777
919.604	14937
919.715	14629
919.826	14659
919.936	14663
920.047	14819
920.157	14735
920.267	14830
920.378	14705
920.488	14663
920.598	14861
920.708	15066
920.818	14861
920.928	14872
921.038	14963
921.148	14887
921.258	14708
921.368	14579
921.477	14511
921.587	14454
921.697	14298
921.806	14393
921.916	14252
922.025	14176
922.134	14016
922.244	14001
922.353	14001
922.462	13856
922.571	13890
922.68	13803
922.789	13753
922.898	13715
923.007	13761
923.116	13704
923.224	13556
923.333	13681
923.442	13514
923.55	13567
923.659	13601
923.767	13609
923.876	13419
923.984	13563
924.092	13449
924.201	13540
924.309	13441
924.417	13343
924.525	13407
924.633	13426
924.741	14153
924.849	13164
924.956	13251
925.064	13156
925.172	13046
925.279	13099
925.387	13107
925.494	13137
925.602	13221
925.709	13175
925.816	13012
925.924	13084
926.031	13145
926.138	13000
926.245	13088
926.352	12973
926.459	13103
926.566	13114
926.673	12886
926.779	12791
926.886	12833
926.993	12745
927.099	12669
927.206	12597
927.312	12669
927.419	12673
927.525	12688
927.631	12753
927.737	12547
927.843	12547
927.95	12350
928.056	12521
928.162	12502
928.267	12525
928.373	13179
928.479	12623
928.585	12350
928.69	12475
928.796	12391
928.901	12353
929.007	12273
929.112	12422
929.218	12300
929.323	12273
929.428	12289
929.533	12365
929.638	12228
929.743	12155
929.848	12152
929.953	12144
930.058	12068
930.163	11847
930.267	11851
930.372	12045
930.477	11764
930.581	11973
930.685	12011
930.79	11813
930.894	11870
930.998	11748
931.103	11870
931.207	11604
931.311	11448
931.415	11318
931.519	11162
931.623	11185
