Data from test_V78500241_1433.txt Node
Date: Fri Mar 25 15:19:50 CST 2022
User: usil
Spectrometer: V785-0024
Trigger mode: 0
Integration Time (sec): 4.000000E-1
Scans to average: 1
Nonlinearity correction enabled: false
Boxcar width: 0
Storing dark spectrum: false
XAxis mode: Wavelengths
Number of Pixels in Spectrum: 1024
>>>>>Begin Spectral Data<<<<<
801.071	28177
801.214	27998
801.356	27819
801.499	27888
801.641	27641
801.783	27728
801.926	27599
802.068	27519
802.211	27564
802.353	27591
802.496	27355
802.638	27348
802.78	27374
802.923	27264
803.065	27051
803.208	27233
803.35	27233
803.492	27287
803.635	27393
803.777	27351
803.919	27420
804.061	27728
804.204	27736
804.346	27393
804.488	27386
804.63	27595
804.773	27469
804.915	27587
805.057	27507
805.199	27336
805.341	27447
805.483	27633
805.626	27682
805.768	27466
805.91	27618
806.052	27682
806.194	27667
806.336	27724
806.478	27701
806.62	27648
806.762	27781
806.904	27873
807.046	28090
807.188	28025
807.33	28025
807.472	28032
807.614	27918
807.756	28082
807.898	28013
808.04	27934
808.182	27793
808.324	27819
808.465	28029
808.607	28013
808.749	28306
808.891	28352
809.033	28459
809.174	28272
809.316	28154
809.458	28242
809.6	28306
809.741	28428
809.883	28394
810.025	28641
810.166	28584
810.308	28493
810.45	28466
810.591	28371
810.733	28352
810.875	28166
811.016	28105
811.158	28139
811.299	28352
811.441	28394
811.582	28375
811.724	28154
811.865	28192
812.007	28375
812.148	28306
812.29	28287
812.431	28519
812.573	28577
812.714	28656
812.855	28866
812.997	28991
813.138	28991
813.279	28873
813.421	28919
813.562	28778
813.703	28527
813.845	28470
813.986	28181
814.127	28154
814.268	27930
814.41	28143
814.551	27869
814.692	28196
814.833	27831
814.974	27930
815.115	27838
815.256	27842
815.397	27789
815.539	27808
815.68	27701
815.821	27572
815.962	27736
816.103	27614
816.244	27694
816.385	27568
816.526	27504
816.666	27302
816.807	27222
816.948	27317
817.089	27260
817.23	27161
817.371	27310
817.512	27344
817.653	27218
817.793	27169
817.934	27226
818.075	27203
818.216	27207
818.356	27211
818.497	27123
818.638	27039
818.778	26956
818.919	26967
819.06	27135
819.2	27245
819.341	27165
819.481	27260
819.622	27389
819.762	27614
819.903	27481
820.043	27431
820.184	27332
820.324	27427
820.465	27294
820.605	27344
820.746	27443
820.886	27313
821.026	27340
821.167	27154
821.307	27420
821.447	27336
821.588	27146
821.728	27127
821.868	26933
822.008	26720
822.149	26670
822.289	26594
822.429	26488
822.569	26488
822.709	26434
822.849	26233
822.99	26248
823.13	26088
823.27	26229
823.41	26027
823.55	25978
823.69	26107
823.83	25963
823.97	25966
824.11	25791
824.25	25772
824.389	25913
824.529	26035
824.669	25837
824.809	25989
824.949	25852
825.089	25978
825.228	25841
825.368	25765
825.508	25693
825.648	25765
825.787	25989
825.927	25681
826.067	25662
826.206	25818
826.346	25818
826.485	25696
826.625	25628
826.765	25898
826.904	25871
827.044	25422
827.183	25567
827.323	25468
827.462	25487
827.601	25422
827.741	25316
827.88	25381
828.02	25358
828.159	25491
828.298	25377
828.437	25605
828.577	25362
828.716	25491
828.855	25354
828.994	25251
829.134	25217
829.273	25236
829.412	25255
829.551	25000
829.69	25164
829.829	25175
829.968	25228
830.107	25282
830.246	25080
830.385	25129
830.524	25034
830.663	24973
830.802	24821
830.941	24783
831.08	24852
831.219	24791
831.357	24795
831.496	25072
831.635	24749
831.774	24684
831.913	24574
832.051	24544
832.19	24471
832.329	24585
832.467	24494
832.606	24426
832.744	24452
832.883	24319
833.022	24384
833.16	24365
833.299	24464
833.437	24391
833.576	24505
833.714	24445
833.852	24498
833.991	24528
834.129	24601
834.267	24525
834.406	24407
834.544	24486
834.682	24486
834.821	24410
834.959	24551
835.097	24475
835.235	24665
835.373	24441
835.511	24441
835.65	24490
835.788	24365
835.926	24190
836.064	24121
836.202	24136
836.34	24445
836.478	24361
836.615	24251
836.753	24197
836.891	24342
837.029	24209
837.167	24300
837.305	24148
837.443	24163
837.58	24220
837.718	24182
837.856	24114
837.993	24098
838.131	24114
838.269	23980
838.406	24064
838.544	24003
838.681	23771
838.819	23798
838.956	23592
839.094	23471
839.231	23714
839.369	23668
839.506	23954
839.643	23840
839.781	23520
839.918	23570
840.055	23497
840.193	23604
840.33	23421
840.467	23547
840.604	23535
840.742	23794
840.879	23391
841.016	23360
841.153	23421
841.29	23497
841.427	23524
841.564	23608
841.701	23501
841.838	23425
841.975	23398
842.112	23455
842.249	23455
842.385	23311
842.522	23501
842.659	23391
842.796	23242
842.933	23261
843.069	23334
843.206	23193
843.343	23170
843.479	23322
843.616	23421
843.752	23174
843.889	22976
844.025	23181
844.162	23010
844.298	23250
844.435	23025
844.571	23041
844.708	22980
844.844	23105
844.98	23231
845.117	23094
845.253	23003
845.389	22892
845.525	22828
845.661	22820
845.798	22653
845.934	22767
846.07	22694
846.206	22744
846.342	22736
846.478	22752
846.614	22478
846.75	22538
846.886	22493
847.022	22523
847.158	22561
847.294	22577
847.429	22580
847.565	22447
847.701	22626
847.837	22230
847.972	22280
848.108	22185
848.244	22226
848.379	22181
848.515	22025
848.65	22109
848.786	22135
848.921	22032
849.057	22238
849.192	22299
849.328	22177
849.463	22090
849.598	22063
849.734	21945
849.869	21956
850.004	21865
850.14	21865
850.275	21972
850.41	21789
850.545	21876
850.68	21804
850.815	21838
850.95	21797
851.085	22044
851.22	21907
851.355	21857
851.49	21778
851.625	21759
851.76	21819
851.895	21804
852.03	21671
852.165	21884
852.299	21816
852.434	21975
852.569	21895
852.703	21846
852.838	21827
852.973	22063
853.107	21880
853.242	21800
853.376	21690
853.511	21564
853.645	21603
853.78	21819
853.914	21644
854.048	21564
854.183	21675
854.317	21656
854.451	21800
854.585	21682
854.72	21591
854.854	21663
854.988	21595
855.122	21686
855.256	21530
855.39	21648
855.524	21724
855.658	21675
855.792	21694
855.926	21656
856.06	21778
856.194	21694
856.327	21739
856.461	21675
856.595	21606
856.729	21652
856.862	21755
856.996	21606
857.13	21675
857.263	21850
857.397	21709
857.53	21572
857.664	21690
857.797	21648
857.931	21701
858.064	21755
858.197	21766
858.331	21751
858.464	21667
858.597	21587
858.731	21542
858.864	21667
858.997	21591
859.13	21633
859.263	21690
859.396	21675
859.529	21641
859.662	21701
859.795	21618
859.928	21690
860.061	21876
860.194	21934
860.327	21804
860.46	21713
860.592	21770
860.725	21648
860.858	21755
860.99	21694
861.123	21610
861.256	21545
861.388	21595
861.521	22246
861.653	21435
861.786	21279
861.918	21568
862.05	21557
862.183	21576
862.315	21439
862.447	21675
862.58	21561
862.712	21408
862.844	21424
862.976	21408
863.108	21469
863.24	21675
863.372	21252
863.504	21329
863.636	21359
863.768	21428
863.9	21348
864.032	21317
864.164	21302
864.296	21302
864.428	21447
864.559	21321
864.691	21401
864.823	21443
864.954	21325
865.086	21351
865.217	21374
865.349	21188
865.48	21180
865.612	21279
865.743	21351
865.875	21348
866.006	21249
866.137	21241
866.269	21260
866.4	21176
866.531	21077
866.662	21089
866.793	21161
866.924	21233
867.055	21279
867.186	21161
867.317	21089
867.448	21142
867.579	21192
867.71	21085
867.841	21077
867.972	21302
868.103	21207
868.233	21245
868.364	21146
868.495	21313
868.625	21378
868.756	21454
868.886	21351
869.017	21481
869.147	21504
869.278	21549
869.408	21428
869.539	21428
869.669	21545
869.799	21523
869.929	21435
870.06	21538
870.19	21709
870.32	21656
870.45	21709
870.58	21762
870.71	21926
870.84	21884
870.97	21880
871.1	21895
871.23	21915
871.36	21994
871.489	21941
871.619	21934
871.749	22032
871.879	22086
872.008	22051
872.138	21911
872.267	22051
872.397	21987
872.526	21797
872.656	21823
872.785	21930
872.915	22078
873.044	22002
873.173	21998
873.303	22032
873.432	21968
873.561	22192
873.69	21975
873.819	21975
873.948	22013
874.077	22036
874.206	21987
874.335	22120
874.464	22143
874.593	22405
874.722	22204
874.851	22394
874.979	22325
875.108	22436
875.237	22154
875.365	22162
875.494	22261
875.623	22238
875.751	22261
875.88	22265
876.008	22306
876.136	22329
876.265	22550
876.393	22816
876.521	22607
876.65	22691
876.778	22653
876.906	22668
877.034	22504
877.162	22668
877.29	22599
877.418	22691
877.546	22653
877.674	22672
877.802	22573
877.93	22538
878.058	22527
878.185	22478
878.313	22550
878.441	22611
878.568	22413
878.696	22485
878.824	22561
878.951	22592
879.079	22809
879.206	22809
879.333	22729
879.461	22675
879.588	22618
879.715	22774
879.842	22805
879.97	22599
880.097	22390
880.224	22451
880.351	22432
880.478	22462
880.605	22344
880.732	22333
880.859	22622
880.986	22500
881.112	22409
881.239	22188
881.366	22223
881.493	22249
881.619	22044
881.746	22013
881.872	21949
881.999	21953
882.125	21987
882.252	21918
882.378	22002
882.505	22013
882.631	21732
882.757	21762
882.883	21857
883.01	21580
883.136	21576
883.262	21519
883.388	21538
883.514	21625
883.64	21652
883.766	21644
883.892	21572
884.018	21450
884.143	21595
884.269	21614
884.395	21382
884.52	21226
884.646	21416
884.772	21310
884.897	21272
885.023	21424
885.148	21344
885.274	21469
885.399	21420
885.524	21355
885.65	21367
885.775	21317
885.9	21272
886.025	21374
886.15	21473
886.275	21252
886.4	21344
886.525	21317
886.65	21325
886.775	21192
886.9	21393
887.025	21454
887.149	21237
887.274	21116
887.399	21096
887.523	21188
887.648	21081
887.773	20986
887.897	21127
888.021	21089
888.146	20952
888.27	21146
888.395	21119
888.519	21222
888.643	21055
888.767	21138
888.891	20929
889.015	20792
889.139	21017
889.263	20918
889.387	20967
889.511	21096
889.635	20963
889.759	20826
889.883	20785
890.006	20864
890.13	21058
890.254	20762
890.377	20785
890.501	20705
890.624	20579
890.748	20693
890.871	20480
890.995	20461
891.118	20457
891.241	20480
891.364	20442
891.488	20583
891.611	20434
891.734	20442
891.857	20434
891.98	20484
892.103	20370
892.226	20465
892.349	20423
892.471	20339
892.594	20362
892.717	20396
892.839	20324
892.962	20320
893.085	20469
893.207	20252
893.33	20183
893.452	20218
893.575	20317
893.697	20332
893.819	20404
893.941	20503
894.064	20526
894.186	20351
894.308	20221
894.43	20530
894.552	20415
894.674	20374
894.796	20240
894.918	20294
895.04	20267
895.161	20434
895.283	20294
895.405	20176
895.526	20301
895.648	20309
895.769	20336
895.891	20374
896.012	20355
896.134	20503
896.255	20492
896.376	20259
896.498	20278
896.619	20286
896.74	20328
896.861	20351
896.982	20606
897.103	20800
897.224	20598
897.345	20552
897.466	20518
897.587	20461
897.708	20785
897.828	20648
897.949	20518
898.07	20374
898.19	20469
898.311	20594
898.431	20541
898.552	20667
898.672	20533
898.792	20575
898.913	20625
899.033	20404
899.153	20347
899.273	20313
899.393	20294
899.513	20377
899.633	20252
899.753	20240
899.873	20183
899.993	20275
900.113	20275
900.232	20130
900.352	20176
900.472	20126
900.591	19932
900.711	20050
900.83	20058
900.95	20237
901.069	20172
901.189	20050
901.308	19761
901.427	19643
901.546	19814
901.665	19563
901.784	19521
901.904	19483
902.023	19426
902.141	19301
902.26	19171
902.379	19228
902.498	19160
902.617	19110
902.735	19202
902.854	19190
902.973	19080
903.091	18844
903.21	18867
903.328	18852
903.446	18715
903.565	18601
903.683	18601
903.801	18528
903.919	18627
904.038	18551
904.156	18403
904.274	18525
904.392	18315
904.51	18376
904.627	18395
904.745	18437
904.863	18407
904.981	18270
905.098	18106
905.216	18125
905.334	18129
905.451	18068
905.569	17992
905.686	18133
905.803	18038
905.921	17752
906.038	17828
906.155	17931
906.272	17726
906.389	17771
906.506	17585
906.623	17577
906.74	17653
906.857	17543
906.974	17585
907.091	17661
907.208	17775
907.324	17642
907.441	17615
907.557	17311
907.674	17345
907.79	17356
907.907	17299
908.023	17288
908.139	17368
908.256	17322
908.372	17239
908.488	17143
908.604	17136
908.72	16930
908.836	17029
908.952	17052
909.068	17052
909.184	17185
909.3	16953
909.415	17071
909.531	16987
909.647	16824
909.762	16717
909.878	16778
909.993	16740
910.108	16569
910.224	16664
910.339	16790
910.454	16569
910.57	16577
910.685	16459
910.8	16771
910.915	16820
911.03	16481
911.145	16451
911.259	16348
911.374	16394
911.489	16207
911.604	16242
911.718	16036
911.833	15975
911.947	15865
912.062	15869
912.176	16063
912.291	15975
912.405	16044
912.519	16219
912.633	16306
912.748	16048
912.862	16036
912.976	15888
913.09	15732
913.204	15800
913.318	15842
913.431	15998
913.545	15956
913.659	16074
913.772	15880
913.886	15747
914	15648
914.113	15705
914.226	15743
914.34	15732
914.453	15542
914.566	15690
914.68	15625
914.793	15538
914.906	15389
915.019	15306
915.132	15230
915.245	15340
915.358	15294
915.47	15397
915.583	15195
915.696	15313
915.809	15428
915.921	15408
916.034	15237
916.146	15161
916.259	15195
916.371	15146
916.483	15161
916.595	15043
916.708	15207
916.82	15093
916.932	15005
917.044	15047
917.156	15062
917.268	14918
917.38	14998
917.491	14887
917.603	14990
917.715	14933
917.826	14960
917.938	14826
918.049	14781
918.161	14963
918.272	14982
918.384	14975
918.495	14823
918.606	14644
918.717	14678
918.828	14754
918.939	14788
919.05	14625
919.161	14674
919.272	14473
919.383	14560
919.494	14781
919.604	14845
919.715	14727
919.826	14648
919.936	14564
920.047	14686
920.157	14640
920.267	14811
920.378	14617
920.488	14663
920.598	14815
920.708	14979
920.818	14861
920.928	14857
921.038	14948
921.148	14834
921.258	14575
921.368	14393
921.477	14393
921.587	14393
921.697	14240
921.806	14282
921.916	14157
922.025	14130
922.134	14081
922.244	14084
922.353	14005
922.462	13921
922.571	13814
922.68	13670
922.789	13567
922.898	13750
923.007	13620
923.116	13704
923.224	13693
923.333	13613
923.442	13559
923.55	13586
923.659	13525
923.767	13499
923.876	13537
923.984	13521
924.092	13369
924.201	13449
924.309	13331
924.417	13327
924.525	13346
924.633	13350
924.741	14161
924.849	13076
924.956	13274
925.064	13122
925.172	13046
925.279	13008
925.387	13107
925.494	13126
925.602	13145
925.709	13141
925.816	12981
925.924	13008
926.031	13156
926.138	13091
926.245	13034
926.352	12947
926.459	13091
926.566	13042
926.673	12901
926.779	12798
926.886	12817
926.993	12635
927.099	12547
927.206	12540
927.312	12525
927.419	12585
927.525	12635
927.631	12681
927.737	12563
927.843	12460
927.95	12369
928.056	12372
928.162	12502
928.267	12506
928.373	12996
928.479	12521
928.585	12273
928.69	12475
928.796	12429
928.901	12281
929.007	12213
929.112	12300
929.218	12254
929.323	12190
929.428	12121
929.533	12353
929.638	12110
929.743	12155
929.848	12266
929.953	12140
930.058	11999
930.163	11824
930.267	11843
930.372	11984
930.477	11832
930.581	11984
930.685	11958
930.79	11722
930.894	11726
930.998	11665
931.103	11855
931.207	11467
931.311	11440
931.415	11345
931.519	11109
931.623	11117
