Data from test_V78500241_453.txt Node
Date: Fri Mar 25 15:13:00 CST 2022
User: usil
Spectrometer: V785-0024
Trigger mode: 0
Integration Time (sec): 4.000000E-1
Scans to average: 1
Nonlinearity correction enabled: false
Boxcar width: 0
Storing dark spectrum: false
XAxis mode: Wavelengths
Number of Pixels in Spectrum: 1024
>>>>>Begin Spectral Data<<<<<
801.071	27161
801.214	27123
801.356	26921
801.499	26906
801.641	26773
801.783	26716
801.926	26883
802.068	26754
802.211	26651
802.353	26507
802.496	26457
802.638	26313
802.78	26309
802.923	26370
803.065	26237
803.208	26313
803.35	26355
803.492	26488
803.635	26545
803.777	26537
803.919	26667
804.061	26758
804.204	26545
804.346	26389
804.488	26473
804.63	26495
804.773	26275
804.915	26476
805.057	26667
805.199	26552
805.341	26587
805.483	26640
805.626	26552
805.768	26469
805.91	26571
806.052	26617
806.194	26514
806.336	26701
806.478	26583
806.62	26446
806.762	26815
806.904	26982
807.046	27180
807.188	27051
807.33	27074
807.472	27157
807.614	27081
807.756	27039
807.898	26758
808.04	26918
808.182	26940
808.324	26883
808.465	26952
808.607	27070
808.749	27142
808.891	27226
809.033	27344
809.174	27435
809.316	27169
809.458	27348
809.6	27275
809.741	27336
809.883	27279
810.025	27504
810.166	27443
810.308	27473
810.45	27504
810.591	27439
810.733	27340
810.875	27374
811.016	27055
811.158	27070
811.299	27264
811.441	27443
811.582	27348
811.724	27264
811.865	27169
812.007	27298
812.148	27142
812.29	27222
812.431	27291
812.573	27504
812.714	27534
812.855	27637
812.997	27698
813.138	27937
813.279	27937
813.421	27720
813.562	27610
813.703	27507
813.845	27473
813.986	27180
814.127	26956
814.268	26975
814.41	26933
814.551	26788
814.692	26804
814.833	26864
814.974	26849
815.115	26933
815.256	26857
815.397	26845
815.539	26788
815.68	26686
815.821	26640
815.962	26754
816.103	26743
816.244	26541
816.385	26400
816.526	26507
816.666	26275
816.807	26122
816.948	26290
817.089	26259
817.23	26191
817.371	26233
817.512	26320
817.653	26126
817.793	26214
817.934	26244
818.075	26252
818.216	26073
818.356	26142
818.497	26062
818.638	25898
818.778	25974
818.919	25982
819.06	25917
819.2	26058
819.341	26218
819.481	26142
819.622	26271
819.762	26423
819.903	26438
820.043	26351
820.184	26206
820.324	26138
820.465	26309
820.605	26229
820.746	26332
820.886	26065
821.026	26202
821.167	26290
821.307	26202
821.447	26084
821.588	26001
821.728	25978
821.868	25833
822.008	25776
822.149	25708
822.289	25681
822.429	25388
822.569	25403
822.709	25346
822.849	25103
822.99	25080
823.13	25027
823.27	25114
823.41	24977
823.55	24890
823.69	24966
823.83	24992
823.97	24909
824.11	24642
824.25	24711
824.389	24669
824.529	24905
824.669	24779
824.809	24924
824.949	24722
825.089	24863
825.228	24821
825.368	24597
825.508	24608
825.648	24661
825.787	24635
825.927	24696
826.067	24745
826.206	24635
826.346	24684
826.485	24623
826.625	24540
826.765	24574
826.904	24589
827.044	24464
827.183	24486
827.323	24395
827.462	24475
827.601	24304
827.741	24460
827.88	24388
828.02	24285
828.159	24376
828.298	24296
828.437	24464
828.577	24323
828.716	24467
828.855	24304
828.994	24018
829.134	24083
829.273	24091
829.412	24041
829.551	23984
829.69	24224
829.829	24155
829.968	24171
830.107	24167
830.246	24182
830.385	23984
830.524	23988
830.663	23984
830.802	23843
830.941	23821
831.08	23531
831.219	23961
831.357	23676
831.496	23923
831.635	23657
831.774	23581
831.913	23634
832.051	23505
832.19	23551
832.329	23486
832.467	23478
832.606	23292
832.744	23551
832.883	23436
833.022	23433
833.16	23440
833.299	23402
833.437	23330
833.576	23649
833.714	23448
833.852	23459
833.991	23539
834.129	23600
834.267	23577
834.406	23516
834.544	23482
834.682	23516
834.821	23406
834.959	23611
835.097	23372
835.235	23478
835.373	23638
835.511	23429
835.65	23322
835.788	23273
835.926	23132
836.064	23284
836.202	23296
836.34	23353
836.478	23543
836.615	23334
836.753	23246
836.891	23417
837.029	23436
837.167	23322
837.305	23318
837.443	23174
837.58	23079
837.718	23208
837.856	23284
837.993	22995
838.131	23155
838.269	23079
838.406	23010
838.544	23006
838.681	22869
838.819	22790
838.956	22554
839.094	22725
839.231	22630
839.369	22797
839.506	23102
839.643	22889
839.781	22592
839.918	22630
840.055	22649
840.193	22656
840.33	22508
840.467	22569
840.604	22618
840.742	22850
840.879	22538
841.016	22451
841.153	22440
841.29	22656
841.427	22554
841.564	22580
841.701	22577
841.838	22531
841.975	22409
842.112	22508
842.249	22322
842.385	22360
842.522	22512
842.659	22455
842.796	22291
842.933	22390
843.069	22337
843.206	22303
843.343	22451
843.479	22363
843.616	22310
843.752	22002
843.889	22051
844.025	22287
844.162	22135
844.298	22177
844.435	22162
844.571	22097
844.708	22238
844.844	22211
844.98	22249
845.117	22204
845.253	22105
845.389	22101
845.525	21975
845.661	21945
845.798	21766
845.934	21949
846.07	21823
846.206	21831
846.342	21926
846.478	22006
846.614	21739
846.75	21515
846.886	21557
847.022	21667
847.158	21591
847.294	21667
847.429	21595
847.565	21504
847.701	21838
847.837	21332
847.972	21310
848.108	21317
848.244	21496
848.379	21184
848.515	21138
848.65	21195
848.786	21188
848.921	21207
849.057	21393
849.192	21249
849.328	21089
849.463	21127
849.598	21173
849.734	21116
849.869	21055
850.004	20902
850.14	20944
850.275	20994
850.41	20963
850.545	20967
850.68	20971
850.815	21020
850.95	20948
851.085	21089
851.22	21036
851.355	20994
851.49	21070
851.625	20845
851.76	20891
851.895	20864
852.03	20811
852.165	20819
852.299	20982
852.434	21005
852.569	20937
852.703	20975
852.838	20921
852.973	21085
853.107	21017
853.242	20811
853.376	20796
853.511	20655
853.645	20796
853.78	20948
853.914	20765
854.048	20697
854.183	20883
854.317	20819
854.451	20883
854.585	20758
854.72	20674
854.854	20796
854.988	20659
855.122	20777
855.256	20697
855.39	20754
855.524	20963
855.658	20727
855.792	20720
855.926	20727
856.06	20724
856.194	20891
856.327	20716
856.461	20678
856.595	20788
856.729	20762
856.862	20906
856.996	20735
857.13	20933
857.263	20929
857.397	20823
857.53	20849
857.664	20758
857.797	20785
857.931	20918
858.064	20758
858.197	20788
858.331	20689
858.464	20705
858.597	20708
858.731	20815
858.864	20724
858.997	20735
859.13	20796
859.263	20777
859.396	20895
859.529	20773
859.662	20674
859.795	20712
859.928	20769
860.061	20758
860.194	20960
860.327	20720
860.46	20845
860.592	20952
860.725	20868
860.858	20872
860.99	20849
861.123	20754
861.256	20754
861.388	20811
861.521	21382
861.653	20541
861.786	20568
861.918	20575
862.05	20560
862.183	20800
862.315	20724
862.447	20735
862.58	20739
862.712	20511
862.844	20495
862.976	20434
863.108	20545
863.24	21066
863.372	20442
863.504	20400
863.636	20454
863.768	20602
863.9	20438
864.032	20457
864.164	20450
864.296	20434
864.428	20568
864.559	20507
864.691	20678
864.823	20518
864.954	20495
865.086	20438
865.217	20469
865.349	20336
865.48	20294
865.612	20434
865.743	20579
865.875	20377
866.006	20393
866.137	20412
866.269	20389
866.4	20343
866.531	20248
866.662	20267
866.793	20351
866.924	20362
867.055	20351
867.186	20366
867.317	20271
867.448	20111
867.579	20275
867.71	20210
867.841	20191
867.972	20320
868.103	20290
868.233	20294
868.364	20385
868.495	20385
868.625	20571
868.756	20632
868.886	20469
869.017	20632
869.147	20640
869.278	20674
869.408	20663
869.539	20503
869.669	20632
869.799	20545
869.929	20720
870.06	20720
870.19	20910
870.32	20823
870.45	21013
870.58	20990
870.71	21123
870.84	21112
870.97	20910
871.1	20986
871.23	21135
871.36	21192
871.489	21131
871.619	21154
871.749	21108
871.879	21291
872.008	21233
872.138	21176
872.267	21154
872.397	21055
872.526	20990
872.656	21039
872.785	20982
872.915	21173
873.044	21188
873.173	21203
873.303	21249
873.432	21256
873.561	21386
873.69	21207
873.819	21279
873.948	21268
874.077	21199
874.206	21169
874.335	21302
874.464	21287
874.593	21416
874.722	21313
874.851	21504
874.979	21462
875.108	21519
875.237	21466
875.365	21241
875.494	21283
875.623	21561
875.751	21325
875.88	21408
876.008	21500
876.136	21469
876.265	21739
876.393	21857
876.521	21903
876.65	21884
876.778	21781
876.906	21720
877.034	21736
877.162	21762
877.29	21720
877.418	21739
877.546	21869
877.674	21838
877.802	21854
877.93	21838
878.058	21880
878.185	21724
878.313	21778
878.441	21842
878.568	21561
878.696	21732
878.824	21789
878.951	21762
879.079	21819
879.206	21975
879.333	22002
879.461	21865
879.588	21941
879.715	21911
879.842	21998
879.97	21842
880.097	21652
880.224	21477
880.351	21648
880.478	21679
880.605	21431
880.732	21606
880.859	21797
880.986	21705
881.112	21629
881.239	21428
881.366	21386
881.493	21165
881.619	21169
881.746	21150
881.872	21070
881.999	21047
882.125	21058
882.252	21154
882.378	21062
882.505	21291
882.631	21085
882.757	20925
882.883	21001
883.01	20883
883.136	20796
883.262	20712
883.388	20613
883.514	20819
883.64	21043
883.766	20891
883.892	20617
884.018	20678
884.143	20807
884.269	20887
884.395	20689
884.52	20434
884.646	20579
884.772	20461
884.897	20461
885.023	20549
885.148	20560
885.274	20762
885.399	20644
885.524	20552
885.65	20473
885.775	20632
885.9	20454
886.025	20541
886.15	20651
886.275	20480
886.4	20499
886.525	20503
886.65	20461
886.775	20358
886.9	20651
887.025	20815
887.149	20537
887.274	20358
887.399	20294
887.523	20149
887.648	20324
887.773	20180
887.897	20412
888.021	20370
888.146	20164
888.27	20381
888.395	20415
888.519	20320
888.643	20210
888.767	20415
888.891	20176
889.015	20145
889.139	20233
889.263	20206
889.387	20202
889.511	20309
889.635	20271
889.759	20088
889.883	19925
890.006	20096
890.13	20199
890.254	19978
890.377	20050
890.501	19997
890.624	19898
890.748	20016
890.871	19753
890.995	19746
891.118	19582
891.241	19731
891.364	19658
891.488	19909
891.611	19841
891.734	19685
891.857	19776
891.98	19719
892.103	19731
892.226	19677
892.349	19795
892.471	19529
892.594	19537
892.717	19613
892.839	19590
892.962	19613
893.085	19616
893.207	19643
893.33	19472
893.452	19563
893.575	19704
893.697	19540
893.819	19807
893.941	19708
894.064	19700
894.186	19609
894.308	19662
894.43	19742
894.552	19677
894.674	19590
894.796	19396
894.918	19571
895.04	19575
895.161	19666
895.283	19685
895.405	19586
895.526	19635
895.648	19590
895.769	19567
895.891	19685
896.012	19651
896.134	19655
896.255	19696
896.376	19575
896.498	19616
896.619	19556
896.74	19601
896.861	19601
896.982	19928
897.103	20153
897.224	19894
897.345	19780
897.466	19795
897.587	19883
897.708	19925
897.828	19799
897.949	19715
898.07	19712
898.19	19738
898.311	19856
898.431	19723
898.552	19875
898.672	19925
898.792	19940
898.913	19811
899.033	19753
899.153	19647
899.273	19514
899.393	19556
899.513	19521
899.633	19575
899.753	19601
899.873	19491
899.993	19605
900.113	19464
900.232	19540
900.352	19510
900.472	19495
900.591	19217
900.711	19331
900.83	19407
900.95	19487
901.069	19403
901.189	19263
901.308	19069
901.427	18962
901.546	18901
901.665	19053
901.784	18985
901.904	18757
902.023	18639
902.141	18483
902.26	18490
902.379	18563
902.498	18578
902.617	18361
902.735	18460
902.854	18506
902.973	18403
903.091	18102
903.21	18235
903.328	18136
903.446	18087
903.565	18030
903.683	18011
903.801	17889
903.919	17916
904.038	17969
904.156	17638
904.274	17828
904.392	17771
904.51	17638
904.627	17775
904.745	17802
904.863	17874
904.981	17547
905.098	17395
905.216	17303
905.334	17532
905.451	17330
905.569	17490
905.686	17547
905.803	17360
905.921	17303
906.038	17353
906.155	17242
906.272	17143
906.389	17132
906.506	16980
906.623	16946
906.74	17033
906.857	16786
906.974	16862
907.091	17056
907.208	16972
907.324	17029
907.441	16824
907.557	16713
907.674	16843
907.79	16542
907.907	16744
908.023	16660
908.139	16710
908.256	16649
908.372	16584
908.488	16554
908.604	16504
908.72	16367
908.836	16276
908.952	16390
909.068	16447
909.184	16459
909.3	16409
909.415	16493
909.531	16371
909.647	16040
909.762	15964
909.878	16055
909.993	16150
910.108	16116
910.224	16059
910.339	16032
910.454	15975
910.57	15911
910.685	15895
910.8	16036
910.915	16032
911.03	15953
911.145	15701
911.259	15682
911.374	15728
911.489	15656
911.604	15599
911.718	15435
911.833	15454
911.947	15332
912.062	15321
912.176	15439
912.291	15424
912.405	15386
912.519	15656
912.633	15587
912.748	15393
912.862	15336
912.976	15272
913.09	15169
913.204	15237
913.318	15268
913.431	15370
913.545	15389
913.659	15351
913.772	15245
913.886	15024
914	15013
914.113	15100
914.226	15142
914.34	15093
914.453	14967
914.566	15051
914.68	15005
914.793	14910
914.906	14762
915.019	14800
915.132	14716
915.245	14739
915.358	14644
915.47	14701
915.583	14777
915.696	14762
915.809	14823
915.921	14842
916.034	14606
916.146	14644
916.259	14568
916.371	14705
916.483	14629
916.595	14537
916.708	14465
916.82	14598
916.932	14469
917.044	14522
917.156	14454
917.268	14381
917.38	14476
917.491	14313
917.603	14408
917.715	14442
917.826	14442
917.938	14282
918.049	14176
918.161	14377
918.272	14457
918.384	14511
918.495	14446
918.606	14183
918.717	14111
918.828	14069
918.939	14237
919.05	14103
919.161	14202
919.272	13864
919.383	14062
919.494	14107
919.604	14370
919.715	14115
919.826	14031
919.936	14145
920.047	14252
920.157	14005
920.267	14225
920.378	14149
920.488	14130
920.598	14248
920.708	14419
920.818	14256
920.928	14294
921.038	14431
921.148	14362
921.258	14077
921.368	13970
921.477	13887
921.587	13898
921.697	13769
921.806	13871
921.916	13811
922.025	13636
922.134	13514
922.244	13411
922.353	13495
922.462	13350
922.571	13343
922.68	13278
922.789	13206
922.898	13175
923.007	13129
923.116	13156
923.224	13183
923.333	13179
923.442	12981
923.55	13023
923.659	13008
923.767	13042
923.876	12935
923.984	13042
924.092	12890
924.201	12935
924.309	12909
924.417	12943
924.525	12852
924.633	12848
924.741	13788
924.849	12719
924.956	12795
925.064	12582
925.172	12544
925.279	12616
925.387	12551
925.494	12566
925.602	12749
925.709	12669
925.816	12490
925.924	12509
926.031	12703
926.138	12502
926.245	12627
926.352	12536
926.459	12658
926.566	12593
926.673	12471
926.779	12437
926.886	12334
926.993	12178
927.099	12213
927.206	12136
927.312	12144
927.419	12136
927.525	12155
927.631	12114
927.737	12015
927.843	11980
927.95	11870
928.056	12007
928.162	11973
928.267	12083
928.373	12696
928.479	12011
928.585	11828
928.69	11969
928.796	11942
928.901	11828
929.007	11688
929.112	11832
929.218	11722
929.323	11783
929.428	11672
929.533	11866
929.638	11642
929.743	11646
929.848	11756
929.953	11668
930.058	11539
930.163	11379
930.267	11471
930.372	11558
930.477	11376
930.581	11570
930.685	11356
930.79	11337
930.894	11334
930.998	11318
931.103	11474
931.207	11064
931.311	10984
931.415	10889
931.519	10744
931.623	10706
