Data from test_V78500241_1987.txt Node
Date: Fri Mar 25 15:23:41 CST 2022
User: usil
Spectrometer: V785-0024
Trigger mode: 0
Integration Time (sec): 4.000000E-1
Scans to average: 1
Nonlinearity correction enabled: false
Boxcar width: 0
Storing dark spectrum: false
XAxis mode: Wavelengths
Number of Pixels in Spectrum: 1024
>>>>>Begin Spectral Data<<<<<
801.071	27842
801.214	27800
801.356	27724
801.499	27450
801.641	27408
801.783	27447
801.926	27500
802.068	27443
802.211	27389
802.353	27264
802.496	27112
802.638	27074
802.78	27081
802.923	27131
803.065	27020
803.208	27017
803.35	26979
803.492	27127
803.635	27378
803.777	27100
803.919	27355
804.061	27599
804.204	27294
804.346	27192
804.488	27222
804.63	27291
804.773	27249
804.915	27264
805.057	27439
805.199	27214
805.341	27382
805.483	27424
805.626	27427
805.768	27233
805.91	27401
806.052	27477
806.194	27199
806.336	27564
806.478	27386
806.62	27378
806.762	27519
806.904	27705
807.046	27918
807.188	27812
807.33	27686
807.472	27926
807.614	27637
807.756	27652
807.898	27652
808.04	27660
808.182	27671
808.324	27595
808.465	27732
808.607	27907
808.749	27960
808.891	28204
809.033	28204
809.174	27975
809.316	28036
809.458	28109
809.6	27880
809.741	28082
809.883	28086
810.025	28428
810.166	28325
810.308	28314
810.45	28295
810.591	28158
810.733	27892
810.875	27907
811.016	27857
811.158	27838
811.299	27994
811.441	28074
811.582	28169
811.724	28166
811.865	27857
812.007	27934
812.148	28116
812.29	28093
812.431	28120
812.573	28325
812.714	28500
812.855	28584
812.997	28691
813.138	28809
813.279	28588
813.421	28615
813.562	28497
813.703	28325
813.845	28295
813.986	27838
814.127	27793
814.268	27717
814.41	27766
814.551	27705
814.692	27861
814.833	27675
814.974	27789
815.115	27728
815.256	27656
815.397	27515
815.539	27492
815.68	27473
815.821	27462
815.962	27599
816.103	27580
816.244	27336
816.385	27180
816.526	27131
816.666	27291
816.807	26857
816.948	27051
817.089	26960
817.23	27055
817.371	26971
817.512	26982
817.653	26967
817.793	26842
817.934	27013
818.075	27104
818.216	26838
818.356	26963
818.497	26910
818.638	26796
818.778	26750
818.919	26727
819.06	26826
819.2	26876
819.341	27062
819.481	26929
819.622	27085
819.762	27195
819.903	27317
820.043	27142
820.184	27222
820.324	27013
820.465	27146
820.605	26925
820.746	27009
820.886	27005
821.026	27093
821.167	27062
821.307	27104
821.447	27104
821.588	26899
821.728	26792
821.868	26598
822.008	26419
822.149	26320
822.289	26526
822.429	26081
822.569	26183
822.709	26134
822.849	26012
822.99	25906
823.13	25856
823.27	25978
823.41	25750
823.55	25624
823.69	25731
823.83	25811
823.97	25750
824.11	25578
824.25	25441
824.389	25582
824.529	25811
824.669	25677
824.809	25738
824.949	25590
825.089	25696
825.228	25635
825.368	25396
825.508	25518
825.648	25434
825.787	25495
825.927	25472
826.067	25514
826.206	25422
826.346	25365
826.485	25453
826.625	25430
826.765	25556
826.904	25506
827.044	25190
827.183	25232
827.323	25312
827.462	25301
827.601	25114
827.741	25091
827.88	25187
828.02	25046
828.159	25095
828.298	25213
828.437	25304
828.577	25095
828.716	25206
828.855	25099
828.994	24924
829.134	24886
829.273	24776
829.412	24867
829.551	24909
829.69	24973
829.829	24886
829.968	25053
830.107	25027
830.246	24935
830.385	24798
830.524	24833
830.663	24722
830.802	24665
830.941	24551
831.08	24627
831.219	24452
831.357	24711
831.496	24791
831.635	24566
831.774	24551
831.913	24414
832.051	24296
832.19	24323
832.329	24308
832.467	24239
832.606	24117
832.744	24121
832.883	24205
833.022	24155
833.16	24213
833.299	24338
833.437	24091
833.576	24304
833.714	24201
833.852	24273
833.991	24220
834.129	24224
834.267	24262
834.406	24429
834.544	24327
834.682	24159
834.821	24182
834.959	24327
835.097	24220
835.235	24296
835.373	24365
835.511	24182
835.65	24140
835.788	24117
835.926	24003
836.064	23908
836.202	23969
836.34	24083
836.478	24182
836.615	23984
836.753	24178
836.891	24152
837.029	24057
837.167	23969
837.305	24144
837.443	24053
837.58	23897
837.718	23969
837.856	23961
837.993	23996
838.131	23870
838.269	23855
838.406	23851
838.544	23649
838.681	23661
838.819	23646
838.956	23497
839.094	23372
839.231	23265
839.369	23585
839.506	23745
839.643	23722
839.781	23440
839.918	23372
840.055	23307
840.193	23231
840.33	23277
840.467	23223
840.604	23223
840.742	23421
840.879	23143
841.016	23174
841.153	23151
841.29	23334
841.427	23452
841.564	23334
841.701	23334
841.838	23227
841.975	23147
842.112	23147
842.249	23075
842.385	23117
842.522	23326
842.659	23109
842.796	23098
842.933	23075
843.069	22984
843.206	22968
843.343	23105
843.479	23098
843.616	23094
843.752	22919
843.889	22820
844.025	23025
844.162	22885
844.298	22835
844.435	22805
844.571	22831
844.708	22866
844.844	22984
844.98	22976
845.117	22866
845.253	22717
845.389	22774
845.525	22854
845.661	22752
845.798	22588
845.934	22485
846.07	22634
846.206	22588
846.342	22786
846.478	22523
846.614	22367
846.75	22249
846.886	22371
847.022	22432
847.158	22504
847.294	22322
847.429	22348
847.565	22272
847.701	22459
847.837	21979
847.972	21983
848.108	22101
848.244	22120
848.379	22006
848.515	21911
848.65	21869
848.786	21945
848.921	21899
849.057	21930
849.192	21964
849.328	21899
849.463	21922
849.598	21915
849.734	21915
849.869	21709
850.004	21743
850.14	21641
850.275	21759
850.41	21557
850.545	21614
850.68	21580
850.815	21614
850.95	21682
851.085	21831
851.22	21770
851.355	21663
851.49	21759
851.625	21599
851.76	21633
851.895	21679
852.03	21580
852.165	21660
852.299	21675
852.434	21778
852.569	21755
852.703	21819
852.838	21736
852.973	21720
853.107	21724
853.242	21701
853.376	21492
853.511	21351
853.645	21435
853.78	21561
853.914	21435
854.048	21424
854.183	21420
854.317	21507
854.451	21549
854.585	21553
854.72	21572
854.854	21587
854.988	21332
855.122	21519
855.256	21313
855.39	21412
855.524	21557
855.658	21564
855.792	21401
855.926	21458
856.06	21599
856.194	21557
856.327	21545
856.461	21458
856.595	21542
856.729	21481
856.862	21614
856.996	21583
857.13	21606
857.263	21492
857.397	21523
857.53	21534
857.664	21428
857.797	21618
857.931	21622
858.064	21576
858.197	21656
858.331	21321
858.464	21450
858.597	21428
858.731	21466
858.864	21511
858.997	21511
859.13	21374
859.263	21477
859.396	21637
859.529	21526
859.662	21530
859.795	21386
859.928	21663
860.061	21667
860.194	21709
860.327	21450
860.46	21435
860.592	21572
860.725	21606
860.858	21580
860.99	21420
861.123	21348
861.256	21374
861.388	21515
861.521	22078
861.653	21466
861.786	21355
861.918	21340
862.05	21378
862.183	21389
862.315	21359
862.447	21511
862.58	21374
862.712	21256
862.844	21070
862.976	21363
863.108	21237
863.24	21766
863.372	21039
863.504	21093
863.636	21192
863.768	21184
863.9	21275
864.032	21116
864.164	21131
864.296	21245
864.428	21336
864.559	21325
864.691	21249
864.823	21291
864.954	21176
865.086	21279
865.217	21192
865.349	20998
865.48	21165
865.612	21127
865.743	21184
865.875	21093
866.006	21093
866.137	21070
866.269	21058
866.4	21028
866.531	21047
866.662	21032
866.793	20952
866.924	20960
867.055	21028
867.186	21047
867.317	20994
867.448	20967
867.579	20941
867.71	20872
867.841	20921
867.972	20971
868.103	20994
868.233	20986
868.364	20979
868.495	21085
868.625	21268
868.756	21397
868.886	21157
869.017	21256
869.147	21386
869.278	21256
869.408	21188
869.539	21336
869.669	21367
869.799	21260
869.929	21389
870.06	21382
870.19	21599
870.32	21557
870.45	21682
870.58	21663
870.71	21641
870.84	21759
870.97	21610
871.1	21561
871.23	21766
871.36	21884
871.489	21736
871.619	21751
871.749	21876
871.879	21884
872.008	21934
872.138	21770
872.267	21869
872.397	21743
872.526	21675
872.656	21526
872.785	21663
872.915	21785
873.044	21975
873.173	21854
873.303	21972
873.432	21983
873.561	21869
873.69	21903
873.819	21857
873.948	21922
874.077	21842
874.206	21854
874.335	21831
874.464	22017
874.593	22177
874.722	21926
874.851	22162
874.979	22173
875.108	22158
875.237	22082
875.365	22002
875.494	22097
875.623	22150
875.751	22032
875.88	22154
876.008	22169
876.136	22257
876.265	22451
876.393	22615
876.521	22626
876.65	22527
876.778	22428
876.906	22466
877.034	22428
877.162	22489
877.29	22318
877.418	22504
877.546	22432
877.674	22432
877.802	22466
877.93	22325
878.058	22390
878.185	22451
878.313	22440
878.441	22440
878.568	22226
878.696	22398
878.824	22382
878.951	22356
879.079	22691
879.206	22862
879.333	22641
879.461	22508
879.588	22546
879.715	22554
879.842	22771
879.97	22500
880.097	22268
880.224	22276
880.351	22196
880.478	22325
880.605	22150
880.732	22169
880.859	22485
880.986	22253
881.112	22325
881.239	22128
881.366	21960
881.493	21972
881.619	21895
881.746	21808
881.872	21823
881.999	21930
882.125	21865
882.252	21926
882.378	21873
882.505	21907
882.631	21709
882.757	21644
882.883	21644
883.01	21496
883.136	21507
883.262	21428
883.388	21302
883.514	21534
883.64	21663
883.766	21325
883.892	21283
884.018	21412
884.143	21485
884.269	21538
884.395	21195
884.52	21100
884.646	21214
884.772	21047
884.897	21116
885.023	21329
885.148	21329
885.274	21336
885.399	21321
885.524	21066
885.65	21230
885.775	21203
885.9	21116
886.025	21192
886.15	21230
886.275	21150
886.4	21070
886.525	21112
886.65	21074
886.775	21188
886.9	21317
887.025	21325
887.149	21195
887.274	20883
887.399	21036
887.523	20906
887.648	20902
887.773	20819
887.897	21017
888.021	20956
888.146	20944
888.27	20933
888.395	21085
888.519	20899
888.643	20937
888.767	20975
888.891	20811
889.015	20804
889.139	20845
889.263	20731
889.387	20842
889.511	20902
889.635	20952
889.759	20800
889.883	20720
890.006	20754
890.13	20769
890.254	20636
890.377	20602
890.501	20476
890.624	20480
890.748	20514
890.871	20374
890.995	20282
891.118	20320
891.241	20362
891.364	20374
891.488	20362
891.611	20374
891.734	20366
891.857	20240
891.98	20286
892.103	20328
892.226	20415
892.349	20275
892.471	20115
892.594	20172
892.717	20237
892.839	20233
892.962	20328
893.085	20298
893.207	20164
893.33	20240
893.452	20077
893.575	20370
893.697	20210
893.819	20514
893.941	20381
894.064	20377
894.186	20164
894.308	20176
894.43	20248
894.552	20339
894.674	20454
894.796	20142
894.918	20149
895.04	20187
895.161	20324
895.283	20180
895.405	20077
895.526	20237
895.648	20183
895.769	20202
895.891	20210
896.012	20210
896.134	20233
896.255	20191
896.376	20005
896.498	20183
896.619	20286
896.74	20092
896.861	20191
896.982	20488
897.103	20731
897.224	20473
897.345	20514
897.466	20286
897.587	20381
897.708	20579
897.828	20507
897.949	20294
898.07	20275
898.19	20313
898.311	20412
898.431	20377
898.552	20301
898.672	20408
898.792	20442
898.913	20526
899.033	20309
899.153	20172
899.273	20161
899.393	20157
899.513	20233
899.633	20122
899.753	20210
899.873	20039
899.993	20195
900.113	20024
900.232	20149
900.352	19932
900.472	20103
900.591	19906
900.711	19993
900.83	19894
900.95	19917
901.069	20035
901.189	19830
901.308	19582
901.427	19544
901.546	19499
901.665	19616
901.784	19396
901.904	19373
902.023	19327
902.141	19160
902.26	19038
902.379	19023
902.498	19031
902.617	19000
902.735	19072
902.854	19019
902.973	18981
903.091	18646
903.21	18760
903.328	18608
903.446	18642
903.565	18490
903.683	18589
903.801	18388
903.919	18494
904.038	18380
904.156	18266
904.274	18422
904.392	18285
904.51	18273
904.627	18289
904.745	18327
904.863	18220
904.981	18003
905.098	18015
905.216	18003
905.334	18011
905.451	18015
905.569	17874
905.686	18072
905.803	17847
905.921	17729
906.038	17828
906.155	17878
906.272	17638
906.389	17627
906.506	17554
906.623	17566
906.74	17463
906.857	17455
906.974	17436
907.091	17493
907.208	17562
907.324	17512
907.441	17334
907.557	17185
907.674	17170
907.79	17204
907.907	17231
908.023	17162
908.139	17254
908.256	17155
908.372	17155
908.488	17094
908.604	16980
908.72	16843
908.836	16953
908.952	16915
909.068	16930
909.184	17006
909.3	16900
909.415	16866
909.531	16885
909.647	16599
909.762	16569
909.878	16569
909.993	16660
910.108	16538
910.224	16573
910.339	16535
910.454	16508
910.57	16314
910.685	16443
910.8	16687
910.915	16497
911.03	16413
911.145	16173
911.259	16207
911.374	16242
911.489	16074
911.604	16109
911.718	16078
911.833	16017
911.947	15861
912.062	15698
912.176	15903
912.291	15941
912.405	15918
912.519	16147
912.633	16154
912.748	15937
912.862	15895
912.976	15880
913.09	15637
913.204	15644
913.318	15732
913.431	15808
913.545	15873
913.659	15835
913.772	15671
913.886	15599
914	15553
914.113	15679
914.226	15625
914.34	15606
914.453	15439
914.566	15660
914.68	15511
914.793	15439
914.906	15283
915.019	15245
915.132	15047
915.245	15108
915.358	15138
915.47	15222
915.583	15165
915.696	15207
915.809	15222
915.921	15344
916.034	15108
916.146	15085
916.259	15104
916.371	15070
916.483	15074
916.595	14891
916.708	14998
916.82	15043
916.932	14990
917.044	14960
917.156	14891
917.268	14876
917.38	14823
917.491	14899
917.603	14686
917.715	14883
917.826	14800
917.938	14842
918.049	14735
918.161	14830
918.272	14902
918.384	14948
918.495	14716
918.606	14682
918.717	14545
918.828	14678
918.939	14693
919.05	14499
919.161	14560
919.272	14393
919.383	14355
919.494	14629
919.604	14735
919.715	14602
919.826	14511
919.936	14522
920.047	14549
920.157	14571
920.267	14705
920.378	14499
920.488	14476
920.598	14815
920.708	14845
920.818	14769
920.928	14674
921.038	14864
921.148	14857
921.258	14404
921.368	14385
921.477	14320
921.587	14309
921.697	14062
921.806	14218
921.916	14126
922.025	14008
922.134	13925
922.244	13883
922.353	13917
922.462	13765
922.571	13731
922.68	13662
922.789	13594
922.898	13643
923.007	13453
923.116	13552
923.224	13506
923.333	13521
923.442	13377
923.55	13388
923.659	13407
923.767	13468
923.876	13377
923.984	13365
924.092	13247
924.201	13274
924.309	13373
924.417	13285
924.525	13232
924.633	13232
924.741	14008
924.849	13065
924.956	13099
925.064	13000
925.172	12894
925.279	12943
925.387	13076
925.494	12970
925.602	13114
925.709	13012
925.816	12882
925.924	12954
926.031	13004
926.138	12939
926.245	13000
926.352	12867
926.459	12970
926.566	12996
926.673	12848
926.779	12814
926.886	12745
926.993	12665
927.099	12555
927.206	12570
927.312	12517
927.419	12658
927.525	12528
927.631	12490
927.737	12517
927.843	12483
927.95	12323
928.056	12391
928.162	12437
928.267	12403
928.373	13038
928.479	12479
928.585	12175
928.69	12273
928.796	12418
928.901	12330
929.007	12087
929.112	12323
929.218	12232
929.323	12186
929.428	12171
929.533	12205
929.638	11973
929.743	12057
929.848	12072
929.953	12106
930.058	11973
930.163	11779
930.267	11832
930.372	11942
930.477	11828
930.581	11973
930.685	11832
930.79	11760
930.894	11771
930.998	11589
931.103	11764
931.207	11478
931.311	11372
931.415	11288
931.519	11102
931.623	11071
