Data from test_V78500241_1706.txt Node
Date: Fri Mar 25 15:21:44 CST 2022
User: usil
Spectrometer: V785-0024
Trigger mode: 0
Integration Time (sec): 4.000000E-1
Scans to average: 1
Nonlinearity correction enabled: false
Boxcar width: 0
Storing dark spectrum: false
XAxis mode: Wavelengths
Number of Pixels in Spectrum: 1024
>>>>>Begin Spectral Data<<<<<
801.071	27526
801.214	27530
801.356	27389
801.499	27272
801.641	27192
801.783	26967
801.926	27142
802.068	27047
802.211	27070
802.353	27005
802.496	26933
802.638	26769
802.78	26815
802.923	26777
803.065	26693
803.208	26655
803.35	26845
803.492	26857
803.635	26956
803.777	26963
803.919	27001
804.061	27188
804.204	27009
804.346	26960
804.488	26925
804.63	27005
804.773	26830
804.915	27024
805.057	27108
805.199	26952
805.341	26971
805.483	27176
805.626	27146
805.768	27093
805.91	27195
806.052	27184
806.194	27077
806.336	27260
806.478	27233
806.62	27138
806.762	27165
806.904	27359
807.046	27595
807.188	27530
807.33	27614
807.472	27568
807.614	27359
807.756	27576
807.898	27386
808.04	27355
808.182	27340
808.324	27203
808.465	27439
808.607	27637
808.749	27732
808.891	27835
809.033	27854
809.174	27720
809.316	27797
809.458	27701
809.6	27717
809.741	27846
809.883	27888
810.025	28040
810.166	28185
810.308	27941
810.45	27907
810.591	27892
810.733	27603
810.875	27591
811.016	27644
811.158	27557
811.299	27808
811.441	27968
811.582	27914
811.724	27804
811.865	27793
812.007	27682
812.148	27724
812.29	27675
812.431	27869
812.573	28101
812.714	28067
812.855	28322
812.997	28242
813.138	28382
813.279	28337
813.421	28192
813.562	28215
813.703	28067
813.845	27937
813.986	27755
814.127	27526
814.268	27450
814.41	27431
814.551	27416
814.692	27321
814.833	27439
814.974	27363
815.115	27511
815.256	27218
815.397	27374
815.539	27310
815.68	27180
815.821	27036
815.962	27317
816.103	27096
816.244	27066
816.385	26952
816.526	26933
816.666	26773
816.807	26686
816.948	26800
817.089	26819
817.23	26777
817.371	26587
817.512	26716
817.653	26670
817.793	26564
817.934	26712
818.075	26693
818.216	26735
818.356	26511
818.497	26617
818.638	26305
818.778	26495
818.919	26412
819.06	26571
819.2	26537
819.341	26663
819.481	26708
819.622	26785
819.762	26971
819.903	26952
820.043	26956
820.184	26838
820.324	26777
820.465	26895
820.605	26887
820.746	26777
820.886	26819
821.026	26743
821.167	26629
821.307	26876
821.447	26724
821.588	26602
821.728	26537
821.868	26138
822.008	26244
822.149	26111
822.289	26122
822.429	25944
822.569	25738
822.709	25795
822.849	25814
822.99	25658
823.13	25533
823.27	25651
823.41	25586
823.55	25312
823.69	25559
823.83	25563
823.97	25346
824.11	25225
824.25	25202
824.389	25365
824.529	25369
824.669	25187
824.809	25521
824.949	25335
825.089	25335
825.228	25343
825.368	25156
825.508	25175
825.648	25202
825.787	25107
825.927	25259
826.067	25152
826.206	25084
826.346	25213
826.485	25122
826.625	25190
826.765	25308
826.904	25023
827.044	24973
827.183	24913
827.323	24932
827.462	24962
827.601	25023
827.741	24875
827.88	24958
828.02	24741
828.159	24859
828.298	24882
828.437	24924
828.577	24894
828.716	24989
828.855	24734
828.994	24703
829.134	24608
829.273	24604
829.412	24559
829.551	24460
829.69	24631
829.829	24684
829.968	24677
830.107	24597
830.246	24669
830.385	24642
830.524	24372
830.663	24395
830.802	24251
830.941	24159
831.08	24167
831.219	24300
831.357	24152
831.496	24551
831.635	24247
831.774	24060
831.913	24068
832.051	23969
832.19	24041
832.329	24034
832.467	23828
832.606	23828
832.744	23840
832.883	23901
833.022	23760
833.16	23832
833.299	23843
833.437	23855
833.576	23950
833.714	23916
833.852	23961
833.991	23954
834.129	24018
834.267	24011
834.406	24102
834.544	23992
834.682	23920
834.821	23996
834.959	23927
835.097	23779
835.235	24098
835.373	24060
835.511	23916
835.65	23828
835.788	23824
835.926	23668
836.064	23615
836.202	23653
836.34	23771
836.478	23802
836.615	23699
836.753	23752
836.891	23885
837.029	23882
837.167	23680
837.305	23714
837.443	23627
837.58	23786
837.718	23695
837.856	23657
837.993	23634
838.131	23630
838.269	23410
838.406	23596
838.544	23402
838.681	23364
838.819	23269
838.956	23170
839.094	23117
839.231	23151
839.369	23235
839.506	23459
839.643	23337
839.781	23174
839.918	23071
840.055	23056
840.193	23079
840.33	22930
840.467	23094
840.604	23010
840.742	23280
840.879	22911
841.016	22942
841.153	22828
841.29	23181
841.427	23018
841.564	23003
841.701	22927
841.838	22938
841.975	22812
842.112	22820
842.249	22801
842.385	22793
842.522	22904
842.659	22904
842.796	22752
842.933	22801
843.069	22771
843.206	22767
843.343	22755
843.479	22653
843.616	22713
843.752	22599
843.889	22557
844.025	22752
844.162	22615
844.298	22611
844.435	22580
844.571	22519
844.708	22519
844.844	22771
844.98	22672
845.117	22561
845.253	22417
845.389	22466
845.525	22527
845.661	22329
845.798	22230
845.934	22352
846.07	22253
846.206	22310
846.342	22413
846.478	22253
846.614	22086
846.75	22051
846.886	22036
847.022	22128
847.158	22154
847.294	22067
847.429	22139
847.565	21964
847.701	22166
847.837	21808
847.972	21743
848.108	21800
848.244	21873
848.379	21854
848.515	21561
848.65	21542
848.786	21515
848.921	21641
849.057	21819
849.192	21694
849.328	21595
849.463	21743
849.598	21538
849.734	21496
849.869	21644
850.004	21439
850.14	21351
850.275	21359
850.41	21420
850.545	21378
850.68	21340
850.815	21294
850.95	21393
851.085	21534
851.22	21473
851.355	21389
851.49	21336
851.625	21389
851.76	21275
851.895	21378
852.03	21169
852.165	21420
852.299	21367
852.434	21416
852.569	21447
852.703	21355
852.838	21405
852.973	21443
853.107	21576
853.242	21260
853.376	21195
853.511	21123
853.645	21161
853.78	21332
853.914	21203
854.048	21157
854.183	21127
854.317	21161
854.451	21416
854.585	21146
854.72	21203
854.854	21260
854.988	21138
855.122	21055
855.256	21142
855.39	21154
855.524	21199
855.658	21279
855.792	21272
855.926	21275
856.06	21226
856.194	21275
856.327	21291
856.461	21169
856.595	21218
856.729	21188
856.862	21332
856.996	21310
857.13	21245
857.263	21340
857.397	21264
857.53	21291
857.664	21165
857.797	21218
857.931	21310
858.064	21272
858.197	21218
858.331	21268
858.464	21096
858.597	20990
858.731	21116
858.864	21237
858.997	21173
859.13	21279
859.263	21154
859.396	21287
859.529	21131
859.662	21214
859.795	21135
859.928	21165
860.061	21355
860.194	21458
860.327	21275
860.46	21138
860.592	21367
860.725	21275
860.858	21325
860.99	21291
861.123	20986
861.256	21047
861.388	21169
861.521	21884
861.653	21036
861.786	20994
861.918	21116
862.05	21066
862.183	21142
862.315	21131
862.447	21138
862.58	21036
862.712	20921
862.844	20853
862.976	21036
863.108	20941
863.24	21226
863.372	20792
863.504	20857
863.636	20910
863.768	20929
863.9	20864
864.032	20845
864.164	20868
864.296	20929
864.428	21062
864.559	21058
864.691	21020
864.823	20906
864.954	20876
865.086	20864
865.217	20933
865.349	20716
865.48	20785
865.612	20880
865.743	20921
865.875	20921
866.006	20785
866.137	20773
866.269	20758
866.4	20708
866.531	20853
866.662	20727
866.793	20693
866.924	20777
867.055	20788
867.186	20762
867.317	20705
867.448	20792
867.579	20777
867.71	20693
867.841	20670
867.972	20746
868.103	20731
868.233	20830
868.364	20758
868.495	20781
868.625	21013
868.756	21077
868.886	20975
869.017	20979
869.147	21127
869.278	21032
869.408	20979
869.539	20982
869.669	20960
869.799	21024
869.929	21116
870.06	21051
870.19	21359
870.32	21313
870.45	21268
870.58	21355
870.71	21515
870.84	21504
870.97	21302
871.1	21279
871.23	21561
871.36	21705
871.489	21515
871.619	21561
871.749	21511
871.879	21610
872.008	21694
872.138	21583
872.267	21587
872.397	21485
872.526	21515
872.656	21466
872.785	21473
872.915	21553
873.044	21679
873.173	21435
873.303	21789
873.432	21736
873.561	21694
873.69	21641
873.819	21576
873.948	21557
874.077	21576
874.206	21492
874.335	21641
874.464	21720
874.593	21766
874.722	21789
874.851	21876
874.979	21812
875.108	21838
875.237	21770
875.365	21812
875.494	21751
875.623	21937
875.751	21762
875.88	21876
876.008	21873
876.136	21964
876.265	22131
876.393	22306
876.521	22318
876.65	22363
876.778	22177
876.906	22147
877.034	22253
877.162	22242
877.29	22211
877.418	22188
877.546	22120
877.674	22162
877.802	22207
877.93	22086
878.058	22078
878.185	22082
878.313	22013
878.441	22147
878.568	22040
878.696	22002
878.824	22177
878.951	22196
879.079	22287
879.206	22379
879.333	22443
879.461	22101
879.588	22181
879.715	22402
879.842	22466
879.97	22207
880.097	22010
880.224	22070
880.351	21994
880.478	22025
880.605	22044
880.732	21949
880.859	22287
880.986	22040
881.112	22048
881.239	21857
881.366	21800
881.493	21526
881.619	21682
881.746	21778
881.872	21679
881.999	21496
882.125	21469
882.252	21770
882.378	21378
882.505	21671
882.631	21504
882.757	21363
882.883	21340
883.01	21367
883.136	21252
883.262	21100
883.388	21165
883.514	21264
883.64	21348
883.766	21222
883.892	20998
884.018	21062
884.143	21264
884.269	21397
884.395	21032
884.52	20921
884.646	21009
884.772	20872
884.897	20773
885.023	20872
885.148	20971
885.274	21028
885.399	20979
885.524	20891
885.65	20899
885.775	20960
885.9	20929
886.025	20982
886.15	20967
886.275	20872
886.4	20804
886.525	20963
886.65	20834
886.775	20830
886.9	20956
887.025	21089
887.149	20906
887.274	20682
887.399	20785
887.523	20689
887.648	20667
887.773	20549
887.897	20819
888.021	20792
888.146	20450
888.27	20796
888.395	20705
888.519	20716
888.643	20667
888.767	20750
888.891	20533
889.015	20594
889.139	20450
889.263	20457
889.387	20533
889.511	20663
889.635	20583
889.759	20343
889.883	20343
890.006	20480
890.13	20575
890.254	20396
890.377	20442
890.501	20210
890.624	20275
890.748	20355
890.871	20206
890.995	20088
891.118	19978
891.241	20107
891.364	20096
891.488	20195
891.611	20081
891.734	20073
891.857	20115
891.98	20100
892.103	20050
892.226	20081
892.349	20012
892.471	19875
892.594	19879
892.717	20008
892.839	19830
892.962	19978
893.085	20073
893.207	20016
893.33	19833
893.452	19761
893.575	19963
893.697	20016
893.819	20088
893.941	20062
894.064	20126
894.186	19913
894.308	19791
894.43	20016
894.552	20100
894.674	20084
894.796	19814
894.918	19909
895.04	20020
895.161	19986
895.283	20024
895.405	19913
895.526	19959
895.648	19902
895.769	19997
895.891	19944
896.012	20043
896.134	20073
896.255	19963
896.376	19978
896.498	19970
896.619	20005
896.74	19917
896.861	19997
896.982	20320
897.103	20503
897.224	20187
897.345	20252
897.466	20096
897.587	20142
897.708	20286
897.828	20187
897.949	20157
898.07	19997
898.19	20092
898.311	20237
898.431	20142
898.552	20218
898.672	20267
898.792	20240
898.913	20176
899.033	20115
899.153	20134
899.273	19814
899.393	19856
899.513	20065
899.633	19898
899.753	19955
899.873	19894
899.993	19974
900.113	19974
900.232	19841
900.352	19826
900.472	19753
900.591	19746
900.711	19788
900.83	19689
900.95	19811
901.069	19719
901.189	19468
901.308	19388
901.427	19308
901.546	19350
901.665	19293
901.784	19293
901.904	19187
902.023	19099
902.141	18905
902.26	18783
902.379	18958
902.498	18772
902.617	18760
902.735	18757
902.854	18821
902.973	18692
903.091	18536
903.21	18547
903.328	18604
903.446	18410
903.565	18285
903.683	18266
903.801	18114
903.919	18296
904.038	18243
904.156	18098
904.274	18076
904.392	18072
904.51	18049
904.627	17973
904.745	18068
904.863	18030
904.981	17847
905.098	17714
905.216	17703
905.334	17802
905.451	17691
905.569	17779
905.686	17756
905.803	17733
905.921	17532
906.038	17691
906.155	17509
906.272	17505
906.389	17493
906.506	17391
906.623	17208
906.74	17303
906.857	17151
906.974	17197
907.091	17311
907.208	17539
907.324	17337
907.441	17147
907.557	17132
907.674	16995
907.79	16889
907.907	16995
908.023	16995
908.139	17025
908.256	16885
908.372	16869
908.488	16847
908.604	16828
908.72	16710
908.836	16778
908.952	16596
909.068	16710
909.184	16759
909.3	16603
909.415	16649
909.531	16702
909.647	16417
909.762	16462
909.878	16428
909.993	16432
910.108	16348
910.224	16413
910.339	16314
910.454	16287
910.57	16226
910.685	16185
910.8	16443
910.915	16341
911.03	16249
911.145	15998
911.259	16025
911.374	15991
911.489	15956
911.604	15892
911.718	15732
911.833	15812
911.947	15641
912.062	15549
912.176	15701
912.291	15705
912.405	15690
912.519	15937
912.633	15831
912.748	15781
912.862	15770
912.976	15553
913.09	15473
913.204	15515
913.318	15534
913.431	15656
913.545	15671
913.659	15614
913.772	15576
913.886	15313
914	15321
914.113	15504
914.226	15469
914.34	15584
914.453	15192
914.566	15393
914.68	15226
914.793	15268
914.906	15024
915.019	15097
915.132	14868
915.245	14967
915.358	15089
915.47	15047
915.583	15009
915.696	15062
915.809	15070
915.921	15066
916.034	14967
916.146	14906
916.259	14826
916.371	15043
916.483	15013
916.595	14804
916.708	14895
916.82	14891
916.932	14815
917.044	14796
917.156	14724
917.268	14693
917.38	14610
917.491	14621
917.603	14651
917.715	14777
917.826	14731
917.938	14530
918.049	14454
918.161	14545
918.272	14754
918.384	14712
918.495	14564
918.606	14492
918.717	14336
918.828	14503
918.939	14514
919.05	14355
919.161	14446
919.272	14138
919.383	14294
919.494	14476
919.604	14564
919.715	14336
919.826	14278
919.936	14358
920.047	14396
920.157	14492
920.267	14511
920.378	14351
920.488	14278
920.598	14465
920.708	14667
920.818	14549
920.928	14564
921.038	14625
921.148	14640
921.258	14362
921.368	14271
921.477	14111
921.587	14161
921.697	14054
921.806	14046
921.916	13970
922.025	13845
922.134	13738
922.244	13742
922.353	13719
922.462	13605
922.571	13449
922.68	13441
922.789	13449
922.898	13476
923.007	13384
923.116	13449
923.224	13339
923.333	13362
923.442	13209
923.55	13263
923.659	13236
923.767	13259
923.876	13236
923.984	13358
924.092	13217
924.201	13194
924.309	13107
924.417	13164
924.525	13118
924.633	13133
924.741	13795
924.849	12897
924.956	13004
925.064	12954
925.172	12768
925.279	12738
925.387	12787
925.494	12833
925.602	12890
925.709	12795
925.816	12639
925.924	12753
926.031	12875
926.138	12825
926.245	12806
926.352	12696
926.459	12802
926.566	12825
926.673	12730
926.779	12559
926.886	12623
926.993	12327
927.099	12399
927.206	12448
927.312	12292
927.419	12513
927.525	12414
927.631	12460
927.737	12357
927.843	12232
927.95	12102
928.056	12152
928.162	12228
928.267	12311
928.373	12787
928.479	12205
928.585	11988
928.69	12224
928.796	12197
928.901	12041
929.007	11946
929.112	12121
929.218	12129
929.323	11923
929.428	11859
929.533	12072
929.638	11923
929.743	11885
929.848	11931
929.953	11882
930.058	11832
930.163	11600
930.267	11726
930.372	11847
930.477	11615
930.581	11821
930.685	11767
930.79	11589
930.894	11459
930.998	11543
931.103	11642
931.207	11273
931.311	11212
931.415	11162
931.519	10900
931.623	10854
