Data from test_V78500241_2473.txt Node
Date: Fri Mar 25 15:27:04 CST 2022
User: usil
Spectrometer: V785-0024
Trigger mode: 0
Integration Time (sec): 4.000000E-1
Scans to average: 1
Nonlinearity correction enabled: false
Boxcar width: 0
Storing dark spectrum: false
XAxis mode: Wavelengths
Number of Pixels in Spectrum: 1024
>>>>>Begin Spectral Data<<<<<
801.071	27051
801.214	27135
801.356	26880
801.499	26773
801.641	26708
801.783	26629
801.926	26724
802.068	26629
802.211	26579
802.353	26450
802.496	26427
802.638	26431
802.78	26164
802.923	26122
803.065	26206
803.208	26191
803.35	26298
803.492	26309
803.635	26556
803.777	26301
803.919	26408
804.061	26720
804.204	26389
804.346	26415
804.488	26419
804.63	26476
804.773	26320
804.915	26389
805.057	26423
805.199	26377
805.341	26537
805.483	26511
805.626	26473
805.768	26514
805.91	26602
806.052	26667
806.194	26473
806.336	26655
806.478	26442
806.62	26629
806.762	26762
806.904	26788
807.046	27146
807.188	26967
807.33	27017
807.472	26982
807.614	26811
807.756	26861
807.898	26876
808.04	26754
808.182	26727
808.324	26739
808.465	26937
808.607	27043
808.749	27093
808.891	27230
809.033	27245
809.174	27192
809.316	27108
809.458	27089
809.6	27142
809.741	27279
809.883	27294
810.025	27500
810.166	27458
810.308	27542
810.45	27302
810.591	27420
810.733	27180
810.875	27218
811.016	27100
811.158	27051
811.299	27408
811.441	27420
811.582	27401
811.724	27100
811.865	27062
812.007	27020
812.148	27036
812.29	27116
812.431	27287
812.573	27530
812.714	27435
812.855	27682
812.997	27762
813.138	27880
813.279	27755
813.421	27652
813.562	27557
813.703	27488
813.845	27245
813.986	27119
814.127	26998
814.268	26796
814.41	26785
814.551	26758
814.692	26956
814.833	26918
814.974	26739
815.115	26674
815.256	26708
815.397	26655
815.539	26530
815.68	26648
815.821	26495
815.962	26511
816.103	26632
816.244	26381
816.385	26396
816.526	26320
816.666	26225
816.807	26054
816.948	26111
817.089	26161
817.23	26043
817.371	25963
817.512	25928
817.653	26031
817.793	25868
817.934	26069
818.075	25951
818.216	26020
818.356	26050
818.497	25902
818.638	25761
818.778	25784
818.919	25822
819.06	25894
819.2	25947
819.341	26054
819.481	26012
819.622	26157
819.762	26347
819.903	26328
820.043	26271
820.184	26259
820.324	26039
820.465	26180
820.605	26084
820.746	26100
820.886	26073
821.026	26180
821.167	26062
821.307	26122
821.447	25921
821.588	26012
821.728	25712
821.868	25662
822.008	25510
822.149	25491
822.289	25434
822.429	25274
822.569	25156
822.709	25114
822.849	24966
822.99	25034
823.13	24897
823.27	24996
823.41	24886
823.55	24677
823.69	24844
823.83	24783
823.97	24852
824.11	24665
824.25	24479
824.389	24559
824.529	24700
824.669	24688
824.809	24795
824.949	24882
825.089	24806
825.228	24722
825.368	24536
825.508	24429
825.648	24540
825.787	24555
825.927	24631
826.067	24566
826.206	24448
826.346	24578
826.485	24623
826.625	24559
826.765	24616
826.904	24471
827.044	24243
827.183	24281
827.323	24140
827.462	24369
827.601	24224
827.741	24270
827.88	24235
828.02	24102
828.159	24220
828.298	24216
828.437	24376
828.577	24159
828.716	24201
828.855	24060
828.994	23908
829.134	23916
829.273	24034
829.412	23897
829.551	23817
829.69	24057
829.829	23931
829.968	23920
830.107	23950
830.246	23939
830.385	23942
830.524	23752
830.663	23756
830.802	23665
830.941	23516
831.08	23562
831.219	23581
831.357	23604
831.496	23809
831.635	23425
831.774	23509
831.913	23535
832.051	23315
832.19	23326
832.329	23330
832.467	23204
832.606	23280
832.744	23147
832.883	23318
833.022	23083
833.16	23128
833.299	23277
833.437	23223
833.576	23376
833.714	23337
833.852	23254
833.991	23208
834.129	23391
834.267	23425
834.406	23265
834.544	23337
834.682	23189
834.821	23315
834.959	23467
835.097	23136
835.235	23296
835.373	23288
835.511	23239
835.65	23212
835.788	23121
835.926	23041
836.064	22991
836.202	22961
836.34	22938
836.478	23311
836.615	23060
836.753	23216
836.891	23208
837.029	23113
837.167	23014
837.305	23086
837.443	23105
837.58	23124
837.718	23010
837.856	23003
837.993	23003
838.131	22953
838.269	22797
838.406	22946
838.544	22839
838.681	22702
838.819	22672
838.956	22485
839.094	22440
839.231	22561
839.369	22554
839.506	22786
839.643	22687
839.781	22485
839.918	22413
840.055	22618
840.193	22409
840.33	22409
840.467	22424
840.604	22531
840.742	22721
840.879	22341
841.016	22325
841.153	22272
841.29	22341
841.427	22341
841.564	22421
841.701	22405
841.838	22375
841.975	22322
842.112	22421
842.249	22371
842.385	22192
842.522	22603
842.659	22348
842.796	22143
842.933	22196
843.069	22116
843.206	22013
843.343	22314
843.479	22265
843.616	22192
843.752	21915
843.889	22010
844.025	21945
844.162	21922
844.298	22173
844.435	21930
844.571	21835
844.708	22036
844.844	22059
844.98	22063
845.117	21994
845.253	21991
845.389	21747
845.525	21869
845.661	21751
845.798	21713
845.934	21732
846.07	21568
846.206	21606
846.342	21812
846.478	21660
846.614	21481
846.75	21454
846.886	21382
847.022	21492
847.158	21386
847.294	21504
847.429	21492
847.565	21496
847.701	21614
847.837	21199
847.972	21043
848.108	21184
848.244	21169
848.379	21070
848.515	20990
848.65	20910
848.786	20963
848.921	21036
849.057	21055
849.192	21013
849.328	21051
849.463	21009
849.598	20872
849.734	20800
849.869	20796
850.004	20750
850.14	20826
850.275	20880
850.41	20708
850.545	20765
850.68	20868
850.815	20826
850.95	20781
851.085	20944
851.22	20921
851.355	20651
851.49	20762
851.625	20651
851.76	20689
851.895	20724
852.03	20670
852.165	20788
852.299	20815
852.434	20826
852.569	20804
852.703	20727
852.838	20796
852.973	20952
853.107	20842
853.242	20731
853.376	20590
853.511	20450
853.645	20537
853.78	20724
853.914	20530
854.048	20564
854.183	20499
854.317	20473
854.451	20853
854.585	20530
854.72	20571
854.854	20617
854.988	20533
855.122	20476
855.256	20415
855.39	20602
855.524	20648
855.658	20648
855.792	20682
855.926	20655
856.06	20556
856.194	20682
856.327	20560
856.461	20617
856.595	20571
856.729	20583
856.862	20735
856.996	20648
857.13	20549
857.263	20716
857.397	20693
857.53	20587
857.664	20609
857.797	20731
857.931	20659
858.064	20598
858.197	20804
858.331	20583
858.464	20492
858.597	20450
858.731	20629
858.864	20552
858.997	20541
859.13	20571
859.263	20552
859.396	20689
859.529	20587
859.662	20594
859.795	20556
859.928	20564
860.061	20743
860.194	20785
860.327	20648
860.46	20625
860.592	20693
860.725	20735
860.858	20815
860.99	20522
861.123	20499
861.256	20522
861.388	20568
861.521	21058
861.653	20461
861.786	20309
861.918	20450
862.05	20583
862.183	20488
862.315	20621
862.447	20625
862.58	20568
862.712	20355
862.844	20332
862.976	20381
863.108	20530
863.24	20872
863.372	20214
863.504	20328
863.636	20298
863.768	20294
863.9	20214
864.032	20263
864.164	20320
864.296	20396
864.428	20408
864.559	20404
864.691	20332
864.823	20221
864.954	20366
865.086	20282
865.217	20256
865.349	20168
865.48	20225
865.612	20134
865.743	20381
865.875	20225
866.006	20221
866.137	20161
866.269	20233
866.4	20252
866.531	20206
866.662	20157
866.793	20183
866.924	20240
867.055	20043
867.186	20298
867.317	20153
867.448	20050
867.579	20248
867.71	20168
867.841	20058
867.972	20164
868.103	20077
868.233	20286
868.364	20043
868.495	20229
868.625	20385
868.756	20473
868.886	20431
869.017	20309
869.147	20545
869.278	20484
869.408	20389
869.539	20256
869.669	20488
869.799	20385
869.929	20583
870.06	20511
870.19	20743
870.32	20583
870.45	20659
870.58	20853
870.71	20811
870.84	20845
870.97	20769
871.1	20727
871.23	21104
871.36	21024
871.489	20971
871.619	20948
871.749	21119
871.879	20948
872.008	21192
872.138	20941
872.267	20975
872.397	20921
872.526	20845
872.656	20796
872.785	20746
872.915	21123
873.044	21214
873.173	21024
873.303	21116
873.432	21043
873.561	21138
873.69	21108
873.819	21062
873.948	21150
874.077	21077
874.206	21043
874.335	20994
874.464	21157
874.593	21203
874.722	21203
874.851	21348
874.979	21351
875.108	21389
875.237	21233
875.365	21169
875.494	21252
875.623	21363
875.751	21275
875.88	21275
876.008	21340
876.136	21428
876.265	21606
876.393	21747
876.521	21793
876.65	21690
876.778	21660
876.906	21698
877.034	21603
877.162	21671
877.29	21504
877.418	21694
877.546	21614
877.674	21641
877.802	21671
877.93	21553
878.058	21595
878.185	21572
878.313	21644
878.441	21564
878.568	21504
878.696	21492
878.824	21728
878.951	21755
879.079	21857
879.206	21964
879.333	21789
879.461	21690
879.588	21804
879.715	21857
879.842	21835
879.97	21827
880.097	21523
880.224	21507
880.351	21401
880.478	21458
880.605	21344
880.732	21469
880.859	21671
880.986	21477
881.112	21469
881.239	21428
881.366	21245
881.493	21165
881.619	21062
881.746	21009
881.872	21131
881.999	21013
882.125	21112
882.252	21036
882.378	20998
882.505	21165
882.631	20944
882.757	20701
882.883	20720
883.01	20735
883.136	20712
883.262	20727
883.388	20556
883.514	20891
883.64	20750
883.766	20667
883.892	20621
884.018	20606
884.143	20739
884.269	20796
884.395	20415
884.52	20271
884.646	20438
884.772	20271
884.897	20305
885.023	20385
885.148	20575
885.274	20613
885.399	20495
885.524	20396
885.65	20408
885.775	20256
885.9	20362
886.025	20457
886.15	20495
886.275	20343
886.4	20286
886.525	20362
886.65	20317
886.775	20343
886.9	20575
887.025	20507
887.149	20332
887.274	20096
887.399	20172
887.523	20298
887.648	20039
887.773	20172
887.897	20271
888.021	20202
888.146	20119
888.27	20195
888.395	20263
888.519	20176
888.643	20092
888.767	20210
888.891	20058
889.015	19978
889.139	20096
889.263	19932
889.387	20107
889.511	20161
889.635	19959
889.759	19951
889.883	19936
890.006	19989
890.13	20043
890.254	19879
890.377	19879
890.501	19814
890.624	19689
890.748	19776
890.871	19521
890.995	19582
891.118	19411
891.241	19449
891.364	19605
891.488	19696
891.611	19556
891.734	19434
891.857	19639
891.98	19453
892.103	19559
892.226	19510
892.349	19422
892.471	19445
892.594	19434
892.717	19563
892.839	19525
892.962	19594
893.085	19582
893.207	19495
893.33	19392
893.452	19411
893.575	19552
893.697	19502
893.819	19521
893.941	19628
894.064	19635
894.186	19430
894.308	19419
894.43	19639
894.552	19616
894.674	19529
894.796	19392
894.918	19362
895.04	19354
895.161	19609
895.283	19525
895.405	19434
895.526	19460
895.648	19426
895.769	19521
895.891	19472
896.012	19495
896.134	19548
896.255	19506
896.376	19426
896.498	19411
896.619	19499
896.74	19449
896.861	19544
896.982	19864
897.103	19993
897.224	19712
897.345	19727
897.466	19750
897.587	19685
897.708	19715
897.828	19712
897.949	19586
898.07	19491
898.19	19696
898.311	19738
898.431	19662
898.552	19750
898.672	19738
898.792	19753
898.913	19818
899.033	19700
899.153	19559
899.273	19407
899.393	19460
899.513	19590
899.633	19449
899.753	19514
899.873	19324
899.993	19426
900.113	19499
900.232	19384
900.352	19396
900.472	19377
900.591	19122
900.711	19346
900.83	19156
900.95	19320
901.069	19255
901.189	19232
901.308	18951
901.427	18787
901.546	18787
901.665	18821
901.784	18779
901.904	18787
902.023	18559
902.141	18456
902.26	18498
902.379	18479
902.498	18384
902.617	18239
902.735	18391
902.854	18391
902.973	18243
903.091	18087
903.21	18053
903.328	18049
903.446	17878
903.565	17908
903.683	17897
903.801	17695
903.919	17828
904.038	17836
904.156	17764
904.274	17729
904.392	17554
904.51	17566
904.627	17623
904.745	17737
904.863	17760
904.981	17406
905.098	17299
905.216	17341
905.334	17326
905.451	17280
905.569	17227
905.686	17345
905.803	17387
905.921	17102
906.038	17189
906.155	17124
906.272	16976
906.389	17109
906.506	16915
906.623	16778
906.74	16889
906.857	16809
906.974	16797
907.091	16991
907.208	17010
907.324	17025
907.441	16675
907.557	16630
907.674	16615
907.79	16573
907.907	16531
908.023	16630
908.139	16546
908.256	16558
908.372	16386
908.488	16512
908.604	16394
908.72	16314
908.836	16314
908.952	16261
909.068	16333
909.184	16497
909.3	16246
909.415	16329
909.531	16276
909.647	16086
909.762	15991
909.878	15972
909.993	16074
910.108	15953
910.224	15918
910.339	15941
910.454	15850
910.57	15797
910.685	15698
910.8	16017
910.915	15850
911.03	15827
911.145	15724
911.259	15591
911.374	15599
911.489	15469
911.604	15549
911.718	15408
911.833	15401
911.947	15416
912.062	15408
912.176	15519
912.291	15458
912.405	15542
912.519	15587
912.633	15553
912.748	15458
912.862	15252
912.976	15302
913.09	15062
913.204	15070
913.318	15230
913.431	15173
913.545	15252
913.659	15313
913.772	15249
913.886	15047
914	15005
914.113	15043
914.226	15108
914.34	15024
914.453	14765
914.566	15051
914.68	14902
914.793	14743
914.906	14682
915.019	14705
915.132	14499
915.245	14541
915.358	14648
915.47	14571
915.583	14590
915.696	14537
915.809	14781
915.921	14743
916.034	14568
916.146	14514
916.259	14511
916.371	14571
916.483	14514
916.595	14370
916.708	14511
916.82	14431
916.932	14465
917.044	14328
917.156	14328
917.268	14263
917.38	14294
917.491	14286
917.603	14290
917.715	14396
917.826	14389
917.938	14362
918.049	14164
918.161	14176
918.272	14442
918.384	14427
918.495	14244
918.606	14062
918.717	14073
918.828	14035
918.939	14050
919.05	13852
919.161	14058
919.272	13887
919.383	13913
919.494	14088
919.604	14206
919.715	14031
919.826	14008
919.936	14024
920.047	14142
920.157	13967
920.267	14187
920.378	14084
920.488	13932
920.598	14153
920.708	14294
920.818	14161
920.928	14107
921.038	14336
921.148	14278
921.258	13974
921.368	13909
921.477	13807
921.587	13769
921.697	13651
921.806	13791
921.916	13681
922.025	13533
922.134	13453
922.244	13400
922.353	13476
922.462	13415
922.571	13244
922.68	13072
922.789	13080
922.898	13099
923.007	13008
923.116	13084
923.224	13061
923.333	12977
923.442	12962
923.55	12932
923.659	12970
923.767	12962
923.876	12920
923.984	13019
924.092	12806
924.201	12875
924.309	12867
924.417	12837
924.525	12806
924.633	12734
924.741	13750
924.849	12429
924.956	12703
925.064	12593
925.172	12521
925.279	12437
925.387	12540
925.494	12517
925.602	12597
925.709	12563
925.816	12460
925.924	12479
926.031	12498
926.138	12483
926.245	12433
926.352	12380
926.459	12475
926.566	12506
926.673	12410
926.779	12273
926.886	12201
926.993	12133
927.099	12114
927.206	12019
927.312	12022
927.419	12106
927.525	12098
927.631	12041
927.737	11904
927.843	11965
927.95	11805
928.056	11946
928.162	11939
928.267	11984
928.373	12559
928.479	12015
928.585	11790
928.69	11950
928.796	11908
928.901	11783
929.007	11638
929.112	11783
929.218	11741
929.323	11619
929.428	11665
929.533	11828
929.638	11589
929.743	11611
929.848	11668
929.953	11615
930.058	11478
930.163	11284
930.267	11391
930.372	11611
930.477	11292
930.581	11554
930.685	11440
930.79	11280
930.894	11220
930.998	11212
931.103	11398
931.207	11086
931.311	10911
931.415	10866
931.519	10672
931.623	10618
