Data from test_V78500241_3254.txt Node
Date: Fri Mar 25 15:32:31 CST 2022
User: usil
Spectrometer: V785-0024
Trigger mode: 0
Integration Time (sec): 4.000000E-1
Scans to average: 1
Nonlinearity correction enabled: false
Boxcar width: 0
Storing dark spectrum: false
XAxis mode: Wavelengths
Number of Pixels in Spectrum: 1024
>>>>>Begin Spectral Data<<<<<
801.071	27435
801.214	27218
801.356	26929
801.499	26975
801.641	26902
801.783	26838
801.926	26876
802.068	26849
802.211	26705
802.353	26648
802.496	26659
802.638	26518
802.78	26480
802.923	26419
803.065	26298
803.208	26328
803.35	26484
803.492	26453
803.635	26648
803.777	26670
803.919	26674
804.061	26861
804.204	26743
804.346	26514
804.488	26537
804.63	26583
804.773	26518
804.915	26701
805.057	26708
805.199	26583
805.341	26644
805.483	26788
805.626	26629
805.768	26663
805.91	26735
806.052	26705
806.194	26594
806.336	26925
806.478	26701
806.62	26579
806.762	26811
806.904	27093
807.046	27264
807.188	27116
807.33	27154
807.472	27241
807.614	26979
807.756	27013
807.898	26937
808.04	26960
808.182	26899
808.324	27036
808.465	26990
808.607	27142
808.749	27268
808.891	27363
809.033	27511
809.174	27310
809.316	27378
809.458	27291
809.6	27203
809.741	27450
809.883	27458
810.025	27583
810.166	27614
810.308	27648
810.45	27450
810.591	27500
810.733	27344
810.875	27176
811.016	27161
811.158	27329
811.299	27397
811.441	27618
811.582	27530
811.724	27340
811.865	27233
812.007	27233
812.148	27283
812.29	27306
812.431	27374
812.573	27705
812.714	27778
812.855	27755
812.997	27914
813.138	28048
813.279	27914
813.421	27751
813.562	27728
813.703	27625
813.845	27572
813.986	27154
814.127	26967
814.268	27005
814.41	27013
814.551	26940
814.692	27043
814.833	26880
814.974	26838
815.115	27036
815.256	26864
815.397	26758
815.539	26883
815.68	26788
815.821	26750
815.962	26807
816.103	26663
816.244	26594
816.385	26568
816.526	26549
816.666	26355
816.807	26313
816.948	26366
817.089	26370
817.23	26301
817.371	26195
817.512	26180
817.653	26180
817.793	26202
817.934	26252
818.075	26233
818.216	26233
818.356	26172
818.497	26237
818.638	25898
818.778	26005
818.919	26046
819.06	25974
819.2	26027
819.341	26275
819.481	26237
819.622	26400
819.762	26499
819.903	26453
820.043	26393
820.184	26324
820.324	26404
820.465	26412
820.605	26374
820.746	26358
820.886	26153
821.026	26336
821.167	26214
821.307	26332
821.447	26210
821.588	26111
821.728	25936
821.868	25826
822.008	25784
822.149	25670
822.289	25700
822.429	25422
822.569	25491
822.709	25358
822.849	25232
822.99	25381
823.13	25198
823.27	25187
823.41	24992
823.55	24905
823.69	25069
823.83	25103
823.97	24985
824.11	24829
824.25	24814
824.389	24688
824.529	24928
824.669	24882
824.809	24810
824.949	24840
825.089	24985
825.228	24913
825.368	24715
825.508	24856
825.648	24608
825.787	24669
825.927	24878
826.067	24684
826.206	24703
826.346	24707
826.485	24829
826.625	24730
826.765	24738
826.904	24749
827.044	24479
827.183	24528
827.323	24380
827.462	24365
827.601	24479
827.741	24433
827.88	24380
828.02	24300
828.159	24311
828.298	24388
828.437	24448
828.577	24243
828.716	24460
828.855	24304
828.994	24197
829.134	24091
829.273	24186
829.412	24117
829.551	24144
829.69	24136
829.829	24057
829.968	24216
830.107	24209
830.246	24167
830.385	24125
830.524	24045
830.663	23874
830.802	23863
830.941	23726
831.08	23771
831.219	23863
831.357	23813
831.496	23878
831.635	23805
831.774	23653
831.913	23634
832.051	23570
832.19	23573
832.329	23452
832.467	23474
832.606	23334
832.744	23398
832.883	23482
833.022	23315
833.16	23463
833.299	23520
833.437	23429
833.576	23566
833.714	23467
833.852	23596
833.991	23592
834.129	23657
834.267	23661
834.406	23646
834.544	23562
834.682	23566
834.821	23497
834.959	23653
835.097	23410
835.235	23535
835.373	23531
835.511	23509
835.65	23463
835.788	23334
835.926	23292
836.064	23220
836.202	23113
836.34	23467
836.478	23463
836.615	23387
836.753	23258
836.891	23562
837.029	23353
837.167	23235
837.305	23193
837.443	23189
837.58	23204
837.718	23254
837.856	23174
837.993	23162
838.131	23261
838.269	23132
838.406	23200
838.544	22961
838.681	22812
838.819	22801
838.956	22668
839.094	22687
839.231	22782
839.369	22843
839.506	23075
839.643	22934
839.781	22645
839.918	22588
840.055	22607
840.193	22596
840.33	22489
840.467	22596
840.604	22664
840.742	22873
840.879	22565
841.016	22565
841.153	22402
841.29	22611
841.427	22641
841.564	22630
841.701	22664
841.838	22569
841.975	22535
842.112	22557
842.249	22500
842.385	22459
842.522	22580
842.659	22531
842.796	22455
842.933	22428
843.069	22398
843.206	22417
843.343	22440
843.479	22436
843.616	22306
843.752	22204
843.889	22200
844.025	22325
844.162	22131
844.298	22150
844.435	22150
844.571	22128
844.708	22169
844.844	22341
844.98	22284
845.117	22352
845.253	22048
845.389	21975
845.525	22067
845.661	21945
845.798	21903
845.934	21918
846.07	21842
846.206	21895
846.342	21972
846.478	21766
846.614	21724
846.75	21644
846.886	21705
847.022	21762
847.158	21766
847.294	21599
847.429	21709
847.565	21507
847.701	21819
847.837	21374
847.972	21310
848.108	21443
848.244	21397
848.379	21260
848.515	21203
848.65	21127
848.786	21203
848.921	21214
849.057	21397
849.192	21218
849.328	21272
849.463	21260
849.598	21070
849.734	21154
849.869	21096
850.004	21009
850.14	21089
850.275	21020
850.41	20956
850.545	20929
850.68	20986
850.815	21058
850.95	21001
851.085	21142
851.22	21169
851.355	20948
851.49	20891
851.625	20952
851.76	20971
851.895	20842
852.03	20929
852.165	21047
852.299	21043
852.434	21028
852.569	20986
852.703	20994
852.838	21001
852.973	21138
853.107	21028
853.242	20921
853.376	20796
853.511	20765
853.645	20746
853.78	20872
853.914	20918
854.048	20834
854.183	20906
854.317	20872
854.451	21085
854.585	20826
854.72	20929
854.854	20941
854.988	20823
855.122	20956
855.256	20785
855.39	20956
855.524	20899
855.658	20925
855.792	20823
855.926	20876
856.06	20804
856.194	20960
856.327	20792
856.461	20811
856.595	20819
856.729	20868
856.862	20990
856.996	20849
857.13	20941
857.263	20910
857.397	20876
857.53	20864
857.664	20861
857.797	20933
857.931	20971
858.064	20910
858.197	20975
858.331	20834
858.464	20826
858.597	20796
858.731	20819
858.864	20781
858.997	20785
859.13	20956
859.263	20838
859.396	20906
859.529	20819
859.662	20815
859.795	20754
859.928	20899
860.061	21001
860.194	21058
860.327	20925
860.46	20849
860.592	20853
860.725	20960
860.858	20899
860.99	20804
861.123	20807
861.256	20724
861.388	20823
861.521	21424
861.653	20777
861.786	20655
861.918	20648
862.05	20724
862.183	20773
862.315	20792
862.447	20819
862.58	20750
862.712	20503
862.844	20621
862.976	20750
863.108	20606
863.24	21020
863.372	20518
863.504	20556
863.636	20484
863.768	20663
863.9	20541
864.032	20587
864.164	20514
864.296	20473
864.428	20663
864.559	20598
864.691	20731
864.823	20670
864.954	20537
865.086	20511
865.217	20499
865.349	20473
865.48	20488
865.612	20400
865.743	20564
865.875	20431
866.006	20499
866.137	20549
866.269	20526
866.4	20434
866.531	20454
866.662	20332
866.793	20343
866.924	20396
867.055	20381
867.186	20358
867.317	20412
867.448	20389
867.579	20282
867.71	20332
867.841	20278
867.972	20518
868.103	20377
868.233	20328
868.364	20336
868.495	20545
868.625	20674
868.756	20838
868.886	20408
869.017	20739
869.147	20758
869.278	20648
869.408	20693
869.539	20689
869.669	20648
869.799	20720
869.929	20777
870.06	20785
870.19	20994
870.32	20918
870.45	20952
870.58	21039
870.71	21135
870.84	21123
870.97	21116
871.1	21096
871.23	21203
871.36	21203
871.489	21127
871.619	21237
871.749	21218
871.879	21294
872.008	21344
872.138	21268
872.267	21302
872.397	21207
872.526	21123
872.656	21089
872.785	21058
872.915	21218
873.044	21367
873.173	21226
873.303	21275
873.432	21329
873.561	21264
873.69	21268
873.819	21294
873.948	21302
874.077	21416
874.206	21116
874.335	21332
874.464	21351
874.593	21428
874.722	21462
874.851	21462
874.979	21496
875.108	21610
875.237	21405
875.365	21329
875.494	21420
875.623	21530
875.751	21572
875.88	21557
876.008	21675
876.136	21660
876.265	21922
876.393	21987
876.521	22040
876.65	22036
876.778	21812
876.906	21812
877.034	21930
877.162	21941
877.29	21854
877.418	21850
877.546	21861
877.674	21861
877.802	21778
877.93	21759
878.058	21812
878.185	21713
878.313	21865
878.441	21823
878.568	21652
878.696	21797
878.824	21934
878.951	21953
879.079	22025
879.206	22211
879.333	22051
879.461	21865
879.588	21987
879.715	21987
879.842	22097
879.97	21793
880.097	21682
880.224	21679
880.351	21671
880.478	21728
880.605	21739
880.732	21682
880.859	21907
880.986	21671
881.112	21816
881.239	21488
881.366	21530
881.493	21306
881.619	21355
881.746	21378
881.872	21169
881.999	21348
882.125	21214
882.252	21252
882.378	21382
882.505	21412
882.631	21207
882.757	20971
882.883	21150
883.01	20941
883.136	20990
883.262	20769
883.388	20834
883.514	21009
883.64	21058
883.766	20876
883.892	20762
884.018	20777
884.143	21017
884.269	21043
884.395	20716
884.52	20651
884.646	20579
884.772	20503
884.897	20480
885.023	20682
885.148	20712
885.274	20758
885.399	20644
885.524	20625
885.65	20674
885.775	20705
885.9	20659
886.025	20682
886.15	20689
886.275	20606
886.4	20518
886.525	20629
886.65	20457
886.775	20537
886.9	20773
887.025	20769
887.149	20560
887.274	20499
887.399	20343
887.523	20374
887.648	20252
887.773	20400
887.897	20499
888.021	20343
888.146	20339
888.27	20526
888.395	20442
888.519	20484
888.643	20366
888.767	20469
888.891	20294
889.015	20214
889.139	20122
889.263	20218
889.387	20263
889.511	20408
889.635	20282
889.759	20168
889.883	20138
890.006	20065
890.13	20225
890.254	20100
890.377	20168
890.501	20035
890.624	19887
890.748	20035
890.871	19868
890.995	19788
891.118	19696
891.241	19852
891.364	19723
891.488	19826
891.611	19841
891.734	19761
891.857	19784
891.98	19791
892.103	19788
892.226	19822
892.349	19674
892.471	19521
892.594	19643
892.717	19875
892.839	19639
892.962	19643
893.085	19677
893.207	19578
893.33	19590
893.452	19590
893.575	19750
893.697	19712
893.819	19860
893.941	19902
894.064	19833
894.186	19559
894.308	19616
894.43	19757
894.552	19807
894.674	19803
894.796	19559
894.918	19670
895.04	19586
895.161	19795
895.283	19830
895.405	19575
895.526	19624
895.648	19658
895.769	19670
895.891	19719
896.012	19830
896.134	19662
896.255	19651
896.376	19613
896.498	19658
896.619	19742
896.74	19647
896.861	19761
896.982	20054
897.103	20145
897.224	20001
897.345	19852
897.466	19795
897.587	19947
897.708	19940
897.828	19947
897.949	19833
898.07	19784
898.19	19811
898.311	20062
898.431	19932
898.552	19993
898.672	20073
898.792	20005
898.913	19902
899.033	19788
899.153	19700
899.273	19449
899.393	19582
899.513	19734
899.633	19738
899.753	19765
899.873	19712
899.993	19681
900.113	19506
900.232	19712
900.352	19628
900.472	19487
900.591	19434
900.711	19525
900.83	19381
900.95	19552
901.069	19480
901.189	19377
901.308	19122
901.427	19038
901.546	19031
901.665	19050
901.784	19129
901.904	18909
902.023	18772
902.141	18563
902.26	18661
902.379	18665
902.498	18536
902.617	18631
902.735	18711
902.854	18479
902.973	18475
903.091	18281
903.21	18190
903.328	18270
903.446	18125
903.565	18114
903.683	18022
903.801	17912
903.919	17984
904.038	17996
904.156	17805
904.274	17878
904.392	17821
904.51	17665
904.627	17764
904.745	17912
904.863	17874
904.981	17604
905.098	17490
905.216	17532
905.334	17505
905.451	17417
905.569	17471
905.686	17493
905.803	17414
905.921	17216
906.038	17341
906.155	17284
906.272	17162
906.389	17216
906.506	17029
906.623	16999
906.74	16972
906.857	16972
906.974	16949
907.091	17162
907.208	17159
907.324	17132
907.441	16900
907.557	16831
907.674	16691
907.79	16752
907.907	16710
908.023	16873
908.139	16778
908.256	16744
908.372	16592
908.488	16637
908.604	16466
908.72	16451
908.836	16527
908.952	16375
909.068	16474
909.184	16561
909.3	16565
909.415	16542
909.531	16508
909.647	16196
909.762	16188
909.878	16192
909.993	16318
910.108	16090
910.224	15941
910.339	16143
910.454	16044
910.57	16036
910.685	15922
910.8	16200
910.915	16040
911.03	16025
911.145	15880
911.259	15736
911.374	15660
911.489	15774
911.604	15713
911.718	15553
911.833	15595
911.947	15477
912.062	15374
912.176	15557
912.291	15553
912.405	15561
912.519	15762
912.633	15789
912.748	15523
912.862	15500
912.976	15386
913.09	15195
913.204	15214
913.318	15302
913.431	15389
913.545	15504
913.659	15435
913.772	15287
913.886	15230
914	15074
914.113	15245
914.226	15252
914.34	15230
914.453	15020
914.566	15135
914.68	15081
914.793	15039
914.906	14838
915.019	14765
915.132	14689
915.245	14739
915.358	14765
915.47	14788
915.583	14826
915.696	14823
915.809	14815
915.921	14849
916.034	14743
916.146	14606
916.259	14583
916.371	14746
916.483	14632
916.595	14617
916.708	14655
916.82	14667
916.932	14674
917.044	14594
917.156	14530
917.268	14465
917.38	14495
917.491	14450
917.603	14438
917.715	14499
917.826	14503
917.938	14374
918.049	14275
918.161	14480
918.272	14514
918.384	14545
918.495	14400
918.606	14286
918.717	14206
918.828	14229
918.939	14210
919.05	14115
919.161	14164
919.272	13993
919.383	14005
919.494	14164
919.604	14457
919.715	14199
919.826	14134
919.936	14214
920.047	14214
920.157	14119
920.267	14282
920.378	14259
920.488	14126
920.598	14423
920.708	14461
920.818	14400
920.928	14366
921.038	14465
921.148	14419
921.258	14157
921.368	14035
921.477	13906
921.587	13871
921.697	13883
921.806	13959
921.916	13753
922.025	13586
922.134	13518
922.244	13495
922.353	13632
922.462	13445
922.571	13419
922.68	13266
922.789	13168
922.898	13190
923.007	13137
923.116	13221
923.224	13179
923.333	13164
923.442	13027
923.55	13069
923.659	13129
923.767	13080
923.876	12962
923.984	13156
924.092	12951
924.201	12962
924.309	13038
924.417	12939
924.525	12859
924.633	12886
924.741	13868
924.849	12684
924.956	12833
925.064	12639
925.172	12559
925.279	12566
925.387	12612
925.494	12612
925.602	12791
925.709	12559
925.816	12528
925.924	12578
926.031	12669
926.138	12574
926.245	12642
926.352	12471
926.459	12665
926.566	12650
926.673	12498
926.779	12369
926.886	12357
926.993	12262
927.099	12205
927.206	12136
927.312	12190
927.419	12175
927.525	12144
927.631	12239
927.737	12133
927.843	11958
927.95	12019
928.056	11984
928.162	12117
928.267	12102
928.373	12741
928.479	12053
928.585	11893
928.69	11988
928.796	12144
928.901	11920
929.007	11764
929.112	11961
929.218	11878
929.323	11779
929.428	11752
929.533	11939
929.638	11695
929.743	11764
929.848	11668
929.953	11771
930.058	11680
930.163	11516
930.267	11467
930.372	11581
930.477	11433
930.581	11600
930.685	11505
930.79	11368
930.894	11379
930.998	11376
931.103	11448
931.207	11132
931.311	11067
931.415	10968
931.519	10744
931.623	10733
