Data from test_V78500241_721.txt Node
Date: Fri Mar 25 15:14:52 CST 2022
User: usil
Spectrometer: V785-0024
Trigger mode: 0
Integration Time (sec): 4.000000E-1
Scans to average: 1
Nonlinearity correction enabled: false
Boxcar width: 0
Storing dark spectrum: false
XAxis mode: Wavelengths
Number of Pixels in Spectrum: 1024
>>>>>Begin Spectral Data<<<<<
801.071	27972
801.214	27926
801.356	27846
801.499	27827
801.641	27618
801.783	27739
801.926	27629
802.068	27572
802.211	27561
802.353	27496
802.496	27291
802.638	27408
802.78	27268
802.923	27252
803.065	27192
803.208	27321
803.35	27256
803.492	27348
803.635	27526
803.777	27317
803.919	27523
804.061	27838
804.204	27610
804.346	27420
804.488	27351
804.63	27370
804.773	27294
804.915	27561
805.057	27705
805.199	27530
805.341	27580
805.483	27614
805.626	27648
805.768	27427
805.91	27458
806.052	27576
806.194	27488
806.336	27789
806.478	27846
806.62	27580
806.762	27808
806.904	27941
807.046	28097
807.188	27934
807.33	28105
807.472	28097
807.614	28010
807.756	28010
807.898	27865
808.04	27953
808.182	27808
808.324	27937
808.465	27861
808.607	28082
808.749	28234
808.891	28333
809.033	28409
809.174	28287
809.316	28242
809.458	28398
809.6	28371
809.741	28318
809.883	28398
810.025	28660
810.166	28489
810.308	28535
810.45	28569
810.591	28561
810.733	28371
810.875	28310
811.016	28192
811.158	28143
811.299	28272
811.441	28459
811.582	28325
811.724	28230
811.865	28276
812.007	28329
812.148	28211
812.29	28173
812.431	28466
812.573	28660
812.714	28725
812.855	28866
812.997	28797
813.138	29022
813.279	28938
813.421	28850
813.562	28847
813.703	28607
813.845	28630
813.986	28341
814.127	28048
814.268	27968
814.41	28116
814.551	27880
814.692	28116
814.833	27854
814.974	27968
815.115	28078
815.256	27903
815.397	27819
815.539	27869
815.68	27869
815.821	27766
815.962	27736
816.103	27808
816.244	27682
816.385	27629
816.526	27545
816.666	27538
816.807	27199
816.948	27424
817.089	27450
817.23	27252
817.371	27351
817.512	27294
817.653	27355
817.793	27233
817.934	27408
818.075	27310
818.216	27313
818.356	27233
818.497	27077
818.638	26925
818.778	27077
818.919	27028
819.06	27077
819.2	27233
819.341	27157
819.481	27241
819.622	27450
819.762	27720
819.903	27523
820.043	27507
820.184	27332
820.324	27306
820.465	27523
820.605	27431
820.746	27416
820.886	27363
821.026	27416
821.167	27355
821.307	27370
821.447	27386
821.588	27165
821.728	27112
821.868	26952
822.008	26762
822.149	26815
822.289	26762
822.429	26476
822.569	26324
822.709	26484
822.849	26290
822.99	26358
823.13	26240
823.27	26199
823.41	26103
823.55	26024
823.69	26111
823.83	26081
823.97	26142
824.11	25879
824.25	25845
824.389	26008
824.529	25917
824.669	25955
824.809	26054
824.949	26122
825.089	26050
825.228	25811
825.368	25624
825.508	25734
825.648	25677
825.787	25852
825.927	25776
826.067	25769
826.206	25757
826.346	25757
826.485	25864
826.625	25845
826.765	25963
826.904	25746
827.044	25719
827.183	25647
827.323	25369
827.462	25609
827.601	25453
827.741	25533
827.88	25559
828.02	25453
828.159	25521
828.298	25529
828.437	25559
828.577	25441
828.716	25620
828.855	25514
828.994	25403
829.134	25114
829.273	25232
829.412	25194
829.551	25137
829.69	25304
829.829	25297
829.968	25244
830.107	25289
830.246	25133
830.385	25027
830.524	25084
830.663	25137
830.802	24992
830.941	24837
831.08	24863
831.219	24875
831.357	24837
831.496	24947
831.635	24787
831.774	24806
831.913	24711
832.051	24585
832.19	24661
832.329	24597
832.467	24525
832.606	24479
832.744	24578
832.883	24498
833.022	24391
833.16	24384
833.299	24486
833.437	24585
833.576	24665
833.714	24631
833.852	24597
833.991	24498
834.129	24787
834.267	24681
834.406	24650
834.544	24635
834.682	24563
834.821	24525
834.959	24726
835.097	24578
835.235	24642
835.373	24578
835.511	24627
835.65	24403
835.788	24422
835.926	24273
836.064	24197
836.202	24243
836.34	24319
836.478	24517
836.615	24376
836.753	24486
836.891	24483
837.029	24361
837.167	24365
837.305	24247
837.443	24258
837.58	24247
837.718	24296
837.856	24357
837.993	24243
838.131	24197
838.269	24049
838.406	24114
838.544	24087
838.681	23885
838.819	23874
838.956	23566
839.094	23752
839.231	23786
839.369	23965
839.506	24178
839.643	24049
839.781	23832
839.918	23657
840.055	23687
840.193	23710
840.33	23630
840.467	23562
840.604	23604
840.742	23874
840.879	23448
841.016	23608
841.153	23570
841.29	23741
841.427	23448
841.564	23741
841.701	23623
841.838	23448
841.975	23463
842.112	23463
842.249	23379
842.385	23383
842.522	23577
842.659	23417
842.796	23322
842.933	23425
843.069	23334
843.206	23292
843.343	23444
843.479	23387
843.616	23337
843.752	23197
843.889	23105
844.025	23204
844.162	23212
844.298	23216
844.435	23060
844.571	23098
844.708	23273
844.844	23376
844.98	23265
845.117	23162
845.253	23113
845.389	23025
845.525	22999
845.661	22976
845.798	22904
845.934	22980
846.07	22927
846.206	22877
846.342	23014
846.478	22797
846.614	22683
846.75	22500
846.886	22519
847.022	22725
847.158	22664
847.294	22744
847.429	22592
847.565	22622
847.701	22995
847.837	22424
847.972	22394
848.108	22421
848.244	22398
848.379	22265
848.515	22211
848.65	22150
848.786	22261
848.921	22215
849.057	22207
849.192	22390
849.328	22215
849.463	22139
849.598	22109
849.734	22032
849.869	22070
850.004	21918
850.14	21922
850.275	22086
850.41	21941
850.545	21884
850.68	21960
850.815	21930
850.95	21994
851.085	22238
851.22	22116
851.355	21994
851.49	21975
851.625	21953
851.76	21838
851.895	21846
852.03	21880
852.165	21945
852.299	21835
852.434	22086
852.569	21972
852.703	22021
852.838	22032
852.973	22090
853.107	21972
853.242	21956
853.376	21880
853.511	21610
853.645	21713
853.78	21937
853.914	21755
854.048	21720
854.183	21667
854.317	21781
854.451	21926
854.585	21823
854.72	21739
854.854	21903
854.988	21682
855.122	21861
855.256	21660
855.39	21736
855.524	21770
855.658	21934
855.792	21778
855.926	21682
856.06	21918
856.194	21884
856.327	21762
856.461	21709
856.595	21835
856.729	21720
856.862	21960
856.996	21789
857.13	21838
857.263	21941
857.397	21865
857.53	21831
857.664	21884
857.797	21899
857.931	22017
858.064	21705
858.197	21861
858.331	21766
858.464	21698
858.597	21808
858.731	21736
858.864	21774
858.997	21709
859.13	21819
859.263	21709
859.396	21991
859.529	21823
859.662	21759
859.795	21743
859.928	21690
860.061	21873
860.194	21979
860.327	21873
860.46	21759
860.592	21915
860.725	21975
860.858	21953
860.99	21835
861.123	21667
861.256	21694
861.388	21774
861.521	22588
861.653	21701
861.786	21435
861.918	21549
862.05	21618
862.183	21736
862.315	21679
862.447	21850
862.58	21759
862.712	21466
862.844	21473
862.976	21545
863.108	21644
863.24	21915
863.372	21496
863.504	21378
863.636	21462
863.768	21481
863.9	21488
864.032	21534
864.164	21355
864.296	21428
864.428	21675
864.559	21549
864.691	21507
864.823	21534
864.954	21477
865.086	21389
865.217	21332
865.349	21245
865.48	21321
865.612	21363
865.743	21504
865.875	21405
866.006	21313
866.137	21386
866.269	21386
866.4	21340
866.531	21222
866.662	21329
866.793	21310
866.924	21283
867.055	21378
867.186	21306
867.317	21237
867.448	21249
867.579	21329
867.71	21207
867.841	21195
867.972	21272
868.103	21233
868.233	21291
868.364	21233
868.495	21386
868.625	21511
868.756	21633
868.886	21416
869.017	21504
869.147	21762
869.278	21545
869.408	21485
869.539	21587
869.669	21618
869.799	21561
869.929	21576
870.06	21637
870.19	21884
870.32	21861
870.45	21975
870.58	21857
870.71	21979
870.84	21994
870.97	21956
871.1	21915
871.23	22006
871.36	22150
871.489	21964
871.619	22147
871.749	22044
871.879	22135
872.008	22150
872.138	22158
872.267	22097
872.397	22086
872.526	22002
872.656	22162
872.785	21983
872.915	22204
873.044	22261
873.173	22143
873.303	22215
873.432	22162
873.561	22215
873.69	22143
873.819	22257
873.948	22131
874.077	22219
874.206	22048
874.335	22097
874.464	22257
874.593	22375
874.722	22314
874.851	22394
874.979	22382
875.108	22337
875.237	22314
875.365	22280
875.494	22257
875.623	22440
875.751	22398
875.88	22348
876.008	22436
876.136	22504
876.265	22816
876.393	22889
876.521	22809
876.65	22900
876.778	22740
876.906	22634
877.034	22683
877.162	22767
877.29	22767
877.418	22687
877.546	22687
877.674	22615
877.802	22683
877.93	22748
878.058	22611
878.185	22485
878.313	22687
878.441	22649
878.568	22569
878.696	22698
878.824	22736
878.951	22782
879.079	23010
879.206	22957
879.333	22843
879.461	22710
879.588	22717
879.715	22778
879.842	23060
879.97	22603
880.097	22535
880.224	22489
880.351	22481
880.478	22584
880.605	22497
880.732	22428
880.859	22622
880.986	22508
881.112	22451
881.239	22402
881.366	22215
881.493	22105
881.619	22101
881.746	22154
881.872	22086
881.999	22112
882.125	22078
882.252	22090
882.378	22055
882.505	22158
882.631	22032
882.757	21766
882.883	21873
883.01	21876
883.136	21831
883.262	21679
883.388	21713
883.514	21793
883.64	21922
883.766	21686
883.892	21557
884.018	21557
884.143	21747
884.269	21724
884.395	21443
884.52	21351
884.646	21458
884.772	21310
884.897	21382
885.023	21363
885.148	21496
885.274	21488
885.399	21466
885.524	21397
885.65	21351
885.775	21363
885.9	21431
886.025	21500
886.15	21466
886.275	21374
886.4	21222
886.525	21283
886.65	21317
886.775	21283
886.9	21488
887.025	21667
887.149	21526
887.274	21241
887.399	21199
887.523	21176
887.648	21070
887.773	21093
887.897	21340
888.021	21081
888.146	21077
888.27	21275
888.395	21332
888.519	21138
888.643	21192
888.767	21157
888.891	21055
889.015	21001
889.139	20963
889.263	20979
889.387	21081
889.511	21230
889.635	21123
889.759	20929
889.883	20960
890.006	20960
890.13	21051
890.254	20906
890.377	21036
890.501	20746
890.624	20670
890.748	20686
890.871	20648
890.995	20446
891.118	20549
891.241	20579
891.364	20613
891.488	20716
891.611	20564
891.734	20533
891.857	20564
891.98	20617
892.103	20655
892.226	20617
892.349	20613
892.471	20389
892.594	20446
892.717	20396
892.839	20442
892.962	20446
893.085	20564
893.207	20434
893.33	20320
893.452	20332
893.575	20412
893.697	20457
893.819	20495
893.941	20701
894.064	20545
894.186	20419
894.308	20332
894.43	20461
894.552	20674
894.674	20533
894.796	20237
894.918	20473
895.04	20393
895.161	20492
895.283	20507
895.405	20324
895.526	20400
895.648	20374
895.769	20320
895.891	20552
896.012	20549
896.134	20606
896.255	20480
896.376	20488
896.498	20431
896.619	20465
896.74	20415
896.861	20473
896.982	20804
897.103	20902
897.224	20667
897.345	20476
897.466	20526
897.587	20564
897.708	20800
897.828	20705
897.949	20606
898.07	20465
898.19	20575
898.311	20765
898.431	20655
898.552	20579
898.672	20648
898.792	20731
898.913	20552
899.033	20503
899.153	20530
899.273	20275
899.393	20317
899.513	20461
899.633	20358
899.753	20366
899.873	20294
899.993	20358
900.113	20404
900.232	20336
900.352	20244
900.472	20187
900.591	20244
900.711	20153
900.83	20195
900.95	20195
901.069	20233
901.189	20092
901.308	19746
901.427	19723
901.546	19780
901.665	19814
901.784	19746
901.904	19559
902.023	19586
902.141	19335
902.26	19236
902.379	19285
902.498	19221
902.617	19114
902.735	19263
902.854	19244
902.973	19107
903.091	18905
903.21	18837
903.328	19019
903.446	18768
903.565	18753
903.683	18639
903.801	18582
903.919	18681
904.038	18616
904.156	18521
904.274	18559
904.392	18502
904.51	18502
904.627	18410
904.745	18544
904.863	18486
904.981	18201
905.098	18102
905.216	18205
905.334	18178
905.451	18171
905.569	18167
905.686	18197
905.803	18140
905.921	17885
906.038	18049
906.155	17992
906.272	17836
906.389	17847
906.506	17665
906.623	17707
906.74	17684
906.857	17611
906.974	17657
907.091	17699
907.208	17794
907.324	17756
907.441	17592
907.557	17376
907.674	17421
907.79	17349
907.907	17421
908.023	17425
908.139	17364
908.256	17410
908.372	17337
908.488	17292
908.604	17143
908.72	17132
908.836	17075
908.952	17181
909.068	17083
909.184	17147
909.3	17083
909.415	17155
909.531	17064
909.647	16930
909.762	16915
909.878	16820
909.993	16889
910.108	16835
910.224	16816
910.339	16934
910.454	16653
910.57	16618
910.685	16558
910.8	16858
910.915	16748
911.03	16611
911.145	16580
911.259	16470
911.374	16375
911.489	16386
911.604	16402
911.718	16284
911.833	16139
911.947	16017
912.062	16059
912.176	16215
912.291	16192
912.405	16135
912.519	16367
912.633	16303
912.748	16204
912.862	16078
912.976	16021
913.09	15770
913.204	15991
913.318	16017
913.431	16040
913.545	16147
913.659	16154
913.772	15888
913.886	15739
914	15827
914.113	15827
914.226	15953
914.34	15812
914.453	15694
914.566	15915
914.68	15755
914.793	15698
914.906	15424
915.019	15435
915.132	15386
915.245	15355
915.358	15557
915.47	15401
915.583	15462
915.696	15313
915.809	15458
915.921	15511
916.034	15325
916.146	15340
916.259	15389
916.371	15378
916.483	15443
916.595	15207
916.708	15214
916.82	15150
916.932	15169
917.044	15165
917.156	15123
917.268	15039
917.38	15180
917.491	14994
917.603	15020
917.715	15104
917.826	15230
917.938	15062
918.049	14952
918.161	14979
918.272	15127
918.384	15154
918.495	14963
918.606	14830
918.717	14693
918.828	14781
918.939	14887
919.05	14667
919.161	14823
919.272	14541
919.383	14663
919.494	14830
919.604	14895
919.715	14834
919.826	14632
919.936	14739
920.047	14804
920.157	14636
920.267	14842
920.378	14693
920.488	14602
920.598	14918
920.708	14967
920.818	14899
920.928	14826
921.038	15001
921.148	15058
921.258	14640
921.368	14621
921.477	14571
921.587	14469
921.697	14347
921.806	14484
921.916	14301
922.025	14218
922.134	14115
922.244	14088
922.353	14092
922.462	13997
922.571	13917
922.68	13784
922.789	13704
922.898	13852
923.007	13677
923.116	13769
923.224	13750
923.333	13811
923.442	13601
923.55	13537
923.659	13746
923.767	13616
923.876	13529
923.984	13563
924.092	13586
924.201	13525
924.309	13495
924.417	13476
924.525	13411
924.633	13460
924.741	14214
924.849	13244
924.956	13324
925.064	13149
925.172	13103
925.279	13065
925.387	13266
925.494	13194
925.602	13324
925.709	13198
925.816	12935
925.924	13190
926.031	13198
926.138	13095
926.245	13126
926.352	13042
926.459	13118
926.566	13213
926.673	12973
926.779	12954
926.886	12825
926.993	12764
927.099	12741
927.206	12741
927.312	12677
927.419	12711
927.525	12783
927.631	12719
927.737	12521
927.843	12578
927.95	12471
928.056	12532
928.162	12540
928.267	12574
928.373	13183
928.479	12578
928.585	12357
928.69	12517
928.796	12555
928.901	12376
929.007	12190
929.112	12429
929.218	12353
929.323	12361
929.428	12273
929.533	12353
929.638	12121
929.743	12224
929.848	12350
929.953	12175
930.058	12083
930.163	11893
930.267	11920
930.372	12091
930.477	11889
930.581	12209
930.685	11980
930.79	11824
930.894	11874
930.998	11771
931.103	11992
931.207	11627
931.311	11608
931.415	11379
931.519	11155
931.623	11208
