Data from test_V78500241_1946.txt Node
Date: Fri Mar 25 15:23:24 CST 2022
User: usil
Spectrometer: V785-0024
Trigger mode: 0
Integration Time (sec): 4.000000E-1
Scans to average: 1
Nonlinearity correction enabled: false
Boxcar width: 0
Storing dark spectrum: false
XAxis mode: Wavelengths
Number of Pixels in Spectrum: 1024
>>>>>Begin Spectral Data<<<<<
801.071	27686
801.214	27633
801.356	27291
801.499	27397
801.641	27306
801.783	27351
801.926	27291
802.068	27195
802.211	27173
802.353	27157
802.496	26967
802.638	26815
802.78	26830
802.923	26788
803.065	26758
803.208	26845
803.35	26944
803.492	27039
803.635	27100
803.777	26891
803.919	27150
804.061	27367
804.204	27176
804.346	27154
804.488	26956
804.63	27066
804.773	27017
804.915	27051
805.057	27218
805.199	27047
805.341	27138
805.483	27226
805.626	27157
805.768	27108
805.91	27272
806.052	27207
806.194	27203
806.336	27443
806.478	27283
806.62	27294
806.762	27207
806.904	27504
807.046	27846
807.188	27698
807.33	27511
807.472	27648
807.614	27511
807.756	27656
807.898	27370
808.04	27515
808.182	27344
808.324	27572
808.465	27561
808.607	27698
808.749	27994
808.891	27937
809.033	27892
809.174	27865
809.316	27778
809.458	27797
809.6	27743
809.741	27945
809.883	27987
810.025	28150
810.166	28128
810.308	28116
810.45	27979
810.591	27884
810.733	27747
810.875	27694
811.016	27743
811.158	27599
811.299	27865
811.441	27983
811.582	27983
811.724	27903
811.865	27781
812.007	27823
812.148	27914
812.29	27850
812.431	27960
812.573	28048
812.714	28257
812.855	28344
812.997	28375
813.138	28569
813.279	28527
813.421	28333
813.562	28276
813.703	28154
813.845	27934
813.986	27884
814.127	27530
814.268	27458
814.41	27469
814.551	27435
814.692	27572
814.833	27454
814.974	27370
815.115	27466
815.256	27424
815.397	27443
815.539	27443
815.68	27264
815.821	27241
815.962	27264
816.103	27348
816.244	27184
816.385	27085
816.526	27047
816.666	26842
816.807	26823
816.948	26735
817.089	26975
817.23	26830
817.371	26921
817.512	26819
817.653	26705
817.793	26686
817.934	26701
818.075	26746
818.216	26769
818.356	26754
818.497	26598
818.638	26571
818.778	26530
818.919	26484
819.06	26537
819.2	26777
819.341	26826
819.481	26872
819.622	26750
819.762	26982
819.903	27001
820.043	26963
820.184	26933
820.324	26857
820.465	26887
820.605	26750
820.746	26769
820.886	26663
821.026	26849
821.167	26792
821.307	26971
821.447	26876
821.588	26640
821.728	26530
821.868	26305
822.008	26256
822.149	26187
822.289	26134
822.429	25974
822.569	25955
822.709	25932
822.849	25712
822.99	25704
823.13	25757
823.27	25791
823.41	25628
823.55	25438
823.69	25571
823.83	25616
823.97	25491
824.11	25297
824.25	25350
824.389	25453
824.529	25377
824.669	25369
824.809	25537
824.949	25521
825.089	25483
825.228	25430
825.368	25236
825.508	25187
825.648	25259
825.787	25232
825.927	25403
826.067	25179
826.206	25331
826.346	25354
826.485	25259
826.625	25263
826.765	25381
826.904	25148
827.044	24954
827.183	25042
827.323	25065
827.462	25057
827.601	24951
827.741	24962
827.88	25137
828.02	24760
828.159	24985
828.298	25034
828.437	24973
828.577	24833
828.716	24996
828.855	24840
828.994	24627
829.134	24639
829.273	24700
829.412	24696
829.551	24646
829.69	24753
829.829	24639
829.968	24661
830.107	24707
830.246	24635
830.385	24578
830.524	24585
830.663	24566
830.802	24498
830.941	24315
831.08	24296
831.219	24308
831.357	24357
831.496	24540
831.635	24247
831.774	24197
831.913	24281
832.051	24083
832.19	24053
832.329	24167
832.467	23908
832.606	23756
832.744	23965
832.883	24018
833.022	23969
833.16	24136
833.299	24064
833.437	23996
833.576	24026
833.714	24125
833.852	24148
833.991	24163
834.129	24182
834.267	24140
834.406	24076
834.544	24197
834.682	24034
834.821	24018
834.959	24224
835.097	23920
835.235	24129
835.373	24053
835.511	24015
835.65	23851
835.788	23809
835.926	23798
836.064	23729
836.202	23786
836.34	23882
836.478	24015
836.615	23973
836.753	23961
836.891	23851
837.029	23977
837.167	23729
837.305	23699
837.443	23843
837.58	23703
837.718	23707
837.856	23813
837.993	23737
838.131	23611
838.269	23604
838.406	23687
838.544	23562
838.681	23364
838.819	23452
838.956	23254
839.094	23155
839.231	23292
839.369	23364
839.506	23562
839.643	23322
839.781	23193
839.918	23041
840.055	23170
840.193	23132
840.33	23090
840.467	23223
840.604	23052
840.742	23463
840.879	22885
841.016	23208
841.153	22991
841.29	23166
841.427	23109
841.564	23246
841.701	23098
841.838	23117
841.975	22942
842.112	23022
842.249	22873
842.385	22930
842.522	23121
842.659	22915
842.796	22801
842.933	22900
843.069	22771
843.206	22949
843.343	22934
843.479	22854
843.616	22892
843.752	22706
843.889	22672
844.025	22710
844.162	22706
844.298	22733
844.435	22653
844.571	22759
844.708	22584
844.844	22805
844.98	22668
845.117	22759
845.253	22645
845.389	22569
845.525	22626
845.661	22519
845.798	22428
845.934	22474
846.07	22379
846.206	22382
846.342	22470
846.478	22398
846.614	22139
846.75	21937
846.886	22238
847.022	22185
847.158	22207
847.294	22097
847.429	22124
847.565	21975
847.701	22394
847.837	21755
847.972	21873
848.108	21850
848.244	21972
848.379	21709
848.515	21739
848.65	21781
848.786	21690
848.921	21766
849.057	21682
849.192	21743
849.328	21717
849.463	21633
849.598	21644
849.734	21682
849.869	21553
850.004	21424
850.14	21572
850.275	21507
850.41	21374
850.545	21424
850.68	21534
850.815	21545
850.95	21504
851.085	21736
851.22	21568
851.355	21477
851.49	21462
851.625	21504
851.76	21492
851.895	21340
852.03	21393
852.165	21511
852.299	21443
852.434	21523
852.569	21500
852.703	21614
852.838	21519
852.973	21572
853.107	21542
853.242	21344
853.376	21370
853.511	21230
853.645	21230
853.78	21420
853.914	21272
854.048	21211
854.183	21222
854.317	21412
854.451	21435
854.585	21283
854.72	21291
854.854	21439
854.988	21157
855.122	21313
855.256	21146
855.39	21298
855.524	21329
855.658	21351
855.792	21310
855.926	21291
856.06	21370
856.194	21336
856.327	21192
856.461	21184
856.595	21291
856.729	21165
856.862	21355
856.996	21378
857.13	21355
857.263	21245
857.397	21408
857.53	21260
857.664	21275
857.797	21336
857.931	21363
858.064	21325
858.197	21344
858.331	21340
858.464	21237
858.597	21233
858.731	21310
858.864	21226
858.997	21203
859.13	21302
859.263	21241
859.396	21424
859.529	21241
859.662	21332
859.795	21199
859.928	21260
860.061	21431
860.194	21420
860.327	21310
860.46	21329
860.592	21447
860.725	21580
860.858	21443
860.99	21386
861.123	21241
861.256	21142
861.388	21332
861.521	21979
861.653	21165
861.786	20998
861.918	21047
862.05	21211
862.183	21256
862.315	21272
862.447	21344
862.58	21245
862.712	21108
862.844	20842
862.976	21020
863.108	21062
863.24	21477
863.372	20982
863.504	21055
863.636	20963
863.768	21058
863.9	21055
864.032	20933
864.164	20944
864.296	21005
864.428	21112
864.559	21036
864.691	21104
864.823	21036
864.954	20948
865.086	21058
865.217	20864
865.349	20830
865.48	20960
865.612	20929
865.743	20982
865.875	20971
866.006	20880
866.137	20918
866.269	20826
866.4	20975
866.531	20727
866.662	20750
866.793	20948
866.924	20910
867.055	20845
867.186	20902
867.317	20750
867.448	20731
867.579	20941
867.71	20769
867.841	20804
867.972	20830
868.103	20868
868.233	20819
868.364	20918
868.495	20990
868.625	21089
868.756	21169
868.886	20921
869.017	21005
869.147	21089
869.278	21123
869.408	21096
869.539	21055
869.669	21100
869.799	21081
869.929	21165
870.06	21176
870.19	21374
870.32	21336
870.45	21412
870.58	21496
870.71	21553
870.84	21481
870.97	21466
871.1	21313
871.23	21599
871.36	21557
871.489	21530
871.619	21641
871.749	21743
871.879	21675
872.008	21781
872.138	21595
872.267	21629
872.397	21488
872.526	21500
872.656	21542
872.785	21496
872.915	21709
873.044	21595
873.173	21637
873.303	21656
873.432	21713
873.561	21762
873.69	21747
873.819	21694
873.948	21724
874.077	21728
874.206	21751
874.335	21747
874.464	21865
874.593	21960
874.722	21983
874.851	21918
874.979	21934
875.108	21968
875.237	21972
875.365	21861
875.494	21987
875.623	21956
875.751	21865
875.88	21846
876.008	22051
876.136	22215
876.265	22295
876.393	22470
876.521	22470
876.65	22341
876.778	22398
876.906	22276
877.034	22303
877.162	22348
877.29	22200
877.418	22128
877.546	22356
877.674	22200
877.802	22192
877.93	22299
878.058	22230
878.185	22128
878.313	22169
878.441	22299
878.568	22070
878.696	22147
878.824	22207
878.951	22367
879.079	22462
879.206	22596
879.333	22367
879.461	22405
879.588	22295
879.715	22466
879.842	22493
879.97	22367
880.097	22086
880.224	22013
880.351	22010
880.478	22090
880.605	21975
880.732	22040
880.859	22344
880.986	22120
881.112	22090
881.239	21953
881.366	21831
881.493	21800
881.619	21705
881.746	21675
881.872	21682
881.999	21663
882.125	21644
882.252	21625
882.378	21705
882.505	21838
882.631	21557
882.757	21313
882.883	21363
883.01	21393
883.136	21287
883.262	21222
883.388	21058
883.514	21317
883.64	21420
883.766	21329
883.892	21089
884.018	21055
884.143	21317
884.269	21378
884.395	21020
884.52	20956
884.646	21062
884.772	20948
884.897	20868
885.023	20948
885.148	21089
885.274	21062
885.399	21077
885.524	21070
885.65	20994
885.775	20994
885.9	21055
886.025	21211
886.15	21055
886.275	21024
886.4	20937
886.525	20914
886.65	20971
886.775	20918
886.9	21036
887.025	21188
887.149	20960
887.274	20838
887.399	20834
887.523	20712
887.648	20667
887.773	20674
887.897	20758
888.021	20727
888.146	20682
888.27	20788
888.395	20838
888.519	20758
888.643	20834
888.767	20872
888.891	20579
889.015	20594
889.139	20625
889.263	20537
889.387	20655
889.511	20792
889.635	20705
889.759	20583
889.883	20469
890.006	20621
890.13	20659
890.254	20476
890.377	20446
890.501	20336
890.624	20225
890.748	20423
890.871	20168
890.995	20134
891.118	20221
891.241	20134
891.364	20092
891.488	20206
891.611	19989
891.734	20115
891.857	20122
891.98	20157
892.103	19997
892.226	20084
892.349	19898
892.471	19925
892.594	19978
892.717	20069
892.839	20050
892.962	20115
893.085	20092
893.207	19997
893.33	19856
893.452	19967
893.575	20115
893.697	19989
893.819	20248
893.941	20404
894.064	20263
894.186	19921
894.308	19917
894.43	20096
894.552	20271
894.674	20092
894.796	19925
894.918	19986
895.04	20001
895.161	20084
895.283	20138
895.405	20012
895.526	20035
895.648	20092
895.769	20008
895.891	20145
896.012	20084
896.134	20107
896.255	20020
896.376	20054
896.498	20046
896.619	20077
896.74	20145
896.861	20183
896.982	20377
897.103	20469
897.224	20259
897.345	20351
897.466	20195
897.587	20259
897.708	20434
897.828	20233
897.949	20187
898.07	20077
898.19	20153
898.311	20275
898.431	20161
898.552	20240
898.672	20225
898.792	20400
898.913	20313
899.033	20062
899.153	20073
899.273	19978
899.393	20111
899.513	20012
899.633	20046
899.753	20020
899.873	19970
899.993	20050
900.113	19970
900.232	19925
900.352	19921
900.472	19738
900.591	19719
900.711	19864
900.83	19666
900.95	19940
901.069	19849
901.189	19677
901.308	19563
901.427	19407
901.546	19331
901.665	19537
901.784	19308
901.904	19263
902.023	19133
902.141	19031
902.26	18814
902.379	18958
902.498	18863
902.617	18791
902.735	18916
902.854	18886
902.973	18757
903.091	18578
903.21	18563
903.328	18551
903.446	18445
903.565	18357
903.683	18456
903.801	18338
903.919	18315
904.038	18308
904.156	18163
904.274	18216
904.392	18079
904.51	18129
904.627	18121
904.745	18197
904.863	18083
904.981	17882
905.098	17870
905.216	17737
905.334	17786
905.451	17817
905.569	17714
905.686	17920
905.803	17756
905.921	17543
906.038	17619
906.155	17638
906.272	17543
906.389	17482
906.506	17505
906.623	17288
906.74	17284
906.857	17189
906.974	17246
907.091	17414
907.208	17440
907.324	17417
907.441	17235
907.557	17090
907.674	17045
907.79	16961
907.907	16995
908.023	17098
908.139	17041
908.256	16987
908.372	16923
908.488	16942
908.604	16850
908.72	16843
908.836	16835
908.952	16755
909.068	16828
909.184	16900
909.3	16869
909.415	16828
909.531	16771
909.647	16546
909.762	16542
909.878	16474
909.993	16538
910.108	16504
910.224	16379
910.339	16344
910.454	16276
910.57	16318
910.685	16257
910.8	16542
910.915	16390
911.03	16242
911.145	16215
911.259	16002
911.374	16173
911.489	15960
911.604	15964
911.718	15827
911.833	15846
911.947	15724
912.062	15614
912.176	15724
912.291	15850
912.405	15857
912.519	15979
912.633	16010
912.748	15869
912.862	15751
912.976	15637
913.09	15454
913.204	15561
913.318	15641
913.431	15705
913.545	15694
913.659	15709
913.772	15660
913.886	15374
914	15481
914.113	15515
914.226	15584
914.34	15500
914.453	15332
914.566	15515
914.68	15355
914.793	15252
914.906	15157
915.019	15028
915.132	14914
915.245	15081
915.358	15039
915.47	15028
915.583	15039
915.696	14971
915.809	15291
915.921	15138
916.034	14998
916.146	14963
916.259	15013
916.371	15039
916.483	14941
916.595	15058
916.708	14906
916.82	14815
916.932	14929
917.044	14667
917.156	14731
917.268	14693
917.38	14826
917.491	14712
917.603	14705
917.715	14743
917.826	14792
917.938	14659
918.049	14564
918.161	14689
918.272	14735
918.384	14792
918.495	14659
918.606	14533
918.717	14518
918.828	14556
918.939	14457
919.05	14393
919.161	14454
919.272	14199
919.383	14313
919.494	14533
919.604	14621
919.715	14366
919.826	14404
919.936	14336
920.047	14511
920.157	14393
920.267	14617
920.378	14450
920.488	14381
920.598	14552
920.708	14693
920.818	14518
920.928	14522
921.038	14785
921.148	14697
921.258	14374
921.368	14271
921.477	14119
921.587	14088
921.697	14058
921.806	14202
921.916	14016
922.025	13818
922.134	13715
922.244	13780
922.353	13890
922.462	13704
922.571	13563
922.68	13529
922.789	13419
922.898	13521
923.007	13403
923.116	13457
923.224	13407
923.333	13491
923.442	13316
923.55	13225
923.659	13316
923.767	13343
923.876	13301
923.984	13274
924.092	13183
924.201	13297
924.309	13141
924.417	13289
924.525	13031
924.633	13038
924.741	14005
924.849	12916
924.956	12996
925.064	12981
925.172	12833
925.279	12905
925.387	12913
925.494	12859
925.602	12996
925.709	12947
925.816	12749
925.924	12825
926.031	12913
926.138	12905
926.245	12848
926.352	12722
926.459	12814
926.566	12837
926.673	12700
926.779	12639
926.886	12646
926.993	12532
927.099	12486
927.206	12376
927.312	12342
927.419	12547
927.525	12460
927.631	12467
927.737	12380
927.843	12357
927.95	12289
928.056	12254
928.162	12266
928.267	12330
928.373	12791
928.479	12327
928.585	12125
928.69	12228
928.796	12285
928.901	12121
929.007	11992
929.112	12152
929.218	12095
929.323	11977
929.428	11935
929.533	12148
929.638	11958
929.743	11935
929.848	11999
929.953	11885
930.058	11802
930.163	11570
930.267	11733
930.372	11779
930.477	11596
930.581	11950
930.685	11703
930.79	11611
930.894	11543
930.998	11528
931.103	11737
931.207	11326
931.311	11235
931.415	11132
931.519	10957
931.623	10957
