Data from test_V78500241_3137.txt Node
Date: Fri Mar 25 15:31:42 CST 2022
User: usil
Spectrometer: V785-0024
Trigger mode: 0
Integration Time (sec): 4.000000E-1
Scans to average: 1
Nonlinearity correction enabled: false
Boxcar width: 0
Storing dark spectrum: false
XAxis mode: Wavelengths
Number of Pixels in Spectrum: 1024
>>>>>Begin Spectral Data<<<<<
801.071	27127
801.214	27154
801.356	26800
801.499	26682
801.641	26625
801.783	26678
801.926	26674
802.068	26727
802.211	26609
802.353	26571
802.496	26453
802.638	26374
802.78	26393
802.923	26134
803.065	26164
803.208	26191
803.35	26298
803.492	26336
803.635	26408
803.777	26282
803.919	26473
804.061	26773
804.204	26476
804.346	26355
804.488	26275
804.63	26434
804.773	26343
804.915	26271
805.057	26431
805.199	26385
805.341	26511
805.483	26518
805.626	26473
805.768	26366
805.91	26442
806.052	26606
806.194	26461
806.336	26746
806.478	26606
806.62	26434
806.762	26636
806.904	26788
807.046	27077
807.188	26933
807.33	26933
807.472	26971
807.614	26940
807.756	26834
807.898	26727
808.04	26659
808.182	26670
808.324	26762
808.465	26792
808.607	27081
808.749	27112
808.891	27150
809.033	27233
809.174	27070
809.316	27055
809.458	27047
809.6	27062
809.741	27165
809.883	27173
810.025	27287
810.166	27431
810.308	27374
810.45	27272
810.591	27249
810.733	27146
810.875	27089
811.016	27127
811.158	26876
811.299	27264
811.441	27416
811.582	27180
811.724	27135
811.865	27100
812.007	27024
812.148	27062
812.29	27116
812.431	27192
812.573	27420
812.714	27427
812.855	27500
812.997	27720
813.138	27724
813.279	27728
813.421	27641
813.562	27568
813.703	27332
813.845	27367
813.986	27169
814.127	26902
814.268	26750
814.41	26731
814.551	26819
814.692	26849
814.833	26739
814.974	26720
815.115	26792
815.256	26632
815.397	26697
815.539	26613
815.68	26537
815.821	26377
815.962	26522
816.103	26492
816.244	26476
816.385	26317
816.526	26267
816.666	26153
816.807	26054
816.948	26153
817.089	26050
817.23	25982
817.371	25944
817.512	26058
817.653	25966
817.793	25890
817.934	25852
818.075	26096
818.216	26031
818.356	26001
818.497	25795
818.638	25830
818.778	25784
818.919	25807
819.06	25856
819.2	25830
819.341	25849
819.481	25966
819.622	25989
819.762	26446
819.903	26282
820.043	26218
820.184	26191
820.324	26191
820.465	26256
820.605	26172
820.746	26096
820.886	25982
821.026	26050
821.167	26119
821.307	26096
821.447	25837
821.588	25974
821.728	25712
821.868	25696
822.008	25578
822.149	25594
822.289	25441
822.429	25293
822.569	25088
822.709	25213
822.849	25042
822.99	25015
823.13	24935
823.27	24806
823.41	24795
823.55	24760
823.69	24821
823.83	24878
823.97	24741
824.11	24555
824.25	24559
824.389	24642
824.529	24700
824.669	24642
824.809	24627
824.949	24650
825.089	24677
825.228	24604
825.368	24479
825.508	24483
825.648	24384
825.787	24513
825.927	24525
826.067	24479
826.206	24513
826.346	24509
826.485	24445
826.625	24486
826.765	24654
826.904	24505
827.044	24232
827.183	24216
827.323	24053
827.462	24239
827.601	24205
827.741	24262
827.88	24296
828.02	23996
828.159	24243
828.298	24076
828.437	24171
828.577	24174
828.716	24346
828.855	24030
828.994	23927
829.134	23939
829.273	23843
829.412	23878
829.551	23866
829.69	23863
829.829	23794
829.968	23999
830.107	24064
830.246	23908
830.385	23935
830.524	23764
830.663	23695
830.802	23710
830.941	23505
831.08	23440
831.219	23497
831.357	23657
831.496	23760
831.635	23547
831.774	23471
831.913	23322
832.051	23299
832.19	23280
832.329	23288
832.467	23155
832.606	23166
832.744	23208
832.883	23060
833.022	23170
833.16	23109
833.299	23258
833.437	23197
833.576	23341
833.714	23178
833.852	23242
833.991	23303
834.129	23368
834.267	23349
834.406	23189
834.544	23242
834.682	23204
834.821	23200
834.959	23288
835.097	23159
835.235	23421
835.373	23155
835.511	23284
835.65	23044
835.788	23075
835.926	23071
836.064	22934
836.202	22946
836.34	23200
836.478	23166
836.615	22999
836.753	23109
836.891	23075
837.029	23041
837.167	23048
837.305	23006
837.443	22968
837.58	22820
837.718	23025
837.856	22904
837.993	22877
838.131	22896
838.269	22782
838.406	22850
838.544	22786
838.681	22557
838.819	22569
838.956	22367
839.094	22417
839.231	22481
839.369	22637
839.506	22771
839.643	22763
839.781	22485
839.918	22363
840.055	22519
840.193	22310
840.33	22314
840.467	22417
840.604	22363
840.742	22542
840.879	22303
841.016	22265
841.153	22128
841.29	22451
841.427	22352
841.564	22360
841.701	22462
841.838	22272
841.975	22310
842.112	22257
842.249	22261
842.385	22219
842.522	22314
842.659	22238
842.796	22177
842.933	22139
843.069	21979
843.206	21987
843.343	22162
843.479	22097
843.616	22055
843.752	21854
843.889	21819
844.025	22021
844.162	21800
844.298	21972
844.435	21926
844.571	21827
844.708	21975
844.844	21937
844.98	21987
845.117	21937
845.253	21922
845.389	21812
845.525	21747
845.661	21812
845.798	21610
845.934	21705
846.07	21663
846.206	21618
846.342	21724
846.478	21648
846.614	21408
846.75	21218
846.886	21298
847.022	21260
847.158	21374
847.294	21348
847.429	21538
847.565	21336
847.701	21717
847.837	21123
847.972	21055
848.108	21256
848.244	21127
848.379	21020
848.515	21009
848.65	20895
848.786	20937
848.921	20979
849.057	20982
849.192	21055
849.328	20979
849.463	20925
849.598	20918
849.734	20880
849.869	20845
850.004	20724
850.14	20743
850.275	20739
850.41	20651
850.545	20590
850.68	20705
850.815	20754
850.95	20765
851.085	20956
851.22	20842
851.355	20727
851.49	20769
851.625	20712
851.76	20800
851.895	20621
852.03	20632
852.165	20826
852.299	20644
852.434	20815
852.569	20777
852.703	20678
852.838	20667
852.973	20838
853.107	20769
853.242	20720
853.376	20507
853.511	20564
853.645	20522
853.78	20670
853.914	20583
854.048	20499
854.183	20454
854.317	20629
854.451	20705
854.585	20526
854.72	20480
854.854	20659
854.988	20545
855.122	20457
855.256	20503
855.39	20541
855.524	20583
855.658	20564
855.792	20571
855.926	20545
856.06	20560
856.194	20590
856.327	20480
856.461	20499
856.595	20537
856.729	20537
856.862	20602
856.996	20625
857.13	20636
857.263	20693
857.397	20533
857.53	20537
857.664	20594
857.797	20739
857.931	20735
858.064	20564
858.197	20632
858.331	20507
858.464	20495
858.597	20469
858.731	20549
858.864	20564
858.997	20537
859.13	20659
859.263	20575
859.396	20629
859.529	20549
859.662	20495
859.795	20492
859.928	20541
860.061	20800
860.194	20796
860.327	20606
860.46	20575
860.592	20625
860.725	20765
860.858	20670
860.99	20590
861.123	20549
861.256	20518
861.388	20583
861.521	21226
861.653	20355
861.786	20328
861.918	20381
862.05	20454
862.183	20541
862.315	20571
862.447	20495
862.58	20446
862.712	20294
862.844	20275
862.976	20309
863.108	20358
863.24	20613
863.372	20271
863.504	20320
863.636	20301
863.768	20442
863.9	20225
864.032	20122
864.164	20214
864.296	20256
864.428	20381
864.559	20252
864.691	20317
864.823	20225
864.954	20164
865.086	20298
865.217	20164
865.349	20058
865.48	20065
865.612	20149
865.743	20374
865.875	20267
866.006	20218
866.137	20202
866.269	20161
866.4	20149
866.531	20138
866.662	19993
866.793	20096
866.924	20153
867.055	20111
867.186	20084
867.317	20145
867.448	20043
867.579	20031
867.71	20001
867.841	19925
867.972	20103
868.103	20062
868.233	20088
868.364	20005
868.495	20275
868.625	20358
868.756	20476
868.886	20176
869.017	20415
869.147	20454
869.278	20419
869.408	20362
869.539	20347
869.669	20507
869.799	20377
869.929	20484
870.06	20503
870.19	20731
870.32	20636
870.45	20686
870.58	20727
870.71	20804
870.84	20826
870.97	20834
871.1	20754
871.23	20944
871.36	21089
871.489	20952
871.619	20937
871.749	21005
871.879	21024
872.008	21074
872.138	21043
872.267	20906
872.397	20883
872.526	20754
872.656	20887
872.785	20678
872.915	20948
873.044	21100
873.173	20982
873.303	20952
873.432	21066
873.561	21230
873.69	20910
873.819	20944
873.948	20948
874.077	20948
874.206	20872
874.335	20963
874.464	21077
874.593	21211
874.722	21112
874.851	21176
874.979	21275
875.108	21241
875.237	21165
875.365	21131
875.494	21252
875.623	21283
875.751	21131
875.88	21363
876.008	21363
876.136	21485
876.265	21561
876.393	21800
876.521	21816
876.65	21797
876.778	21686
876.906	21629
877.034	21564
877.162	21739
877.29	21530
877.418	21580
877.546	21542
877.674	21515
877.802	21618
877.93	21523
878.058	21629
878.185	21454
878.313	21523
878.441	21534
878.568	21359
878.696	21485
878.824	21686
878.951	21576
879.079	21686
879.206	21926
879.333	21770
879.461	21583
879.588	21713
879.715	21705
879.842	21762
879.97	21717
880.097	21431
880.224	21500
880.351	21473
880.478	21557
880.605	21428
880.732	21321
880.859	21709
880.986	21424
881.112	21348
881.239	21317
881.366	21188
881.493	21066
881.619	20944
881.746	20963
881.872	20937
881.999	21032
882.125	20887
882.252	21009
882.378	20929
882.505	21058
882.631	20773
882.757	20735
882.883	20788
883.01	20663
883.136	20583
883.262	20621
883.388	20594
883.514	20689
883.64	20750
883.766	20655
883.892	20480
884.018	20495
884.143	20697
884.269	20644
884.395	20461
884.52	20339
884.646	20400
884.772	20332
884.897	20214
885.023	20446
885.148	20465
885.274	20442
885.399	20415
885.524	20225
885.65	20431
885.775	20381
885.9	20358
886.025	20381
886.15	20332
886.275	20358
886.4	20210
886.525	20366
886.65	20256
886.775	20218
886.9	20404
887.025	20514
887.149	20237
887.274	20058
887.399	20103
887.523	20149
887.648	20092
887.773	20027
887.897	20157
888.021	20157
888.146	20153
888.27	20126
888.395	20149
888.519	20168
888.643	20096
888.767	20309
888.891	19989
889.015	19909
889.139	19951
889.263	19997
889.387	19997
889.511	20142
889.635	20100
889.759	19887
889.883	19944
890.006	19917
890.13	19997
890.254	19811
890.377	19852
890.501	19727
890.624	19780
890.748	19852
890.871	19559
890.995	19658
891.118	19426
891.241	19594
891.364	19506
891.488	19696
891.611	19438
891.734	19559
891.857	19597
891.98	19559
892.103	19483
892.226	19510
892.349	19343
892.471	19358
892.594	19445
892.717	19388
892.839	19377
892.962	19582
893.085	19362
893.207	19430
893.33	19289
893.452	19343
893.575	19441
893.697	19304
893.819	19594
893.941	19590
894.064	19575
894.186	19331
894.308	19403
894.43	19594
894.552	19556
894.674	19578
894.796	19327
894.918	19308
895.04	19491
895.161	19571
895.283	19563
895.405	19365
895.526	19578
895.648	19453
895.769	19510
895.891	19476
896.012	19529
896.134	19518
896.255	19400
896.376	19521
896.498	19445
896.619	19476
896.74	19441
896.861	19529
896.982	19826
897.103	19989
897.224	19685
897.345	19620
897.466	19582
897.587	19655
897.708	19826
897.828	19723
897.949	19609
898.07	19468
898.19	19567
898.311	19814
898.431	19616
898.552	19575
898.672	19708
898.792	19849
898.913	19693
899.033	19495
899.153	19556
899.273	19438
899.393	19476
899.513	19457
899.633	19407
899.753	19491
899.873	19346
899.993	19514
900.113	19400
900.232	19354
900.352	19350
900.472	19251
900.591	19320
900.711	19236
900.83	19133
900.95	19251
901.069	19335
901.189	19034
901.308	18920
901.427	18798
901.546	18913
901.665	18875
901.784	18760
901.904	18684
902.023	18589
902.141	18369
902.26	18407
902.379	18319
902.498	18254
902.617	18201
902.735	18361
902.854	18239
902.973	18159
903.091	18163
903.21	18057
903.328	18114
903.446	18026
903.565	17817
903.683	17821
903.801	17718
903.919	17767
904.038	17847
904.156	17691
904.274	17707
904.392	17623
904.51	17532
904.627	17474
904.745	17592
904.863	17657
904.981	17463
905.098	17326
905.216	17326
905.334	17254
905.451	17318
905.569	17261
905.686	17277
905.803	17242
905.921	17094
906.038	17071
906.155	17075
906.272	16968
906.389	17083
906.506	16801
906.623	16873
906.74	16801
906.857	16706
906.974	16702
907.091	16801
907.208	16927
907.324	16828
907.441	16660
907.557	16656
907.674	16466
907.79	16508
907.907	16371
908.023	16542
908.139	16558
908.256	16546
908.372	16462
908.488	16440
908.604	16295
908.72	16154
908.836	16306
908.952	16253
909.068	16223
909.184	16363
909.3	16257
909.415	16211
909.531	16207
909.647	15918
909.762	16006
909.878	15869
909.993	16021
910.108	15987
910.224	15953
910.339	15956
910.454	15869
910.57	15751
910.685	15690
910.8	16071
910.915	15873
911.03	15816
911.145	15648
911.259	15466
911.374	15572
911.489	15538
911.604	15557
911.718	15291
911.833	15416
911.947	15287
912.062	15211
912.176	15344
912.291	15344
912.405	15408
912.519	15481
912.633	15587
912.748	15481
912.862	15359
912.976	15093
913.09	15131
913.204	15097
913.318	15154
913.431	15306
913.545	15214
913.659	15230
913.772	15176
913.886	14967
914	14819
914.113	15024
914.226	15188
914.34	15009
914.453	14906
914.566	15032
914.68	14834
914.793	14823
914.906	14663
915.019	14556
915.132	14564
915.245	14511
915.358	14598
915.47	14632
915.583	14651
915.696	14587
915.809	14682
915.921	14792
916.034	14541
916.146	14495
916.259	14412
916.371	14651
916.483	14556
916.595	14412
916.708	14393
916.82	14381
916.932	14446
917.044	14400
917.156	14427
917.268	14233
917.38	14256
917.491	14126
917.603	14168
917.715	14317
917.826	14351
917.938	14206
918.049	14153
918.161	14263
918.272	14336
918.384	14381
918.495	14183
918.606	14035
918.717	13917
918.828	14107
918.939	14084
919.05	13932
919.161	13944
919.272	13807
919.383	13906
919.494	14088
919.604	14164
919.715	14065
919.826	13856
919.936	14027
920.047	14126
920.157	14046
920.267	14263
920.378	14062
920.488	13906
920.598	14199
920.708	14191
920.818	14153
920.928	14180
921.038	14271
921.148	14278
921.258	13890
921.368	13860
921.477	13795
921.587	13731
921.697	13616
921.806	13765
921.916	13578
922.025	13483
922.134	13518
922.244	13365
922.353	13525
922.462	13350
922.571	13187
922.68	13175
922.789	13065
922.898	13038
923.007	13042
923.116	13080
923.224	12970
923.333	13042
923.442	12878
923.55	12894
923.659	12905
923.767	12993
923.876	12810
923.984	12954
924.092	12840
924.201	12783
924.309	12901
924.417	12734
924.525	12700
924.633	12707
924.741	13601
924.849	12597
924.956	12631
925.064	12528
925.172	12372
925.279	12479
925.387	12494
925.494	12448
925.602	12616
925.709	12593
925.816	12391
925.924	12471
926.031	12620
926.138	12437
926.245	12521
926.352	12403
926.459	12437
926.566	12521
926.673	12380
926.779	12266
926.886	12311
926.993	12178
927.099	12072
927.206	12019
927.312	12083
927.419	12114
927.525	12087
927.631	12159
927.737	11912
927.843	11935
927.95	11790
928.056	11904
928.162	11897
928.267	11942
928.373	12635
928.479	11935
928.585	11741
928.69	11813
928.796	11950
928.901	11729
929.007	11691
929.112	11703
929.218	11798
929.323	11691
929.428	11634
929.533	11752
929.638	11653
929.743	11596
929.848	11649
929.953	11615
930.058	11543
930.163	11391
930.267	11398
930.372	11501
930.477	11269
930.581	11566
930.685	11349
930.79	11303
930.894	11208
930.998	11242
931.103	11337
931.207	11037
931.311	10900
931.415	10778
931.519	10637
931.623	10687
