Data from test_V78500241_535.txt Node
Date: Fri Mar 25 15:13:35 CST 2022
User: usil
Spectrometer: V785-0024
Trigger mode: 0
Integration Time (sec): 4.000000E-1
Scans to average: 1
Nonlinearity correction enabled: false
Boxcar width: 0
Storing dark spectrum: false
XAxis mode: Wavelengths
Number of Pixels in Spectrum: 1024
>>>>>Begin Spectral Data<<<<<
801.071	27378
801.214	27230
801.356	27116
801.499	27043
801.641	26811
801.783	26960
801.926	27100
802.068	26705
802.211	26906
802.353	26648
802.496	26484
802.638	26556
802.78	26522
802.923	26579
803.065	26583
803.208	26556
803.35	26545
803.492	26773
803.635	26655
803.777	26564
803.919	26644
804.061	26925
804.204	26720
804.346	26659
804.488	26526
804.63	26636
804.773	26499
804.915	26693
805.057	26697
805.199	26629
805.341	26667
805.483	26834
805.626	26708
805.768	26842
805.91	26804
806.052	26735
806.194	26796
806.336	27077
806.478	26834
806.62	26708
806.762	26868
806.904	27146
807.046	27378
807.188	27203
807.33	27306
807.472	27389
807.614	27214
807.756	27294
807.898	27093
808.04	26990
808.182	27055
808.324	27020
808.465	27058
808.607	27268
808.749	27401
808.891	27534
809.033	27587
809.174	27485
809.316	27477
809.458	27443
809.6	27310
809.741	27363
809.883	27553
810.025	27690
810.166	27622
810.308	27770
810.45	27591
810.591	27561
810.733	27454
810.875	27466
811.016	27291
811.158	27230
811.299	27545
811.441	27572
811.582	27557
811.724	27374
811.865	27367
812.007	27389
812.148	27317
812.29	27439
812.431	27679
812.573	27785
812.714	27876
812.855	27918
812.997	27968
813.138	28188
813.279	28093
813.421	28017
813.562	27895
813.703	27819
813.845	27762
813.986	27462
814.127	27184
814.268	27036
814.41	27135
814.551	27119
814.692	27184
814.833	27043
814.974	27104
815.115	27051
815.256	26929
815.397	26986
815.539	27001
815.68	26956
815.821	26762
815.962	26720
816.103	26807
816.244	26765
816.385	26678
816.526	26583
816.666	26438
816.807	26328
816.948	26419
817.089	26644
817.23	26370
817.371	26419
817.512	26347
817.653	26400
817.793	26309
817.934	26507
818.075	26244
818.216	26278
818.356	26355
818.497	26145
818.638	26180
818.778	26062
818.919	26088
819.06	26317
819.2	26210
819.341	26415
819.481	26248
819.622	26446
819.762	26648
819.903	26503
820.043	26541
820.184	26484
820.324	26556
820.465	26651
820.605	26537
820.746	26362
820.886	26332
821.026	26396
821.167	26492
821.307	26453
821.447	26442
821.588	26427
821.728	26119
821.868	26115
822.008	25811
822.149	25753
822.289	25746
822.429	25601
822.569	25495
822.709	25487
822.849	25388
822.99	25373
823.13	25324
823.27	25274
823.41	25122
823.55	25057
823.69	25080
823.83	25072
823.97	25076
824.11	24935
824.25	24787
824.389	24935
824.529	25031
824.669	24863
824.809	25213
824.949	25156
825.089	25168
825.228	24958
825.368	24829
825.508	24905
825.648	24840
825.787	24848
825.927	24878
826.067	24856
826.206	24848
826.346	24924
826.485	24882
826.625	24810
826.765	25057
826.904	24798
827.044	24673
827.183	24730
827.323	24563
827.462	24692
827.601	24582
827.741	24601
827.88	24684
828.02	24361
828.159	24490
828.298	24589
828.437	24555
828.577	24464
828.716	24654
828.855	24460
828.994	24251
829.134	24174
829.273	24422
829.412	24334
829.551	24232
829.69	24281
829.829	24251
829.968	24308
830.107	24258
830.246	24308
830.385	24114
830.524	24228
830.663	24140
830.802	24030
830.941	23790
831.08	23855
831.219	23950
831.357	24030
831.496	24053
831.635	23942
831.774	23699
831.913	23764
832.051	23756
832.19	23668
832.329	23786
832.467	23619
832.606	23501
832.744	23433
832.883	23535
833.022	23410
833.16	23581
833.299	23528
833.437	23630
833.576	23627
833.714	23627
833.852	23726
833.991	23665
834.129	23752
834.267	23630
834.406	23649
834.544	23585
834.682	23611
834.821	23596
834.959	23775
835.097	23570
835.235	23604
835.373	23577
835.511	23729
835.65	23490
835.788	23505
835.926	23402
836.064	23318
836.202	23372
836.34	23383
836.478	23539
836.615	23452
836.753	23459
836.891	23714
837.029	23395
837.167	23478
837.305	23303
837.443	23193
837.58	23307
837.718	23261
837.856	23322
837.993	23311
838.131	23261
838.269	23193
838.406	23277
838.544	23166
838.681	22953
838.819	22858
838.956	22763
839.094	22687
839.231	22778
839.369	22995
839.506	23193
839.643	23052
839.781	22790
839.918	22850
840.055	22786
840.193	22809
840.33	22706
840.467	22782
840.604	22721
840.742	23025
840.879	22618
841.016	22607
841.153	22645
841.29	22774
841.427	22698
841.564	22801
841.701	22675
841.838	22607
841.975	22603
842.112	22538
842.249	22531
842.385	22466
842.522	22713
842.659	22542
842.796	22527
842.933	22584
843.069	22318
843.206	22363
843.343	22622
843.479	22519
843.616	22424
843.752	22226
843.889	22124
844.025	22382
844.162	22207
844.298	22295
844.435	22166
844.571	22185
844.708	22314
844.844	22489
844.98	22166
845.117	22329
845.253	22097
845.389	22124
845.525	22101
845.661	22036
845.798	22025
845.934	22029
846.07	21964
846.206	22078
846.342	22135
846.478	22032
846.614	21667
846.75	21633
846.886	21641
847.022	21686
847.158	21774
847.294	21690
847.429	21789
847.565	21633
847.701	21991
847.837	21538
847.972	21481
848.108	21580
848.244	21542
848.379	21348
848.515	21283
848.65	21241
848.786	21298
848.921	21397
849.057	21367
849.192	21348
849.328	21173
849.463	21332
849.598	21348
849.734	21188
849.869	21192
850.004	21051
850.14	21226
850.275	21058
850.41	21036
850.545	20998
850.68	20941
850.815	21108
850.95	21104
851.085	21226
851.22	21199
851.355	21096
851.49	21207
851.625	21135
851.76	21062
851.895	20895
852.03	20979
852.165	20933
852.299	21009
852.434	21184
852.569	21192
852.703	21055
852.838	21051
852.973	21184
853.107	21245
853.242	21116
853.376	20941
853.511	20857
853.645	20788
853.78	20975
853.914	20971
854.048	20967
854.183	20849
854.317	20960
854.451	21093
854.585	20842
854.72	20986
854.854	20921
854.988	20830
855.122	20899
855.256	20880
855.39	20872
855.524	21039
855.658	20971
855.792	20933
855.926	20899
856.06	21020
856.194	21062
856.327	20891
856.461	20823
856.595	20773
856.729	20918
856.862	21024
856.996	20899
857.13	20830
857.263	21157
857.397	20998
857.53	20807
857.664	21017
857.797	21039
857.931	20918
858.064	20979
858.197	20910
858.331	20861
858.464	20773
858.597	20769
858.731	20773
858.864	20807
858.997	20773
859.13	20986
859.263	20842
859.396	20952
859.529	20883
859.662	20906
859.795	20804
859.928	20883
860.061	20971
860.194	21070
860.327	20853
860.46	20918
860.592	20971
860.725	21005
860.858	21009
860.99	20902
861.123	20826
861.256	20838
861.388	20906
861.521	21622
861.653	20682
861.786	20663
861.918	20640
862.05	20777
862.183	20796
862.315	20864
862.447	20899
862.58	20811
862.712	20644
862.844	20606
862.976	20705
863.108	20659
863.24	21005
863.372	20625
863.504	20560
863.636	20655
863.768	20644
863.9	20571
864.032	20568
864.164	20667
864.296	20640
864.428	20621
864.559	20629
864.691	20739
864.823	20579
864.954	20560
865.086	20575
865.217	20560
865.349	20419
865.48	20549
865.612	20583
865.743	20667
865.875	20332
866.006	20419
866.137	20495
866.269	20533
866.4	20602
866.531	20503
866.662	20374
866.793	20423
866.924	20518
867.055	20514
867.186	20404
867.317	20507
867.448	20278
867.579	20415
867.71	20370
867.841	20419
867.972	20511
868.103	20450
868.233	20511
868.364	20499
868.495	20537
868.625	20769
868.756	20743
868.886	20583
869.017	20708
869.147	20769
869.278	20743
869.408	20804
869.539	20701
869.669	20743
869.799	20682
869.929	20758
870.06	20842
870.19	20941
870.32	20998
870.45	21039
870.58	21077
870.71	21203
870.84	21138
870.97	21119
871.1	21070
871.23	21256
871.36	21214
871.489	21161
871.619	21275
871.749	21249
871.879	21321
872.008	21344
872.138	21249
872.267	21260
872.397	21096
872.526	21024
872.656	21165
872.785	21154
872.915	21332
873.044	21405
873.173	21131
873.303	21294
873.432	21291
873.561	21218
873.69	21291
873.819	21306
873.948	21408
874.077	21256
874.206	21310
874.335	21393
874.464	21408
874.593	21496
874.722	21454
874.851	21488
874.979	21606
875.108	21507
875.237	21477
875.365	21435
875.494	21469
875.623	21587
875.751	21523
875.88	21583
876.008	21846
876.136	21652
876.265	21994
876.393	22025
876.521	21941
876.65	22044
876.778	21994
876.906	21850
877.034	21922
877.162	21941
877.29	21808
877.418	21857
877.546	21937
877.674	21850
877.802	21892
877.93	21895
878.058	21941
878.185	21930
878.313	21827
878.441	21865
878.568	21709
878.696	21823
878.824	21930
878.951	21861
879.079	22002
879.206	22204
879.333	22013
879.461	21911
879.588	21930
879.715	22055
879.842	22261
879.97	21876
880.097	21663
880.224	21720
880.351	21667
880.478	21762
880.605	21778
880.732	21625
880.859	22109
880.986	21724
881.112	21610
881.239	21606
881.366	21492
881.493	21332
881.619	21355
881.746	21386
881.872	21302
881.999	21306
882.125	21112
882.252	21252
882.378	21249
882.505	21473
882.631	21127
882.757	21043
882.883	21123
883.01	21036
883.136	21047
883.262	20823
883.388	20864
883.514	20960
883.64	21051
883.766	20910
883.892	20899
884.018	20883
884.143	20967
884.269	21051
884.395	20750
884.52	20743
884.646	20678
884.772	20560
884.897	20537
885.023	20587
885.148	20655
885.274	20815
885.399	20708
885.524	20667
885.65	20762
885.775	20686
885.9	20632
886.025	20716
886.15	20693
886.275	20674
886.4	20552
886.525	20697
886.65	20511
886.775	20564
886.9	20765
887.025	20944
887.149	20640
887.274	20473
887.399	20454
887.523	20469
887.648	20298
887.773	20290
887.897	20480
888.021	20450
888.146	20393
888.27	20442
888.395	20484
888.519	20507
888.643	20446
888.767	20488
888.891	20412
889.015	20282
889.139	20336
889.263	20237
889.387	20282
889.511	20438
889.635	20267
889.759	20294
889.883	20187
890.006	20252
890.13	20343
890.254	20096
890.377	20096
890.501	20027
890.624	19967
890.748	20103
890.871	19955
890.995	19765
891.118	19826
891.241	19757
891.364	19742
891.488	20046
891.611	19750
891.734	19799
891.857	19887
891.98	19826
892.103	19788
892.226	19685
892.349	19772
892.471	19518
892.594	19700
892.717	19734
892.839	19719
892.962	19662
893.085	19791
893.207	19750
893.33	19567
893.452	19548
893.575	19704
893.697	19563
893.819	19803
893.941	19818
894.064	19814
894.186	19662
894.308	19712
894.43	19696
894.552	19822
894.674	19761
894.796	19533
894.918	19731
895.04	19616
895.161	19750
895.283	19639
895.405	19620
895.526	19586
895.648	19632
895.769	19753
895.891	19662
896.012	19685
896.134	19837
896.255	19685
896.376	19666
896.498	19715
896.619	19734
896.74	19700
896.861	19799
896.982	19989
897.103	20183
897.224	19986
897.345	19986
897.466	19856
897.587	19871
897.708	20024
897.828	19993
897.949	19894
898.07	19761
898.19	19856
898.311	19959
898.431	19822
898.552	19898
898.672	20005
898.792	19890
898.913	19963
899.033	19776
899.153	19822
899.273	19632
899.393	19795
899.513	19769
899.633	19662
899.753	19757
899.873	19685
899.993	19734
900.113	19689
900.232	19597
900.352	19495
900.472	19567
900.591	19487
900.711	19499
900.83	19285
900.95	19510
901.069	19510
901.189	19358
901.308	19156
901.427	18970
901.546	19042
901.665	19126
901.784	19110
901.904	18935
902.023	18897
902.141	18703
902.26	18768
902.379	18623
902.498	18589
902.617	18582
902.735	18654
902.854	18544
902.973	18631
903.091	18273
903.21	18247
903.328	18247
903.446	18155
903.565	18041
903.683	18030
903.801	17908
903.919	17923
904.038	17965
904.156	17832
904.274	17870
904.392	17809
904.51	17798
904.627	17874
904.745	17863
904.863	17904
904.981	17687
905.098	17524
905.216	17547
905.334	17516
905.451	17505
905.569	17471
905.686	17547
905.803	17402
905.921	17398
906.038	17398
906.155	17349
906.272	17250
906.389	17322
906.506	17185
906.623	17132
906.74	17025
906.857	16995
906.974	16957
907.091	17048
907.208	17117
907.324	17098
907.441	16961
907.557	16812
907.674	16801
907.79	16672
907.907	16717
908.023	16812
908.139	16778
908.256	16733
908.372	16713
908.488	16607
908.604	16398
908.72	16535
908.836	16493
908.952	16428
909.068	16523
909.184	16519
909.3	16398
909.415	16462
909.531	16432
909.647	16268
909.762	16200
909.878	16249
909.993	16246
910.108	16185
910.224	16219
910.339	16112
910.454	16036
910.57	15994
910.685	16063
910.8	16150
910.915	16177
911.03	16006
911.145	15838
911.259	15842
911.374	15865
911.489	15720
911.604	15679
911.718	15557
911.833	15553
911.947	15443
912.062	15408
912.176	15572
912.291	15606
912.405	15496
912.519	15808
912.633	15641
912.748	15561
912.862	15523
912.976	15363
913.09	15294
913.204	15294
913.318	15355
913.431	15431
913.545	15511
913.659	15526
913.772	15374
913.886	15207
914	15184
914.113	15214
914.226	15313
914.34	15336
914.453	15135
914.566	15260
914.68	15173
914.793	15062
914.906	14838
915.019	14872
915.132	14750
915.245	14845
915.358	14804
915.47	14834
915.583	14811
915.696	14804
915.809	14948
915.921	14967
916.034	14750
916.146	14739
916.259	14712
916.371	14724
916.483	14720
916.595	14678
916.708	14587
916.82	14590
916.932	14632
917.044	14606
917.156	14533
917.268	14427
917.38	14492
917.491	14457
917.603	14507
917.715	14522
917.826	14514
917.938	14339
918.049	14328
918.161	14343
918.272	14492
918.384	14507
918.495	14461
918.606	14233
918.717	14183
918.828	14313
918.939	14187
919.05	14130
919.161	14237
919.272	14043
919.383	14100
919.494	14339
919.604	14461
919.715	14233
919.826	14248
919.936	14225
920.047	14244
920.157	14191
920.267	14495
920.378	14187
920.488	14195
920.598	14454
920.708	14552
920.818	14305
920.928	14332
921.038	14492
921.148	14469
921.258	14111
921.368	14031
921.477	13936
921.587	13974
921.697	13909
921.806	13982
921.916	13780
922.025	13704
922.134	13537
922.244	13495
922.353	13571
922.462	13533
922.571	13403
922.68	13289
922.789	13194
922.898	13278
923.007	13164
923.116	13297
923.224	13285
923.333	13213
923.442	12973
923.55	13057
923.659	13072
923.767	13213
923.876	12970
923.984	13023
924.092	12958
924.201	13057
924.309	12958
924.417	13004
924.525	12928
924.633	12989
924.741	13731
924.849	12635
924.956	12897
925.064	12722
925.172	12547
925.279	12673
925.387	12776
925.494	12642
925.602	12795
925.709	12696
925.816	12544
925.924	12741
926.031	12669
926.138	12658
926.245	12650
926.352	12536
926.459	12722
926.566	12677
926.673	12608
926.779	12456
926.886	12342
926.993	12216
927.099	12243
927.206	12178
927.312	12239
927.419	12273
927.525	12232
927.631	12266
927.737	12102
927.843	12060
927.95	11904
928.056	12083
928.162	12076
928.267	12030
928.373	12593
928.479	12140
928.585	11988
928.69	11908
928.796	12030
928.901	11992
929.007	11843
929.112	11965
929.218	11901
929.323	11863
929.428	11790
929.533	11973
929.638	11684
929.743	11733
929.848	11790
929.953	11741
930.058	11676
930.163	11391
930.267	11520
930.372	11623
930.477	11414
930.581	11691
930.685	11577
930.79	11387
930.894	11436
930.998	11379
931.103	11459
931.207	11170
931.311	11098
931.415	10930
931.519	10847
931.623	10801
