Data from test_V78500241_190.txt Node
Date: Fri Mar 25 15:11:11 CST 2022
User: usil
Spectrometer: V785-0024
Trigger mode: 0
Integration Time (sec): 4.000000E-1
Scans to average: 1
Nonlinearity correction enabled: false
Boxcar width: 0
Storing dark spectrum: false
XAxis mode: Wavelengths
Number of Pixels in Spectrum: 1024
>>>>>Begin Spectral Data<<<<<
801.071	27899
801.214	27884
801.356	27606
801.499	27717
801.641	27431
801.783	27386
801.926	27557
802.068	27549
802.211	27405
802.353	27275
802.496	27245
802.638	27036
802.78	27123
802.923	27013
803.065	26838
803.208	27131
803.35	27066
803.492	27214
803.635	27108
803.777	26845
803.919	27207
804.061	27416
804.204	27184
804.346	27070
804.488	27112
804.63	27043
804.773	27028
804.915	27116
805.057	27146
805.199	27070
805.341	27081
805.483	27207
805.626	27176
805.768	27264
805.91	27180
806.052	27214
806.194	27093
806.336	27188
806.478	27188
806.62	27294
806.762	27329
806.904	27500
807.046	27622
807.188	27462
807.33	27637
807.472	27545
807.614	27435
807.756	27488
807.898	27393
808.04	27447
808.182	27344
808.324	27386
808.465	27344
808.607	27652
808.749	27675
808.891	27895
809.033	28040
809.174	27667
809.316	27686
809.458	27797
809.6	27720
809.741	27888
809.883	27759
810.025	27991
810.166	27956
810.308	27960
810.45	27903
810.591	27880
810.733	27720
810.875	27641
811.016	27644
811.158	27557
811.299	27774
811.441	27907
811.582	27728
811.724	27652
811.865	27618
812.007	27720
812.148	27625
812.29	27797
812.431	27846
812.573	27865
812.714	27968
812.855	28188
812.997	28268
813.138	28318
813.279	28230
813.421	28169
813.562	28070
813.703	28082
813.845	27922
813.986	27648
814.127	27378
814.268	27268
814.41	27367
814.551	27363
814.692	27336
814.833	27214
814.974	27123
815.115	27321
815.256	27245
815.397	26986
815.539	27207
815.68	27093
815.821	26963
815.962	27104
816.103	27127
816.244	26929
816.385	26864
816.526	26902
816.666	26655
816.807	26442
816.948	26590
817.089	26590
817.23	26549
817.371	26431
817.512	26530
817.653	26488
817.793	26351
817.934	26377
818.075	26533
818.216	26415
818.356	26465
818.497	26389
818.638	26275
818.778	26301
818.919	26206
819.06	26320
819.2	26275
819.341	26427
819.481	26351
819.622	26678
819.762	26792
819.903	26758
820.043	26552
820.184	26404
820.324	26492
820.465	26503
820.605	26697
820.746	26522
820.886	26423
821.026	26488
821.167	26408
821.307	26453
821.447	26530
821.588	26267
821.728	26168
821.868	26088
822.008	25856
822.149	25894
822.289	25830
822.429	25582
822.569	25590
822.709	25632
822.849	25339
822.99	25373
823.13	25209
823.27	25289
823.41	25160
823.55	25095
823.69	25099
823.83	25190
823.97	24958
824.11	24856
824.25	24924
824.389	24871
824.529	25038
824.669	24951
824.809	25061
824.949	25137
825.089	25004
825.228	24939
825.368	24745
825.508	24886
825.648	24779
825.787	24726
825.927	24882
826.067	24810
826.206	24677
826.346	24760
826.485	24852
826.625	24886
826.765	24962
826.904	24844
827.044	24502
827.183	24456
827.323	24388
827.462	24589
827.601	24391
827.741	24403
827.88	24426
828.02	24323
828.159	24407
828.298	24456
828.437	24498
828.577	24319
828.716	24532
828.855	24281
828.994	24114
829.134	24133
829.273	24235
829.412	24079
829.551	24110
829.69	24068
829.829	24045
829.968	24174
830.107	24083
830.246	24171
830.385	24015
830.524	24057
830.663	23954
830.802	23748
830.941	23733
831.08	23668
831.219	23802
831.357	23805
831.496	23878
831.635	23748
831.774	23646
831.913	23596
832.051	23512
832.19	23448
832.329	23501
832.467	23364
832.606	23482
832.744	23387
832.883	23410
833.022	23235
833.16	23254
833.299	23254
833.437	23288
833.576	23455
833.714	23303
833.852	23463
833.991	23414
834.129	23531
834.267	23299
834.406	23349
834.544	23414
834.682	23444
834.821	23341
834.959	23440
835.097	23185
835.235	23417
835.373	23395
835.511	23337
835.65	23296
835.788	23273
835.926	23079
836.064	23098
836.202	23060
836.34	23136
836.478	23372
836.615	23170
836.753	23029
836.891	23265
837.029	23265
837.167	23151
837.305	23124
837.443	23185
837.58	23067
837.718	23261
837.856	23064
837.993	22976
838.131	23029
838.269	22831
838.406	23102
838.544	22881
838.681	22588
838.819	22672
838.956	22440
839.094	22398
839.231	22596
839.369	22653
839.506	22786
839.643	22805
839.781	22497
839.918	22462
840.055	22569
840.193	22306
840.33	22337
840.467	22493
840.604	22402
840.742	22740
840.879	22246
841.016	22390
841.153	22375
841.29	22538
841.427	22356
841.564	22299
841.701	22382
841.838	22352
841.975	22177
842.112	22265
842.249	22135
842.385	22101
842.522	22344
842.659	22109
842.796	22215
842.933	22055
843.069	22063
843.206	22051
843.343	22207
843.479	21979
843.616	22101
843.752	21945
843.889	21850
844.025	21869
844.162	21846
844.298	22029
844.435	21831
844.571	21785
844.708	21873
844.844	22120
844.98	22120
845.117	21888
845.253	21865
845.389	21762
845.525	21797
845.661	21762
845.798	21583
845.934	21675
846.07	21576
846.206	21511
846.342	21747
846.478	21538
846.614	21519
846.75	21161
846.886	21272
847.022	21469
847.158	21275
847.294	21329
847.429	21294
847.565	21310
847.701	21526
847.837	21123
847.972	21089
848.108	21146
848.244	21112
848.379	20960
848.515	20975
848.65	20834
848.786	20887
848.921	20948
849.057	20956
849.192	21093
849.328	20982
849.463	20895
849.598	20823
849.734	20781
849.869	20823
850.004	20655
850.14	20632
850.275	20651
850.41	20629
850.545	20606
850.68	20587
850.815	20644
850.95	20701
851.085	20765
851.22	20804
851.355	20590
851.49	20708
851.625	20549
851.76	20602
851.895	20454
852.03	20457
852.165	20606
852.299	20587
852.434	20590
852.569	20648
852.703	20663
852.838	20678
852.973	20674
853.107	20769
853.242	20625
853.376	20465
853.511	20427
853.645	20446
853.78	20594
853.914	20552
854.048	20339
854.183	20560
854.317	20347
854.451	20686
854.585	20370
854.72	20396
854.854	20469
854.988	20393
855.122	20476
855.256	20305
855.39	20347
855.524	20442
855.658	20541
855.792	20393
855.926	20594
856.06	20503
856.194	20518
856.327	20465
856.461	20282
856.595	20328
856.729	20473
856.862	20495
856.996	20549
857.13	20522
857.263	20530
857.397	20469
857.53	20377
857.664	20503
857.797	20484
857.931	20514
858.064	20457
858.197	20575
858.331	20393
858.464	20404
858.597	20332
858.731	20385
858.864	20366
858.997	20412
859.13	20393
859.263	20381
859.396	20419
859.529	20267
859.662	20400
859.795	20442
859.928	20446
860.061	20400
860.194	20495
860.327	20423
860.46	20454
860.592	20408
860.725	20476
860.858	20663
860.99	20381
861.123	20301
861.256	20366
861.388	20427
861.521	21138
861.653	20237
861.786	20153
861.918	20301
862.05	20377
862.183	20374
862.315	20381
862.447	20541
862.58	20408
862.712	20153
862.844	20020
862.976	20233
863.108	20176
863.24	20480
863.372	20005
863.504	20069
863.636	20077
863.768	20153
863.9	20100
864.032	20039
864.164	20122
864.296	20161
864.428	20164
864.559	20248
864.691	20058
864.823	20122
864.954	20103
865.086	20027
865.217	20024
865.349	19974
865.48	20005
865.612	20046
865.743	20081
865.875	19982
866.006	19974
866.137	20001
866.269	19970
866.4	19940
866.531	19940
866.662	19841
866.793	19917
866.924	19845
867.055	20024
867.186	19951
867.317	19845
867.448	19814
867.579	19925
867.71	19837
867.841	19750
867.972	19928
868.103	19951
868.233	19970
868.364	19928
868.495	20100
868.625	20103
868.756	20176
868.886	20107
869.017	20240
869.147	20290
869.278	20221
869.408	20180
869.539	20122
869.669	20233
869.799	20218
869.929	20381
870.06	20343
870.19	20473
870.32	20518
870.45	20598
870.58	20663
870.71	20788
870.84	20724
870.97	20511
871.1	20602
871.23	20819
871.36	20708
871.489	20663
871.619	20621
871.749	20670
871.879	20804
872.008	20963
872.138	20826
872.267	20845
872.397	20693
872.526	20602
872.656	20674
872.785	20621
872.915	20773
873.044	20963
873.173	20800
873.303	20861
873.432	20876
873.561	20895
873.69	20727
873.819	20746
873.948	20891
874.077	20880
874.206	20674
874.335	20754
874.464	21020
874.593	21039
874.722	21013
874.851	20948
874.979	21154
875.108	21074
875.237	21074
875.365	21043
875.494	20956
875.623	21032
875.751	21001
875.88	21089
876.008	21192
876.136	21283
876.265	21530
876.393	21572
876.521	21496
876.65	21507
876.778	21462
876.906	21389
877.034	21336
877.162	21416
877.29	21306
877.418	21359
877.546	21287
877.674	21564
877.802	21382
877.93	21393
878.058	21386
878.185	21245
878.313	21485
878.441	21370
878.568	21302
878.696	21287
878.824	21431
878.951	21435
879.079	21599
879.206	21762
879.333	21576
879.461	21469
879.588	21557
879.715	21583
879.842	21656
879.97	21469
880.097	21222
880.224	21283
880.351	21268
880.478	21272
880.605	21138
880.732	21214
880.859	21477
880.986	21287
881.112	21317
881.239	21085
881.366	20925
881.493	20876
881.619	20800
881.746	20777
881.872	20788
881.999	20804
882.125	20826
882.252	20788
882.378	20785
882.505	20986
882.631	20644
882.757	20568
882.883	20640
883.01	20556
883.136	20450
883.262	20457
883.388	20317
883.514	20552
883.64	20552
883.766	20507
883.892	20381
884.018	20339
884.143	20522
884.269	20492
884.395	20332
884.52	20252
884.646	20252
884.772	20065
884.897	20115
885.023	20145
885.148	20256
885.274	20404
885.399	20294
885.524	20172
885.65	20290
885.775	20252
885.9	20115
886.025	20301
886.15	20275
886.275	20153
886.4	20092
886.525	20214
886.65	20096
886.775	20103
886.9	20248
887.025	20404
887.149	20191
887.274	20027
887.399	19982
887.523	19906
887.648	19902
887.773	19807
887.897	20043
888.021	20062
888.146	19799
888.27	20031
888.395	20096
888.519	20024
888.643	20073
888.767	20069
888.891	19852
889.015	19864
889.139	19887
889.263	19731
889.387	19849
889.511	19974
889.635	19837
889.759	19719
889.883	19776
890.006	19750
890.13	19871
890.254	19624
890.377	19635
890.501	19521
890.624	19384
890.748	19506
890.871	19400
890.995	19358
891.118	19308
891.241	19384
891.364	19350
891.488	19430
891.611	19289
891.734	19331
891.857	19301
891.98	19274
892.103	19346
892.226	19168
892.349	19354
892.471	19118
892.594	19244
892.717	19350
892.839	19324
892.962	19293
893.085	19381
893.207	19183
893.33	19061
893.452	19175
893.575	19377
893.697	19206
893.819	19354
893.941	19403
894.064	19335
894.186	19171
894.308	19194
894.43	19354
894.552	19392
894.674	19384
894.796	19152
894.918	19304
895.04	19194
895.161	19316
895.283	19270
895.405	19194
895.526	19171
895.648	19327
895.769	19282
895.891	19392
896.012	19438
896.134	19343
896.255	19289
896.376	19350
896.498	19232
896.619	19259
896.74	19400
896.861	19343
896.982	19609
897.103	19662
897.224	19639
897.345	19643
897.466	19434
897.587	19563
897.708	19518
897.828	19510
897.949	19449
898.07	19381
898.19	19426
898.311	19578
898.431	19464
898.552	19422
898.672	19696
898.792	19597
898.913	19510
899.033	19460
899.153	19251
899.273	19095
899.393	19232
899.513	19221
899.633	19145
899.753	19232
899.873	19221
899.993	19320
900.113	19225
900.232	19266
900.352	19160
900.472	19129
900.591	18939
900.711	19118
900.83	18966
900.95	19221
901.069	19129
901.189	18920
901.308	18726
901.427	18658
901.546	18631
901.665	18631
901.784	18498
901.904	18437
902.023	18342
902.141	18304
902.26	18087
902.379	18308
902.498	18152
902.617	18015
902.735	18121
902.854	17999
902.973	18098
903.091	17764
903.21	17786
903.328	17813
903.446	17809
903.565	17577
903.683	17596
903.801	17547
903.919	17611
904.038	17592
904.156	17512
904.274	17539
904.392	17360
904.51	17414
904.627	17406
904.745	17490
904.863	17497
904.981	17178
905.098	17029
905.216	17094
905.334	17064
905.451	17014
905.569	17045
905.686	17083
905.803	16984
905.921	16801
906.038	16930
906.155	16892
906.272	16793
906.389	16729
906.506	16660
906.623	16592
906.74	16649
906.857	16459
906.974	16554
907.091	16664
907.208	16679
907.324	16664
907.441	16443
907.557	16360
907.674	16371
907.79	16303
907.907	16249
908.023	16318
908.139	16196
908.256	16249
908.372	16303
908.488	16219
908.604	16055
908.72	15968
908.836	15991
908.952	15983
909.068	15953
909.184	16082
909.3	16086
909.415	15937
909.531	16063
909.647	15720
909.762	15781
909.878	15671
909.993	15739
910.108	15739
910.224	15671
910.339	15686
910.454	15542
910.57	15526
910.685	15450
910.8	15671
910.915	15587
911.03	15542
911.145	15408
911.259	15332
911.374	15256
911.489	15272
911.604	15116
911.718	15093
911.833	15051
911.947	14986
912.062	14876
912.176	15058
912.291	14921
912.405	15047
912.519	15195
912.633	15226
912.748	15047
912.862	14986
912.976	14921
913.09	14735
913.204	14834
913.318	14902
913.431	14994
913.545	14948
913.659	14941
913.772	14868
913.886	14765
914	14743
914.113	14743
914.226	14842
914.34	14834
914.453	14682
914.566	14769
914.68	14511
914.793	14583
914.906	14385
915.019	14282
915.132	14259
915.245	14309
915.358	14366
915.47	14278
915.583	14317
915.696	14298
915.809	14415
915.921	14469
916.034	14358
916.146	14237
916.259	14199
916.371	14317
916.483	14275
916.595	14240
916.708	14157
916.82	14206
916.932	14172
917.044	14115
917.156	14134
917.268	14054
917.38	13909
917.491	13917
917.603	13970
917.715	14103
917.826	14077
917.938	13868
918.049	13845
918.161	14058
918.272	14130
918.384	14134
918.495	13890
918.606	13845
918.717	13761
918.828	13852
918.939	13746
919.05	13647
919.161	13822
919.272	13514
919.383	13582
919.494	13791
919.604	13936
919.715	13761
919.826	13643
919.936	13685
920.047	13864
920.157	13753
920.267	13959
920.378	13723
920.488	13750
920.598	13864
920.708	14001
920.818	13986
920.928	13921
921.038	13982
921.148	13959
921.258	13693
921.368	13559
921.477	13525
921.587	13483
921.697	13350
921.806	13430
921.916	13388
922.025	13202
922.134	13114
922.244	13168
922.353	13110
922.462	12977
922.571	12943
922.68	12798
922.789	12745
922.898	12810
923.007	12703
923.116	12829
923.224	12764
923.333	12745
923.442	12616
923.55	12665
923.659	12601
923.767	12703
923.876	12620
923.984	12635
924.092	12544
924.201	12574
924.309	12528
924.417	12540
924.525	12517
924.633	12490
924.741	13190
924.849	12175
924.956	12369
925.064	12247
925.172	12205
925.279	12247
925.387	12159
925.494	12285
925.602	12357
925.709	12327
925.816	12190
925.924	12167
926.031	12247
926.138	12171
926.245	12277
926.352	12114
926.459	12171
926.566	12190
926.673	12205
926.779	12003
926.886	11984
926.993	11775
927.099	11851
927.206	11809
927.312	11752
927.419	11927
927.525	11786
927.631	11798
927.737	11790
927.843	11688
927.95	11532
928.056	11619
928.162	11653
928.267	11741
928.373	12186
928.479	11752
928.585	11638
928.69	11680
928.796	11649
928.901	11497
929.007	11417
929.112	11482
929.218	11497
929.323	11482
929.428	11417
929.533	11524
929.638	11349
929.743	11379
929.848	11345
929.953	11372
930.058	11322
930.163	11136
930.267	11124
930.372	11223
930.477	11052
930.581	11315
930.685	11117
930.79	11003
930.894	10965
930.998	10908
931.103	11128
931.207	10755
931.311	10729
931.415	10577
931.519	10451
931.623	10325
