Data from test_V78500241_3428.txt Node
Date: Fri Mar 25 15:33:43 CST 2022
User: usil
Spectrometer: V785-0024
Trigger mode: 0
Integration Time (sec): 4.000000E-1
Scans to average: 1
Nonlinearity correction enabled: false
Boxcar width: 0
Storing dark spectrum: false
XAxis mode: Wavelengths
Number of Pixels in Spectrum: 1024
>>>>>Begin Spectral Data<<<<<
801.071	27306
801.214	27264
801.356	26998
801.499	26933
801.641	26754
801.783	26727
801.926	26815
802.068	26845
802.211	26697
802.353	26697
802.496	26503
802.638	26412
802.78	26560
802.923	26263
803.065	26294
803.208	26305
803.35	26381
803.492	26560
803.635	26583
803.777	26438
803.919	26507
804.061	26724
804.204	26659
804.346	26434
804.488	26453
804.63	26488
804.773	26450
804.915	26480
805.057	26663
805.199	26549
805.341	26480
805.483	26689
805.626	26613
805.768	26385
805.91	26636
806.052	26686
806.194	26594
806.336	26716
806.478	26606
806.62	26526
806.762	26861
806.904	26872
807.046	27180
807.188	27020
807.33	26914
807.472	27142
807.614	27096
807.756	26902
807.898	26940
808.04	26830
808.182	26712
808.324	26933
808.465	26967
808.607	27009
808.749	27214
808.891	27401
809.033	27458
809.174	27317
809.316	27116
809.458	27233
809.6	27131
809.741	27317
809.883	27355
810.025	27485
810.166	27439
810.308	27618
810.45	27469
810.591	27363
810.733	27427
810.875	27165
811.016	27108
811.158	27165
811.299	27165
811.441	27329
811.582	27382
811.724	27211
811.865	27241
812.007	27081
812.148	27306
812.29	27230
812.431	27306
812.573	27454
812.714	27534
812.855	27663
812.997	27800
813.138	27751
813.279	27785
813.421	27671
813.562	27667
813.703	27507
813.845	27351
813.986	27047
814.127	27017
814.268	26872
814.41	26986
814.551	26906
814.692	26899
814.833	26861
814.974	26811
815.115	27043
815.256	26758
815.397	26800
815.539	26800
815.68	26537
815.821	26613
815.962	26667
816.103	26499
816.244	26514
816.385	26400
816.526	26229
816.666	26088
816.807	26183
816.948	26225
817.089	26233
817.23	26183
817.371	26077
817.512	26153
817.653	26157
817.793	26031
817.934	25997
818.075	26218
818.216	26096
818.356	26058
818.497	26096
818.638	25799
818.778	25837
818.919	25993
819.06	25947
819.2	26092
819.341	26138
819.481	26058
819.622	26244
819.762	26423
819.903	26415
820.043	26294
820.184	26240
820.324	26263
820.465	26225
820.605	26309
820.746	26256
820.886	26050
821.026	26290
821.167	26081
821.307	26252
821.447	26024
821.588	26024
821.728	25997
821.868	25898
822.008	25632
822.149	25601
822.289	25635
822.429	25381
822.569	25297
822.709	25324
822.849	25099
822.99	25114
823.13	24951
823.27	24996
823.41	24943
823.55	24802
823.69	24958
823.83	25004
823.97	24798
824.11	24639
824.25	24650
824.389	24703
824.529	24722
824.669	24730
824.809	24856
824.949	24753
825.089	24859
825.228	24787
825.368	24555
825.508	24585
825.648	24639
825.787	24787
825.927	24631
826.067	24502
826.206	24612
826.346	24692
826.485	24597
826.625	24623
826.765	24726
826.904	24673
827.044	24456
827.183	24380
827.323	24254
827.462	24460
827.601	24243
827.741	24277
827.88	24213
828.02	24102
828.159	24232
828.298	24323
828.437	24498
828.577	24205
828.716	24403
828.855	24285
828.994	24140
829.134	24045
829.273	24011
829.412	24011
829.551	23923
829.69	23946
829.829	24110
829.968	24106
830.107	24060
830.246	24178
830.385	23874
830.524	23885
830.663	23840
830.802	23668
830.941	23695
831.08	23592
831.219	23752
831.357	23718
831.496	23863
831.635	23608
831.774	23539
831.913	23436
832.051	23421
832.19	23482
832.329	23509
832.467	23296
832.606	23200
832.744	23269
832.883	23353
833.022	23383
833.16	23311
833.299	23406
833.437	23334
833.576	23330
833.714	23376
833.852	23459
833.991	23402
834.129	23395
834.267	23501
834.406	23478
834.544	23421
834.682	23486
834.821	23478
834.959	23577
835.097	23330
835.235	23463
835.373	23429
835.511	23368
835.65	23185
835.788	23315
835.926	23086
836.064	23029
836.202	23121
836.34	23337
836.478	23296
836.615	23185
836.753	23109
836.891	23360
837.029	23288
837.167	23212
837.305	23064
837.443	23151
837.58	23117
837.718	23098
837.856	23090
837.993	23033
838.131	23124
838.269	22968
838.406	23071
838.544	23067
838.681	22824
838.819	22759
838.956	22527
839.094	22668
839.231	22630
839.369	22809
839.506	22919
839.643	22938
839.781	22561
839.918	22512
840.055	22481
840.193	22500
840.33	22394
840.467	22390
840.604	22523
840.742	22630
840.879	22413
841.016	22459
841.153	22356
841.29	22603
841.427	22577
841.564	22519
841.701	22630
841.838	22386
841.975	22459
842.112	22352
842.249	22303
842.385	22287
842.522	22542
842.659	22390
842.796	22261
842.933	22280
843.069	22166
843.206	22310
843.343	22314
843.479	22398
843.616	22318
843.752	22090
843.889	22097
844.025	22261
844.162	22002
844.298	22067
844.435	22097
844.571	22017
844.708	22223
844.844	22169
844.98	22181
845.117	22097
845.253	22067
845.389	21869
845.525	21903
845.661	21838
845.798	21739
845.934	21804
846.07	21652
846.206	21819
846.342	21918
846.478	21785
846.614	21625
846.75	21424
846.886	21526
847.022	21701
847.158	21580
847.294	21610
847.429	21549
847.565	21511
847.701	21709
847.837	21211
847.972	21226
848.108	21412
848.244	21416
848.379	21203
848.515	21043
848.65	21032
848.786	21100
848.921	21157
849.057	21188
849.192	21252
849.328	21173
849.463	21043
849.598	20986
849.734	20963
849.869	20902
850.004	20929
850.14	20921
850.275	20819
850.41	20819
850.545	20731
850.68	20815
850.815	20998
850.95	20944
851.085	21024
851.22	21096
851.355	20883
851.49	20883
851.625	20807
851.76	20876
851.895	20819
852.03	20701
852.165	20857
852.299	20944
852.434	21017
852.569	20853
852.703	20948
852.838	21024
852.973	21024
853.107	20990
853.242	20842
853.376	20708
853.511	20503
853.645	20613
853.78	20902
853.914	20739
854.048	20606
854.183	20560
854.317	20735
854.451	20906
854.585	20792
854.72	20811
854.854	20796
854.988	20663
855.122	20670
855.256	20644
855.39	20663
855.524	20811
855.658	20804
855.792	20632
855.926	20781
856.06	20727
856.194	20743
856.327	20606
856.461	20750
856.595	20724
856.729	20686
856.862	20823
856.996	20724
857.13	20781
857.263	20731
857.397	20773
857.53	20773
857.664	20682
857.797	20914
857.931	20743
858.064	20701
858.197	20796
858.331	20625
858.464	20648
858.597	20697
858.731	20754
858.864	20731
858.997	20712
859.13	20590
859.263	20785
859.396	20815
859.529	20659
859.662	20792
859.795	20606
859.928	20712
860.061	20815
860.194	20941
860.327	20769
860.46	20792
860.592	20891
860.725	20967
860.858	20834
860.99	20754
861.123	20560
861.256	20549
861.388	20765
861.521	21351
861.653	20556
861.786	20465
861.918	20602
862.05	20640
862.183	20644
862.315	20617
862.447	20674
862.58	20689
862.712	20450
862.844	20351
862.976	20454
863.108	20499
863.24	20956
863.372	20377
863.504	20431
863.636	20514
863.768	20461
863.9	20484
864.032	20290
864.164	20434
864.296	20484
864.428	20465
864.559	20457
864.691	20461
864.823	20400
864.954	20385
865.086	20313
865.217	20305
865.349	20149
865.48	20240
865.612	20415
865.743	20575
865.875	20404
866.006	20339
866.137	20366
866.269	20320
866.4	20332
866.531	20336
866.662	20206
866.793	20362
866.924	20271
867.055	20317
867.186	20366
867.317	20240
867.448	20172
867.579	20244
867.71	20180
867.841	20195
867.972	20240
868.103	20259
868.233	20317
868.364	20237
868.495	20317
868.625	20473
868.756	20617
868.886	20476
869.017	20469
869.147	20682
869.278	20651
869.408	20621
869.539	20457
869.669	20549
869.799	20625
869.929	20705
870.06	20655
870.19	20838
870.32	20800
870.45	20845
870.58	21013
870.71	20929
870.84	21047
870.97	20944
871.1	20876
871.23	21146
871.36	21161
871.489	21047
871.619	21150
871.749	21077
871.879	21146
872.008	21332
872.138	21233
872.267	21226
872.397	20948
872.526	20910
872.656	20982
872.785	20887
872.915	21138
873.044	21173
873.173	21165
873.303	21169
873.432	21173
873.561	21173
873.69	21260
873.819	21089
873.948	21135
874.077	21127
874.206	21123
874.335	21226
874.464	21344
874.593	21435
874.722	21283
874.851	21382
874.979	21382
875.108	21336
875.237	21245
875.365	21283
875.494	21325
875.623	21481
875.751	21424
875.88	21443
876.008	21568
876.136	21610
876.265	21903
876.393	21774
876.521	21949
876.65	21861
876.778	21762
876.906	21759
877.034	21690
877.162	21778
877.29	21637
877.418	21785
877.546	21838
877.674	21759
877.802	21797
877.93	21690
878.058	21648
878.185	21656
878.313	21724
878.441	21759
878.568	21633
878.696	21583
878.824	21739
878.951	21823
879.079	21934
879.206	22177
879.333	21956
879.461	21774
879.588	21915
879.715	22059
879.842	22059
879.97	21781
880.097	21641
880.224	21583
880.351	21603
880.478	21549
880.605	21625
880.732	21523
880.859	21762
880.986	21564
881.112	21591
881.239	21477
881.366	21329
881.493	21340
881.619	21230
881.746	21127
881.872	21093
881.999	21146
882.125	21176
882.252	21135
882.378	21218
882.505	21222
882.631	21017
882.757	20899
882.883	20982
883.01	20872
883.136	20861
883.262	20689
883.388	20708
883.514	20925
883.64	20838
883.766	20758
883.892	20609
884.018	20644
884.143	20842
884.269	20861
884.395	20583
884.52	20549
884.646	20625
884.772	20450
884.897	20415
885.023	20560
885.148	20674
885.274	20602
885.399	20568
885.524	20473
885.65	20488
885.775	20446
885.9	20473
886.025	20648
886.15	20602
886.275	20507
886.4	20514
886.525	20533
886.65	20366
886.775	20396
886.9	20629
887.025	20689
887.149	20495
887.274	20286
887.399	20320
887.523	20278
887.648	20180
887.773	20233
887.897	20332
888.021	20366
888.146	20278
888.27	20465
888.395	20465
888.519	20221
888.643	20191
888.767	20358
888.891	20126
889.015	20214
889.139	20142
889.263	20031
889.387	20107
889.511	20339
889.635	20286
889.759	20138
889.883	20065
890.006	19974
890.13	20214
890.254	19944
890.377	19921
890.501	19856
890.624	19830
890.748	19970
890.871	19746
890.995	19734
891.118	19537
891.241	19761
891.364	19742
891.488	19811
891.611	19727
891.734	19708
891.857	19723
891.98	19651
892.103	19696
892.226	19635
892.349	19609
892.471	19506
892.594	19685
892.717	19628
892.839	19537
892.962	19563
893.085	19685
893.207	19506
893.33	19384
893.452	19495
893.575	19639
893.697	19552
893.819	19750
893.941	19757
894.064	19693
894.186	19586
894.308	19472
894.43	19537
894.552	19689
894.674	19655
894.796	19480
894.918	19651
895.04	19597
895.161	19635
895.283	19734
895.405	19662
895.526	19616
895.648	19548
895.769	19601
895.891	19658
896.012	19605
896.134	19552
896.255	19559
896.376	19643
896.498	19605
896.619	19677
896.74	19613
896.861	19727
896.982	20001
897.103	20065
897.224	19780
897.345	19841
897.466	19734
897.587	19811
897.708	19967
897.828	19898
897.949	19746
898.07	19632
898.19	19811
898.311	19864
898.431	19742
898.552	19765
898.672	19841
898.792	19902
898.913	19841
899.033	19734
899.153	19529
899.273	19506
899.393	19537
899.513	19624
899.633	19578
899.753	19647
899.873	19518
899.993	19666
900.113	19540
900.232	19495
900.352	19586
900.472	19400
900.591	19282
900.711	19438
900.83	19301
900.95	19483
901.069	19388
901.189	19297
901.308	19061
901.427	18932
901.546	18954
901.665	18943
901.784	18859
901.904	18810
902.023	18661
902.141	18490
902.26	18517
902.379	18639
902.498	18486
902.617	18490
902.735	18391
902.854	18399
902.973	18224
903.091	18136
903.21	18068
903.328	18197
903.446	17912
903.565	17946
903.683	17882
903.801	17863
903.919	17912
904.038	17882
904.156	17779
904.274	17828
904.392	17707
904.51	17707
904.627	17668
904.745	17786
904.863	17737
904.981	17539
905.098	17478
905.216	17410
905.334	17410
905.451	17452
905.569	17360
905.686	17410
905.803	17341
905.921	17147
906.038	17318
906.155	17250
906.272	17151
906.389	17121
906.506	16946
906.623	16927
906.74	16850
906.857	16786
906.974	16911
907.091	16991
907.208	17048
907.324	16980
907.441	16759
907.557	16588
907.674	16573
907.79	16558
907.907	16637
908.023	16675
908.139	16691
908.256	16660
908.372	16592
908.488	16622
908.604	16542
908.72	16348
908.836	16447
908.952	16455
909.068	16516
909.184	16516
909.3	16341
909.415	16402
909.531	16428
909.647	16078
909.762	16116
909.878	16128
909.993	16090
910.108	16067
910.224	16021
910.339	16063
910.454	16093
910.57	15770
910.685	15739
910.8	16173
910.915	15956
911.03	15842
911.145	15713
911.259	15747
911.374	15622
911.489	15618
911.604	15580
911.718	15416
911.833	15405
911.947	15344
912.062	15207
912.176	15523
912.291	15420
912.405	15397
912.519	15545
912.633	15652
912.748	15496
912.862	15374
912.976	15367
913.09	15226
913.204	15214
913.318	15218
913.431	15382
913.545	15351
913.659	15283
913.772	15268
913.886	15089
914	15123
914.113	15119
914.226	15264
914.34	15176
914.453	14979
914.566	15039
914.68	14967
914.793	14952
914.906	14765
915.019	14648
915.132	14686
915.245	14667
915.358	14708
915.47	14693
915.583	14724
915.696	14651
915.809	14807
915.921	14838
916.034	14693
916.146	14670
916.259	14545
916.371	14655
916.483	14625
916.595	14518
916.708	14480
916.82	14564
916.932	14476
917.044	14469
917.156	14427
917.268	14419
917.38	14351
917.491	14309
917.603	14400
917.715	14492
917.826	14374
917.938	14309
918.049	14256
918.161	14286
918.272	14473
918.384	14545
918.495	14328
918.606	14191
918.717	14092
918.828	14199
918.939	14130
919.05	14039
919.161	14020
919.272	13970
919.383	13909
919.494	14145
919.604	14275
919.715	14054
919.826	14005
919.936	14027
920.047	14161
920.157	14153
920.267	14298
920.378	14138
920.488	14031
920.598	14157
920.708	14412
920.818	14206
920.928	14221
921.038	14385
921.148	14313
921.258	14050
921.368	13936
921.477	13803
921.587	13841
921.697	13681
921.806	13856
921.916	13655
922.025	13590
922.134	13472
922.244	13464
922.353	13559
922.462	13373
922.571	13304
922.68	13206
922.789	13171
922.898	13122
923.007	13061
923.116	13156
923.224	13122
923.333	13084
923.442	13053
923.55	12951
923.659	13015
923.767	13080
923.876	12985
923.984	13050
924.092	12882
924.201	12901
924.309	12943
924.417	12928
924.525	12875
924.633	12924
924.741	13826
924.849	12639
924.956	12768
925.064	12677
925.172	12532
925.279	12551
925.387	12635
925.494	12608
925.602	12662
925.709	12707
925.816	12528
925.924	12608
926.031	12574
926.138	12532
926.245	12620
926.352	12525
926.459	12517
926.566	12703
926.673	12525
926.779	12403
926.886	12403
926.993	12323
927.099	12178
927.206	12209
927.312	12163
927.419	12270
927.525	12155
927.631	12178
927.737	12121
927.843	12034
927.95	12011
928.056	12019
928.162	12117
928.267	12072
928.373	12532
928.479	12125
928.585	11969
928.69	11958
928.796	12011
928.901	11893
929.007	11771
929.112	12019
929.218	11783
929.323	11779
929.428	11748
929.533	11912
929.638	11802
929.743	11756
929.848	11752
929.953	11729
930.058	11661
930.163	11459
930.267	11459
930.372	11634
930.477	11433
930.581	11592
930.685	11478
930.79	11387
930.894	11383
930.998	11398
931.103	11459
931.207	11109
931.311	11025
931.415	10949
931.519	10778
931.623	10660
