Data from test_V78500241_1037.txt Node
Date: Fri Mar 25 15:17:04 CST 2022
User: usil
Spectrometer: V785-0024
Trigger mode: 0
Integration Time (sec): 4.000000E-1
Scans to average: 1
Nonlinearity correction enabled: false
Boxcar width: 0
Storing dark spectrum: false
XAxis mode: Wavelengths
Number of Pixels in Spectrum: 1024
>>>>>Begin Spectral Data<<<<<
801.071	28272
801.214	28128
801.356	28070
801.499	27808
801.641	27705
801.783	27778
801.926	27785
802.068	27842
802.211	27732
802.353	27587
802.496	27481
802.638	27439
802.78	27431
802.923	27416
803.065	27325
803.208	27336
803.35	27435
803.492	27492
803.635	27583
803.777	27355
803.919	27652
804.061	27812
804.204	27667
804.346	27580
804.488	27526
804.63	27542
804.773	27504
804.915	27694
805.057	27819
805.199	27713
805.341	27797
805.483	27876
805.626	27724
805.768	27591
805.91	27755
806.052	27690
806.194	27682
806.336	27914
806.478	27907
806.62	27873
806.762	28010
806.904	27991
807.046	28234
807.188	28428
807.33	28242
807.472	28367
807.614	28223
807.756	28097
807.898	28120
808.04	27975
808.182	28032
808.324	28150
808.465	28135
808.607	28093
808.749	28451
808.891	28542
809.033	28675
809.174	28489
809.316	28394
809.458	28310
809.6	28360
809.741	28645
809.883	28637
810.025	28736
810.166	28797
810.308	28767
810.45	28672
810.591	28637
810.733	28401
810.875	28413
811.016	28421
811.158	28382
811.299	28519
811.441	28599
811.582	28596
811.724	28466
811.865	28481
812.007	28573
812.148	28360
812.29	28535
812.431	28748
812.573	28767
812.714	28911
812.855	29022
812.997	29079
813.138	29216
813.279	29250
813.421	29140
813.562	28987
813.703	28934
813.845	28790
813.986	28440
814.127	28287
814.268	28101
814.41	28204
814.551	28109
814.692	28261
814.833	28169
814.974	28116
815.115	28124
815.256	28150
815.397	28158
815.539	28051
815.68	27956
815.821	27876
815.962	28067
816.103	27987
816.244	27846
816.385	27869
816.526	27800
816.666	27538
816.807	27408
816.948	27591
817.089	27610
817.23	27530
817.371	27553
817.512	27408
817.653	27420
817.793	27412
817.934	27427
818.075	27485
818.216	27504
818.356	27287
818.497	27492
818.638	27344
818.778	27226
818.919	27370
819.06	27154
819.2	27291
819.341	27549
819.481	27568
819.622	27686
819.762	27823
819.903	27797
820.043	27823
820.184	27698
820.324	27652
820.465	27709
820.605	27728
820.746	27652
820.886	27572
821.026	27545
821.167	27526
821.307	27591
821.447	27568
821.588	27382
821.728	27184
821.868	27157
822.008	27005
822.149	26963
822.289	26940
822.429	26716
822.569	26556
822.709	26682
822.849	26480
822.99	26408
823.13	26404
823.27	26461
823.41	26301
823.55	26172
823.69	26381
823.83	26362
823.97	26290
824.11	26176
824.25	26172
824.389	26176
824.529	26191
824.669	26138
824.809	26248
824.949	26298
825.089	26183
825.228	26111
825.368	26077
825.508	26138
825.648	26027
825.787	26172
825.927	26069
826.067	25833
826.206	26088
826.346	25963
826.485	25944
826.625	26020
826.765	26225
826.904	26111
827.044	25734
827.183	25841
827.323	25639
827.462	25795
827.601	25803
827.741	25738
827.88	25719
828.02	25677
828.159	25708
828.298	25761
828.437	25666
828.577	25674
828.716	25719
828.855	25658
828.994	25487
829.134	25403
829.273	25426
829.412	25369
829.551	25285
829.69	25381
829.829	25449
829.968	25365
830.107	25518
830.246	25449
830.385	25483
830.524	25293
830.663	25126
830.802	25183
830.941	25050
831.08	25114
831.219	25099
831.357	25095
831.496	25251
831.635	25103
831.774	25057
831.913	25000
832.051	24741
832.19	24867
832.329	24882
832.467	24738
832.606	24791
832.744	24745
832.883	24947
833.022	24623
833.16	24837
833.299	24894
833.437	24700
833.576	24741
833.714	24848
833.852	24863
833.991	24966
834.129	24795
834.267	24962
834.406	24730
834.544	24840
834.682	24924
834.821	24867
834.959	24916
835.097	24928
835.235	24802
835.373	24848
835.511	24779
835.65	24601
835.788	24627
835.926	24490
836.064	24441
836.202	24456
836.34	24753
836.478	24722
836.615	24585
836.753	24620
836.891	24783
837.029	24536
837.167	24593
837.305	24513
837.443	24593
837.58	24388
837.718	24559
837.856	24513
837.993	24502
838.131	24464
838.269	24273
838.406	24479
838.544	24201
838.681	24079
838.819	24106
838.956	23908
839.094	23882
839.231	23870
839.369	24213
839.506	24186
839.643	24216
839.781	24026
839.918	23840
840.055	23889
840.193	23923
840.33	23828
840.467	23874
840.604	23882
840.742	24064
840.879	23729
841.016	23802
841.153	23748
841.29	23946
841.427	23912
841.564	23969
841.701	23813
841.838	23729
841.975	23718
842.112	23775
842.249	23638
842.385	23573
842.522	23760
842.659	23661
842.796	23680
842.933	23627
843.069	23573
843.206	23653
843.343	23623
843.479	23809
843.616	23627
843.752	23493
843.889	23452
844.025	23535
844.162	23372
844.298	23505
844.435	23391
844.571	23254
844.708	23486
844.844	23421
844.98	23440
845.117	23417
845.253	23280
845.389	23261
845.525	23360
845.661	23258
845.798	23128
845.934	23102
846.07	23132
846.206	23185
846.342	23197
846.478	23052
846.614	22991
846.75	22805
846.886	22900
847.022	22889
847.158	22885
847.294	22904
847.429	22828
847.565	22900
847.701	23136
847.837	22538
847.972	22577
848.108	22535
848.244	22607
848.379	22656
848.515	22493
848.65	22432
848.786	22443
848.921	22470
849.057	22668
849.192	22694
849.328	22405
849.463	22421
849.598	22413
849.734	22303
849.869	22154
850.004	22352
850.14	22207
850.275	22219
850.41	22291
850.545	22078
850.68	22200
850.815	22276
850.95	22226
851.085	22341
851.22	22226
851.355	22185
851.49	22238
851.625	22169
851.76	22101
851.895	22112
852.03	22120
852.165	22082
852.299	22177
852.434	22394
852.569	22249
852.703	22207
852.838	22192
852.973	22402
853.107	22367
853.242	22181
853.376	22048
853.511	21956
853.645	21941
853.78	22063
853.914	22044
854.048	21979
854.183	22006
854.317	22051
854.451	22299
854.585	22040
854.72	21994
854.854	22196
854.988	22013
855.122	22025
855.256	21873
855.39	22090
855.524	21987
855.658	22173
855.792	22192
855.926	22048
856.06	22055
856.194	22070
856.327	22010
856.461	22006
856.595	21907
856.729	22044
856.862	22097
856.996	22120
857.13	22044
857.263	22143
857.397	22051
857.53	22143
857.664	22105
857.797	22044
857.931	22139
858.064	22086
858.197	22219
858.331	22025
858.464	21960
858.597	22029
858.731	22070
858.864	21956
858.997	22029
859.13	21915
859.263	21907
859.396	22070
859.529	21994
859.662	21941
859.795	21979
859.928	22032
860.061	22211
860.194	22162
860.327	21994
860.46	21941
860.592	22234
860.725	22162
860.858	22131
860.99	21964
861.123	21949
861.256	22006
861.388	22032
861.521	22664
861.653	22021
861.786	21857
861.918	21823
862.05	21888
862.183	21835
862.315	21983
862.447	22097
862.58	22040
862.712	21884
862.844	21648
862.976	21854
863.108	21800
863.24	22230
863.372	21690
863.504	21717
863.636	21724
863.768	21781
863.9	21648
864.032	21564
864.164	21800
864.296	21770
864.428	21751
864.559	21743
864.691	21842
864.823	21789
864.954	21766
865.086	21682
865.217	21709
865.349	21633
865.48	21629
865.612	21564
865.743	21774
865.875	21671
866.006	21724
866.137	21736
866.269	21614
866.4	21572
866.531	21587
866.662	21462
866.793	21488
866.924	21542
867.055	21583
867.186	21538
867.317	21496
867.448	21428
867.579	21477
867.71	21435
867.841	21511
867.972	21587
868.103	21538
868.233	21511
868.364	21439
868.495	21622
868.625	21709
868.756	21686
868.886	21778
869.017	21800
869.147	21797
869.278	21888
869.408	21797
869.539	21770
869.669	21930
869.799	21789
869.929	21911
870.06	21934
870.19	22093
870.32	22147
870.45	22013
870.58	22181
870.71	22318
870.84	22204
870.97	22139
871.1	22135
871.23	22371
871.36	22268
871.489	22265
871.619	22257
871.749	22318
871.879	22451
872.008	22451
872.138	22519
872.267	22325
872.397	22188
872.526	22223
872.656	22177
872.785	22265
872.915	22398
873.044	22436
873.173	22405
873.303	22413
873.432	22443
873.561	22470
873.69	22405
873.819	22447
873.948	22443
874.077	22417
874.206	22329
874.335	22367
874.464	22596
874.593	22637
874.722	22542
874.851	22641
874.979	22653
875.108	22683
875.237	22500
875.365	22432
875.494	22634
875.623	22641
875.751	22603
875.88	22599
876.008	22809
876.136	22881
876.265	23128
876.393	23086
876.521	23132
876.65	23037
876.778	22984
876.906	22873
877.034	22896
877.162	22896
877.29	22934
877.418	22991
877.546	22946
877.674	22946
877.802	22976
877.93	22961
878.058	22843
878.185	22828
878.313	22911
878.441	22987
878.568	22809
878.696	22850
878.824	22927
878.951	23022
879.079	23128
879.206	23231
879.333	23140
879.461	22934
879.588	23113
879.715	23132
879.842	23254
879.97	22991
880.097	22873
880.224	22713
880.351	22900
880.478	22755
880.605	22752
880.732	22755
880.859	23117
880.986	22850
881.112	22805
881.239	22675
881.366	22615
881.493	22443
881.619	22459
881.746	22390
881.872	22440
881.999	22287
882.125	22287
882.252	22436
882.378	22451
882.505	22398
882.631	22166
882.757	22109
882.883	22063
883.01	22070
883.136	21968
883.262	21953
883.388	21865
883.514	22093
883.64	22116
883.766	21918
883.892	21785
884.018	21781
884.143	21876
884.269	22158
884.395	21888
884.52	21580
884.646	21637
884.772	21637
884.897	21473
885.023	21622
885.148	21774
885.274	21713
885.399	21679
885.524	21713
885.65	21614
885.775	21759
885.9	21671
886.025	21797
886.15	21736
886.275	21587
886.4	21557
886.525	21553
886.65	21561
886.775	21591
886.9	21793
887.025	21827
887.149	21606
887.274	21443
887.399	21397
887.523	21488
887.648	21401
887.773	21340
887.897	21481
888.021	21534
888.146	21401
888.27	21428
888.395	21561
888.519	21519
888.643	21428
888.767	21450
888.891	21252
889.015	21112
889.139	21386
889.263	21268
889.387	21249
889.511	21435
889.635	21268
889.759	21188
889.883	21184
890.006	21237
890.13	21355
890.254	21146
890.377	21085
890.501	20891
890.624	20868
890.748	20895
890.871	20956
890.995	20830
891.118	20735
891.241	20788
891.364	20823
891.488	20876
891.611	20773
891.734	20834
891.857	20872
891.98	20720
892.103	20811
892.226	20807
892.349	20811
892.471	20511
892.594	20765
892.717	20792
892.839	20712
892.962	20785
893.085	20804
893.207	20739
893.33	20663
893.452	20590
893.575	20842
893.697	20629
893.819	20807
893.941	20941
894.064	20956
894.186	20689
894.308	20575
894.43	20796
894.552	20853
894.674	20693
894.796	20636
894.918	20686
895.04	20621
895.161	20750
895.283	20815
895.405	20571
895.526	20629
895.648	20674
895.769	20636
895.891	20727
896.012	20842
896.134	20788
896.255	20750
896.376	20590
896.498	20682
896.619	20697
896.74	20625
896.861	20724
896.982	21043
897.103	21150
897.224	20925
897.345	20811
897.466	20842
897.587	21020
897.708	20990
897.828	20899
897.949	20887
898.07	20693
898.19	20762
898.311	20971
898.431	20819
898.552	20933
898.672	20960
898.792	20986
898.913	20952
899.033	20777
899.153	20625
899.273	20579
899.393	20609
899.513	20552
899.633	20526
899.753	20640
899.873	20613
899.993	20625
900.113	20602
900.232	20564
900.352	20484
900.472	20503
900.591	20339
900.711	20271
900.83	20374
900.95	20503
901.069	20560
901.189	20286
901.308	20073
901.427	20065
901.546	20073
901.665	19967
901.784	19993
901.904	19811
902.023	19708
902.141	19529
902.26	19449
902.379	19480
902.498	19403
902.617	19457
902.735	19483
902.854	19384
902.973	19430
903.091	19228
903.21	19088
903.328	19122
903.446	19095
903.565	18962
903.683	18996
903.801	18878
903.919	18859
904.038	18890
904.156	18730
904.274	18810
904.392	18677
904.51	18627
904.627	18696
904.745	18760
904.863	18783
904.981	18502
905.098	18304
905.216	18479
905.334	18410
905.451	18429
905.569	18391
905.686	18388
905.803	18334
905.921	18194
906.038	18216
906.155	18239
906.272	18095
906.389	18072
906.506	17832
906.623	17897
906.74	17851
906.857	17726
906.974	17767
907.091	18011
907.208	18011
907.324	17942
907.441	17794
907.557	17767
907.674	17691
907.79	17668
907.907	17611
908.023	17703
908.139	17661
908.256	17558
908.372	17509
908.488	17467
908.604	17421
908.72	17402
908.836	17349
908.952	17307
909.068	17421
909.184	17444
909.3	17337
909.415	17414
909.531	17303
909.647	17121
909.762	17041
909.878	17060
909.993	17003
910.108	17014
910.224	17060
910.339	17041
910.454	16889
910.57	16793
910.685	16767
910.8	17151
910.915	16942
911.03	16858
911.145	16679
911.259	16580
911.374	16645
911.489	16668
911.604	16470
911.718	16382
911.833	16390
911.947	16337
912.062	16173
912.176	16329
912.291	16371
912.405	16272
912.519	16565
912.633	16508
912.748	16341
912.862	16299
912.976	16348
913.09	16074
913.204	16124
913.318	16200
913.431	16276
913.545	16310
913.659	16306
913.772	16116
913.886	16025
914	15964
914.113	16040
914.226	16143
914.34	15998
914.453	15873
914.566	15975
914.68	15812
914.793	15850
914.906	15698
915.019	15572
915.132	15481
915.245	15564
915.358	15648
915.47	15557
915.583	15622
915.696	15637
915.809	15648
915.921	15694
916.034	15576
916.146	15424
916.259	15454
916.371	15515
916.483	15519
916.595	15416
916.708	15496
916.82	15367
916.932	15378
917.044	15230
917.156	15306
917.268	15100
917.38	15226
917.491	15119
917.603	15154
917.715	15298
917.826	15310
917.938	15138
918.049	15055
918.161	15173
918.272	15321
918.384	15214
918.495	15146
918.606	15001
918.717	14857
918.828	14975
918.939	14994
919.05	14838
919.161	15017
919.272	14640
919.383	14823
919.494	15001
919.604	15233
919.715	14998
919.826	14849
919.936	14918
920.047	14979
920.157	14853
920.267	15081
920.378	14921
920.488	14906
920.598	15032
920.708	15150
920.818	15066
920.928	15093
921.038	15142
921.148	15138
921.258	14887
921.368	14746
921.477	14632
921.587	14705
921.697	14415
921.806	14651
921.916	14514
922.025	14332
922.134	14256
922.244	14286
922.353	14339
922.462	14149
922.571	14035
922.68	13986
922.789	13906
922.898	14008
923.007	13791
923.116	13887
923.224	13868
923.333	13864
923.442	13746
923.55	13620
923.659	13700
923.767	13715
923.876	13658
923.984	13769
924.092	13601
924.201	13689
924.309	13529
924.417	13578
924.525	13597
924.633	13575
924.741	14476
924.849	13392
924.956	13499
925.064	13285
925.172	13297
925.279	13327
925.387	13225
925.494	13278
925.602	13407
925.709	13343
925.816	13190
925.924	13187
926.031	13346
926.138	13274
926.245	13278
926.352	13198
926.459	13274
926.566	13331
926.673	13190
926.779	13072
926.886	13019
926.993	12924
927.099	12886
927.206	12798
927.312	12738
927.419	12875
927.525	12757
927.631	12901
927.737	12745
927.843	12650
927.95	12547
928.056	12662
928.162	12703
928.267	12745
928.373	13278
928.479	12764
928.585	12585
928.69	12604
928.796	12582
928.901	12536
929.007	12418
929.112	12536
929.218	12525
929.323	12403
929.428	12422
929.533	12532
929.638	12323
929.743	12346
929.848	12330
929.953	12418
930.058	12251
930.163	12091
930.267	12049
930.372	12201
930.477	12072
930.581	12304
930.685	12167
930.79	11961
930.894	11969
930.998	11950
931.103	12060
931.207	11786
931.311	11676
931.415	11558
931.519	11330
931.623	11334
