Data from test_V78500241_2381.txt Node
Date: Fri Mar 25 15:26:26 CST 2022
User: usil
Spectrometer: V785-0024
Trigger mode: 0
Integration Time (sec): 4.000000E-1
Scans to average: 1
Nonlinearity correction enabled: false
Boxcar width: 0
Storing dark spectrum: false
XAxis mode: Wavelengths
Number of Pixels in Spectrum: 1024
>>>>>Begin Spectral Data<<<<<
801.071	27294
801.214	27203
801.356	26994
801.499	26944
801.641	26845
801.783	26788
801.926	26876
802.068	26796
802.211	26834
802.353	26686
802.496	26526
802.638	26568
802.78	26381
802.923	26522
803.065	26377
803.208	26465
803.35	26488
803.492	26522
803.635	26659
803.777	26640
803.919	26792
804.061	26918
804.204	26769
804.346	26545
804.488	26613
804.63	26556
804.773	26526
804.915	26743
805.057	26842
805.199	26758
805.341	26674
805.483	26731
805.626	26804
805.768	26678
805.91	26815
806.052	26834
806.194	26686
806.336	26925
806.478	26754
806.62	26788
806.762	26990
806.904	27001
807.046	27306
807.188	27252
807.33	27294
807.472	27165
807.614	27093
807.756	27127
807.898	26929
808.04	26979
808.182	27066
808.324	27036
808.465	27119
808.607	27408
808.749	27302
808.891	27637
809.033	27519
809.174	27553
809.316	27367
809.458	27226
809.6	27260
809.741	27477
809.883	27466
810.025	27778
810.166	27720
810.308	27580
810.45	27424
810.591	27420
810.733	27279
810.875	27245
811.016	27279
811.158	27272
811.299	27348
811.441	27561
811.582	27439
811.724	27348
811.865	27378
812.007	27317
812.148	27359
812.29	27348
812.431	27599
812.573	27633
812.714	27705
812.855	28029
812.997	27846
813.138	28185
813.279	28063
813.421	27911
813.562	27770
813.703	27717
813.845	27496
813.986	27336
814.127	27093
814.268	27096
814.41	27036
814.551	27055
814.692	27093
814.833	27058
814.974	27024
815.115	27024
815.256	26914
815.397	26914
815.539	26899
815.68	26838
815.821	26777
815.962	26811
816.103	26796
816.244	26720
816.385	26495
816.526	26507
816.666	26336
816.807	26286
816.948	26385
817.089	26518
817.23	26438
817.371	26263
817.512	26161
817.653	26259
817.793	26214
817.934	26320
818.075	26252
818.216	26263
818.356	26259
818.497	26172
818.638	26092
818.778	26084
818.919	26077
819.06	26020
819.2	26218
819.341	26358
819.481	26358
819.622	26408
819.762	26670
819.903	26400
820.043	26609
820.184	26450
820.324	26370
820.465	26560
820.605	26476
820.746	26370
820.886	26256
821.026	26423
821.167	26408
821.307	26362
821.447	26248
821.588	26145
821.728	26214
821.868	25959
822.008	25734
822.149	25879
822.289	25822
822.429	25559
822.569	25533
822.709	25510
822.849	25225
822.99	25320
823.13	25324
823.27	25293
823.41	25107
823.55	25053
823.69	24992
823.83	25118
823.97	24973
824.11	24932
824.25	24772
824.389	24798
824.529	24970
824.669	24700
824.809	25103
824.949	24992
825.089	24954
825.228	25031
825.368	24817
825.508	24711
825.648	24871
825.787	24764
825.927	24795
826.067	24661
826.206	24859
826.346	24760
826.485	24798
826.625	24848
826.765	24772
826.904	24829
827.044	24597
827.183	24631
827.323	24532
827.462	24471
827.601	24376
827.741	24441
827.88	24551
828.02	24361
828.159	24407
828.298	24502
828.437	24426
828.577	24414
828.716	24407
828.855	24323
828.994	24235
829.134	24152
829.273	24186
829.412	24174
829.551	24228
829.69	24140
829.829	24190
829.968	24308
830.107	24277
830.246	24216
830.385	24140
830.524	24167
830.663	24049
830.802	23912
830.941	23809
831.08	23840
831.219	23802
831.357	23885
831.496	24003
831.635	23729
831.774	23687
831.913	23745
832.051	23585
832.19	23619
832.329	23539
832.467	23573
832.606	23459
832.744	23429
832.883	23474
833.022	23387
833.16	23562
833.299	23448
833.437	23391
833.576	23509
833.714	23592
833.852	23429
833.991	23630
834.129	23509
834.267	23566
834.406	23566
834.544	23490
834.682	23543
834.821	23501
834.959	23748
835.097	23524
835.235	23535
835.373	23615
835.511	23444
835.65	23337
835.788	23478
835.926	23261
836.064	23155
836.202	23318
836.34	23372
836.478	23417
836.615	23349
836.753	23326
836.891	23326
837.029	23368
837.167	23322
837.305	23246
837.443	23269
837.58	23075
837.718	23288
837.856	23208
837.993	23269
838.131	23227
838.269	23105
838.406	23170
838.544	23018
838.681	22911
838.819	22889
838.956	22816
839.094	22721
839.231	22752
839.369	22831
839.506	23212
839.643	22934
839.781	22668
839.918	22687
840.055	22721
840.193	22683
840.33	22550
840.467	22656
840.604	22694
840.742	22790
840.879	22557
841.016	22428
841.153	22588
841.29	22824
841.427	22504
841.564	22622
841.701	22782
841.838	22542
841.975	22542
842.112	22618
842.249	22527
842.385	22284
842.522	22485
842.659	22424
842.796	22440
842.933	22470
843.069	22371
843.206	22390
843.343	22421
843.479	22356
843.616	22413
843.752	22173
843.889	22128
844.025	22322
844.162	22200
844.298	22188
844.435	22158
844.571	22154
844.708	22230
844.844	22276
844.98	22371
845.117	22268
845.253	22173
845.389	21972
845.525	22006
845.661	22025
845.798	21941
845.934	21846
846.07	21865
846.206	21998
846.342	22162
846.478	21838
846.614	21663
846.75	21660
846.886	21641
847.022	21614
847.158	21690
847.294	21660
847.429	21682
847.565	21633
847.701	21766
847.837	21443
847.972	21458
848.108	21473
848.244	21408
848.379	21237
848.515	21203
848.65	21214
848.786	21283
848.921	21222
849.057	21294
849.192	21325
849.328	21279
849.463	21275
849.598	21233
849.734	21180
849.869	20979
850.004	21066
850.14	21081
850.275	21077
850.41	20861
850.545	21001
850.68	21009
850.815	21047
850.95	21028
851.085	21192
851.22	21051
851.355	20948
851.49	20937
851.625	20948
851.76	20887
851.895	20663
852.03	20883
852.165	20956
852.299	21039
852.434	20990
852.569	20944
852.703	20994
852.838	21009
852.973	21017
853.107	21127
853.242	20895
853.376	20716
853.511	20765
853.645	20872
853.78	20956
853.914	20716
854.048	20800
854.183	20811
854.317	20960
854.451	21195
854.585	20804
854.72	20845
854.854	20891
854.988	20735
855.122	20921
855.256	20609
855.39	20731
855.524	20902
855.658	20849
855.792	20731
855.926	20727
856.06	20735
856.194	20834
856.327	20746
856.461	20853
856.595	20754
856.729	20769
856.862	21062
856.996	20788
857.13	20914
857.263	20876
857.397	20921
857.53	20727
857.664	20830
857.797	20845
857.931	20883
858.064	20891
858.197	20842
858.331	20826
858.464	20708
858.597	20720
858.731	20823
858.864	20838
858.997	20765
859.13	20800
859.263	20845
859.396	20986
859.529	20758
859.662	20792
859.795	20838
859.928	20777
860.061	21009
860.194	21066
860.327	20902
860.46	20849
860.592	20960
860.725	20986
860.858	20979
860.99	20705
861.123	20716
861.256	20823
861.388	20697
861.521	21428
861.653	20693
861.786	20541
861.918	20686
862.05	20731
862.183	20609
862.315	20842
862.447	20838
862.58	20716
862.712	20590
862.844	20377
862.976	20579
863.108	20583
863.24	21028
863.372	20465
863.504	20644
863.636	20560
863.768	20541
863.9	20568
864.032	20499
864.164	20480
864.296	20492
864.428	20556
864.559	20640
864.691	20648
864.823	20564
864.954	20434
865.086	20434
865.217	20415
865.349	20385
865.48	20454
865.612	20442
865.743	20575
865.875	20427
866.006	20427
866.137	20377
866.269	20404
866.4	20415
866.531	20374
866.662	20358
866.793	20218
866.924	20343
867.055	20351
867.186	20438
867.317	20313
867.448	20191
867.579	20446
867.71	20362
867.841	20221
867.972	20374
868.103	20259
868.233	20412
868.364	20400
868.495	20431
868.625	20648
868.756	20644
868.886	20579
869.017	20507
869.147	20636
869.278	20731
869.408	20648
869.539	20617
869.669	20743
869.799	20648
869.929	20731
870.06	20701
870.19	20864
870.32	20887
870.45	21058
870.58	20990
870.71	21070
870.84	21070
870.97	21039
871.1	21013
871.23	21283
871.36	21127
871.489	21135
871.619	21165
871.749	21135
871.879	21184
872.008	21211
872.138	21222
872.267	21340
872.397	21043
872.526	21077
872.656	21119
872.785	21055
872.915	21176
873.044	21241
873.173	21085
873.303	21298
873.432	21252
873.561	21245
873.69	21226
873.819	21180
873.948	21401
874.077	21222
874.206	21104
874.335	21188
874.464	21268
874.593	21439
874.722	21420
874.851	21443
874.979	21492
875.108	21485
875.237	21439
875.365	21336
875.494	21408
875.623	21450
875.751	21443
875.88	21450
876.008	21549
876.136	21568
876.265	21937
876.393	22048
876.521	21975
876.65	21956
876.778	21934
876.906	21778
877.034	21705
877.162	21941
877.29	21709
877.418	21800
877.546	21857
877.674	21797
877.802	21823
877.93	21846
878.058	21770
878.185	21656
878.313	21835
878.441	21850
878.568	21660
878.696	21899
878.824	21785
878.951	21865
879.079	21983
879.206	21960
879.333	22040
879.461	21827
879.588	21876
879.715	21972
879.842	22139
879.97	21819
880.097	21785
880.224	21675
880.351	21751
880.478	21759
880.605	21698
880.732	21572
880.859	21797
880.986	21778
881.112	21739
881.239	21530
881.366	21500
881.493	21272
881.619	21336
881.746	21256
881.872	21298
881.999	21199
882.125	21127
882.252	21256
882.378	21176
882.505	21370
882.631	20963
882.757	20990
882.883	21017
883.01	21074
883.136	20899
883.262	20811
883.388	20609
883.514	20861
883.64	20994
883.766	20933
883.892	20815
884.018	20594
884.143	20826
884.269	20960
884.395	20705
884.52	20648
884.646	20667
884.772	20530
884.897	20381
885.023	20560
885.148	20659
885.274	20667
885.399	20754
885.524	20488
885.65	20587
885.775	20541
885.9	20526
886.025	20682
886.15	20663
886.275	20526
886.4	20488
886.525	20575
886.65	20480
886.775	20560
886.9	20655
887.025	20689
887.149	20450
887.274	20294
887.399	20324
887.523	20412
887.648	20396
887.773	20267
887.897	20480
888.021	20393
888.146	20282
888.27	20370
888.395	20575
888.519	20434
888.643	20294
888.767	20465
888.891	20339
889.015	20290
889.139	20157
889.263	20130
889.387	20191
889.511	20419
889.635	20332
889.759	20111
889.883	20149
890.006	20168
890.13	20301
890.254	20092
890.377	20088
890.501	19986
890.624	19845
890.748	19909
890.871	19871
890.995	19704
891.118	19704
891.241	19738
891.364	19814
891.488	19868
891.611	19658
891.734	19784
891.857	19791
891.98	19696
892.103	19761
892.226	19670
892.349	19723
892.471	19460
892.594	19582
892.717	19613
892.839	19597
892.962	19578
893.085	19780
893.207	19651
893.33	19575
893.452	19578
893.575	19655
893.697	19502
893.819	19860
893.941	19788
894.064	19738
894.186	19620
894.308	19613
894.43	19639
894.552	19788
894.674	19734
894.796	19460
894.918	19651
895.04	19704
895.161	19753
895.283	19662
895.405	19540
895.526	19582
895.648	19643
895.769	19616
895.891	19639
896.012	19780
896.134	19784
896.255	19651
896.376	19700
896.498	19632
896.619	19624
896.74	19628
896.861	19712
896.982	19947
897.103	20096
897.224	19944
897.345	19856
897.466	19868
897.587	19822
897.708	20035
897.828	19845
897.949	19822
898.07	19639
898.19	19883
898.311	19921
898.431	19795
898.552	19936
898.672	20069
898.792	19898
898.913	19868
899.033	19753
899.153	19723
899.273	19635
899.393	19578
899.513	19643
899.633	19655
899.753	19571
899.873	19620
899.993	19704
900.113	19525
900.232	19548
900.352	19597
900.472	19441
900.591	19331
900.711	19510
900.83	19293
900.95	19582
901.069	19483
901.189	19335
901.308	19046
901.427	19019
901.546	19080
901.665	19069
901.784	19065
901.904	18890
902.023	18795
902.141	18627
902.26	18620
902.379	18551
902.498	18578
902.617	18467
902.735	18601
902.854	18410
902.973	18429
903.091	18262
903.21	18194
903.328	18216
903.446	18022
903.565	18045
903.683	17958
903.801	18011
903.919	17999
904.038	17863
904.156	17805
904.274	17824
904.392	17790
904.51	17684
904.627	17767
904.745	17889
904.863	17840
904.981	17509
905.098	17417
905.216	17512
905.334	17520
905.451	17497
905.569	17395
905.686	17417
905.803	17417
905.921	17254
906.038	17360
906.155	17307
906.272	17132
906.389	17242
906.506	16934
906.623	17041
906.74	17006
906.857	16854
906.974	16961
907.091	17132
907.208	17060
907.324	16980
907.441	16877
907.557	16729
907.674	16748
907.79	16668
907.907	16694
908.023	16835
908.139	16759
908.256	16702
908.372	16618
908.488	16615
908.604	16459
908.72	16512
908.836	16493
908.952	16447
909.068	16497
909.184	16516
909.3	16447
909.415	16462
909.531	16447
909.647	16246
909.762	16204
909.878	16059
909.993	16124
910.108	16128
910.224	16135
910.339	16124
910.454	15998
910.57	16006
910.685	15956
910.8	16166
910.915	16093
911.03	16044
911.145	15827
911.259	15679
911.374	15698
911.489	15686
911.604	15599
911.718	15523
911.833	15477
911.947	15374
912.062	15287
912.176	15447
912.291	15431
912.405	15469
912.519	15675
912.633	15720
912.748	15515
912.862	15473
912.976	15306
913.09	15222
913.204	15275
913.318	15252
913.431	15351
913.545	15351
913.659	15469
913.772	15207
913.886	15192
914	15104
914.113	15237
914.226	15256
914.34	15226
914.453	15024
914.566	15180
914.68	14967
914.793	14937
914.906	14838
915.019	14804
915.132	14750
915.245	14659
915.358	14648
915.47	14583
915.583	14739
915.696	14781
915.809	14872
915.921	14914
916.034	14716
916.146	14564
916.259	14602
916.371	14667
916.483	14648
916.595	14560
916.708	14636
916.82	14583
916.932	14514
917.044	14473
917.156	14556
917.268	14476
917.38	14473
917.491	14431
917.603	14507
917.715	14431
917.826	14530
917.938	14431
918.049	14286
918.161	14320
918.272	14488
918.384	14461
918.495	14343
918.606	14313
918.717	14111
918.828	14187
918.939	14210
919.05	14046
919.161	14199
919.272	13993
919.383	14027
919.494	14248
919.604	14393
919.715	14123
919.826	14046
919.936	14180
920.047	14210
920.157	14199
920.267	14358
920.378	14191
920.488	14069
920.598	14343
920.708	14431
920.818	14317
920.928	14259
921.038	14438
921.148	14423
921.258	14202
921.368	14031
921.477	13928
921.587	13822
921.697	13784
921.806	13909
921.916	13780
922.025	13655
922.134	13594
922.244	13514
922.353	13533
922.462	13373
922.571	13369
922.68	13274
922.789	13247
922.898	13198
923.007	13152
923.116	13228
923.224	13171
923.333	13084
923.442	13027
923.55	13061
923.659	13050
923.767	13069
923.876	13012
923.984	12935
924.092	12973
924.201	12932
924.309	12928
924.417	12810
924.525	12894
924.633	12939
924.741	13807
924.849	12608
924.956	12817
925.064	12772
925.172	12570
925.279	12517
925.387	12681
925.494	12555
925.602	12760
925.709	12684
925.816	12566
925.924	12654
926.031	12711
926.138	12642
926.245	12642
926.352	12403
926.459	12601
926.566	12654
926.673	12498
926.779	12395
926.886	12372
926.993	12254
927.099	12220
927.206	12095
927.312	12136
927.419	12300
927.525	12152
927.631	12159
927.737	12079
927.843	12167
927.95	11912
928.056	12155
928.162	12049
928.267	11996
928.373	12665
928.479	12030
928.585	11897
928.69	11992
928.796	12034
928.901	11946
929.007	11718
929.112	11882
929.218	11874
929.323	11912
929.428	11756
929.533	11942
929.638	11668
929.743	11729
929.848	11737
929.953	11657
930.058	11615
930.163	11395
930.267	11490
930.372	11577
930.477	11406
930.581	11676
930.685	11467
930.79	11356
930.894	11353
930.998	11258
931.103	11490
931.207	11029
931.311	11090
931.415	10908
931.519	10797
931.623	10767
