Data from test_V78500241_1222.txt Node
Date: Fri Mar 25 15:18:21 CST 2022
User: usil
Spectrometer: V785-0024
Trigger mode: 0
Integration Time (sec): 4.000000E-1
Scans to average: 1
Nonlinearity correction enabled: false
Boxcar width: 0
Storing dark spectrum: false
XAxis mode: Wavelengths
Number of Pixels in Spectrum: 1024
>>>>>Begin Spectral Data<<<<<
801.071	28310
801.214	28230
801.356	27884
801.499	27884
801.641	27572
801.783	27755
801.926	27846
802.068	27808
802.211	27633
802.353	27530
802.496	27580
802.638	27386
802.78	27351
802.923	27287
803.065	27424
803.208	27416
803.35	27287
803.492	27469
803.635	27675
803.777	27675
803.919	27614
804.061	27949
804.204	27728
804.346	27583
804.488	27504
804.63	27587
804.773	27622
804.915	27603
805.057	27789
805.199	27637
805.341	27724
805.483	27778
805.626	27869
805.768	27667
805.91	27766
806.052	27637
806.194	27774
806.336	27907
806.478	27827
806.62	27979
806.762	27907
806.904	28036
807.046	28143
807.188	28230
807.33	28169
807.472	28272
807.614	28128
807.756	28226
807.898	28211
808.04	28063
808.182	27964
808.324	28154
808.465	28139
808.607	28314
808.749	28417
808.891	28428
809.033	28519
809.174	28557
809.316	28382
809.458	28519
809.6	28523
809.741	28478
809.883	28588
810.025	28797
810.166	28740
810.308	28748
810.45	28626
810.591	28721
810.733	28535
810.875	28459
811.016	28348
811.158	28299
811.299	28504
811.441	28733
811.582	28500
811.724	28436
811.865	28481
812.007	28466
812.148	28470
812.29	28390
812.431	28660
812.573	28812
812.714	28797
812.855	28930
812.997	29003
813.138	29265
813.279	29121
813.421	29090
813.562	29102
813.703	28938
813.845	28847
813.986	28485
814.127	28192
814.268	28082
814.41	28325
814.551	28162
814.692	28333
814.833	28128
814.974	28032
815.115	28185
815.256	27918
815.397	28078
815.539	28048
815.68	27998
815.821	27953
815.962	28078
816.103	28006
816.244	27991
816.385	27743
816.526	27675
816.666	27561
816.807	27538
816.948	27515
817.089	27633
817.23	27481
817.371	27545
817.512	27466
817.653	27519
817.793	27431
817.934	27477
818.075	27519
818.216	27447
818.356	27367
818.497	27230
818.638	27279
818.778	27195
818.919	27173
819.06	27378
819.2	27310
819.341	27469
819.481	27519
819.622	27618
819.762	27899
819.903	27781
820.043	27610
820.184	27568
820.324	27728
820.465	27679
820.605	27526
820.746	27637
820.886	27329
821.026	27504
821.167	27606
821.307	27572
821.447	27431
821.588	27211
821.728	27363
821.868	27127
822.008	27032
822.149	26887
822.289	27001
822.429	26712
822.569	26686
822.709	26511
822.849	26492
822.99	26332
823.13	26412
823.27	26488
823.41	26351
823.55	26252
823.69	26374
823.83	26252
823.97	26225
824.11	26058
824.25	26031
824.389	26081
824.529	26298
824.669	26122
824.809	26290
824.949	26142
825.089	26259
825.228	26259
825.368	26001
825.508	25936
825.648	26115
825.787	25993
825.927	26039
826.067	25928
826.206	25989
826.346	26020
826.485	25986
826.625	25879
826.765	26229
826.904	26069
827.044	25765
827.183	25879
827.323	25750
827.462	25833
827.601	25852
827.741	25559
827.88	25704
828.02	25483
828.159	25791
828.298	25723
828.437	25693
828.577	25666
828.716	25864
828.855	25613
828.994	25479
829.134	25502
829.273	25479
829.412	25407
829.551	25327
829.69	25453
829.829	25384
829.968	25537
830.107	25491
830.246	25521
830.385	25377
830.524	25343
830.663	25187
830.802	25152
830.941	25198
831.08	25091
831.219	25057
831.357	25118
831.496	25270
831.635	25110
831.774	25008
831.913	24935
832.051	24886
832.19	24856
832.329	24875
832.467	24700
832.606	24684
832.744	24829
832.883	24681
833.022	24601
833.16	24677
833.299	24768
833.437	24684
833.576	24798
833.714	24806
833.852	24833
833.991	24817
834.129	24859
834.267	24787
834.406	24802
834.544	24810
834.682	24798
834.821	24757
834.959	24973
835.097	24703
835.235	24703
835.373	24825
835.511	24764
835.65	24608
835.788	24677
835.926	24509
836.064	24525
836.202	24498
836.34	24578
836.478	24768
836.615	24582
836.753	24654
836.891	24608
837.029	24696
837.167	24623
837.305	24509
837.443	24570
837.58	24384
837.718	24635
837.856	24486
837.993	24342
838.131	24277
838.269	24357
838.406	24437
838.544	24266
838.681	24114
838.819	24007
838.956	23859
839.094	23874
839.231	24064
839.369	24068
839.506	24228
839.643	24178
839.781	24064
839.918	23843
840.055	23935
840.193	23939
840.33	23885
840.467	23855
840.604	23863
840.742	24038
840.879	23672
841.016	23745
841.153	23741
841.29	23950
841.427	23832
841.564	23840
841.701	23931
841.838	23699
841.975	23649
842.112	23752
842.249	23596
842.385	23661
842.522	23798
842.659	23653
842.796	23611
842.933	23524
843.069	23543
843.206	23600
843.343	23642
843.479	23630
843.616	23509
843.752	23410
843.889	23398
844.025	23444
844.162	23391
844.298	23474
844.435	23379
844.571	23364
844.708	23273
844.844	23493
844.98	23505
845.117	23509
845.253	23288
845.389	23151
845.525	23334
845.661	23178
845.798	23105
845.934	23147
846.07	23197
846.206	23025
846.342	23200
846.478	23079
846.614	22805
846.75	22828
846.886	22839
847.022	22980
847.158	22763
847.294	22839
847.429	22774
847.565	22763
847.701	23037
847.837	22607
847.972	22603
848.108	22641
848.244	22569
848.379	22443
848.515	22310
848.65	22451
848.786	22504
848.921	22493
849.057	22588
849.192	22584
849.328	22459
849.463	22436
849.598	22348
849.734	22295
849.869	22265
850.004	22192
850.14	22177
850.275	22192
850.41	22109
850.545	22158
850.68	22257
850.815	22234
850.95	22082
851.085	22310
851.22	22344
851.355	22299
851.49	22246
851.625	22215
851.76	22295
851.895	22090
852.03	22162
852.165	22112
852.299	22173
852.434	22162
852.569	22188
852.703	22238
852.838	22333
852.973	22348
853.107	22337
853.242	22006
853.376	22139
853.511	21838
853.645	21850
853.78	22196
853.914	21956
854.048	21979
854.183	21953
854.317	22021
854.451	22166
854.585	21960
854.72	22006
854.854	22116
854.988	21865
855.122	21846
855.256	21956
855.39	21998
855.524	22177
855.658	21991
855.792	22131
855.926	21956
856.06	22002
856.194	22196
856.327	21945
856.461	22025
856.595	21899
856.729	21907
856.862	22139
856.996	21983
857.13	22002
857.263	22017
857.397	22162
857.53	21953
857.664	22036
857.797	22124
857.931	22097
858.064	22048
858.197	22067
858.331	22006
858.464	21953
858.597	21915
858.731	22048
858.864	22010
858.997	22010
859.13	21991
859.263	21987
859.396	22101
859.529	22013
859.662	22036
859.795	21991
859.928	21994
860.061	22291
860.194	22204
860.327	21983
860.46	21964
860.592	22162
860.725	22086
860.858	22059
860.99	21941
861.123	21907
861.256	21956
861.388	22063
861.521	22740
861.653	21876
861.786	21884
861.918	21964
862.05	21865
862.183	21991
862.315	21945
862.447	21987
862.58	21838
862.712	21671
862.844	21709
862.976	21831
863.108	21823
863.24	22082
863.372	21663
863.504	21682
863.636	21644
863.768	21812
863.9	21732
864.032	21713
864.164	21679
864.296	21701
864.428	21785
864.559	21728
864.691	21789
864.823	21656
864.954	21713
865.086	21774
865.217	21633
865.349	21408
865.48	21694
865.612	21595
865.743	21625
865.875	21641
866.006	21504
866.137	21663
866.269	21713
866.4	21553
866.531	21485
866.662	21530
866.793	21641
866.924	21488
867.055	21488
867.186	21557
867.317	21515
867.448	21515
867.579	21462
867.71	21477
867.841	21477
867.972	21519
868.103	21469
868.233	21530
868.364	21485
868.495	21660
868.625	21713
868.756	21819
868.886	21648
869.017	21903
869.147	21854
869.278	21781
869.408	21770
869.539	21694
869.669	21759
869.799	21812
869.929	21869
870.06	21770
870.19	22048
870.32	22048
870.45	22120
870.58	22124
870.71	22318
870.84	22173
870.97	22188
871.1	22070
871.23	22341
871.36	22333
871.489	22333
871.619	22162
871.749	22303
871.879	22337
872.008	22375
872.138	22375
872.267	22367
872.397	22234
872.526	22204
872.656	22234
872.785	22169
872.915	22413
873.044	22531
873.173	22341
873.303	22440
873.432	22371
873.561	22440
873.69	22417
873.819	22337
873.948	22421
874.077	22390
874.206	22207
874.335	22394
874.464	22493
874.593	22588
874.722	22478
874.851	22622
874.979	22542
875.108	22592
875.237	22512
875.365	22474
875.494	22424
875.623	22615
875.751	22561
875.88	22626
876.008	22706
876.136	22752
876.265	23029
876.393	23083
876.521	22965
876.65	23098
876.778	23121
876.906	22862
877.034	22869
877.162	22927
877.29	22889
877.418	22908
877.546	22889
877.674	22858
877.802	22953
877.93	22946
878.058	22911
878.185	22820
878.313	22771
878.441	22881
878.568	22679
878.696	22748
878.824	22831
878.951	23033
879.079	22995
879.206	23075
879.333	23033
879.461	22949
879.588	23037
879.715	23105
879.842	23197
879.97	23014
880.097	22790
880.224	22752
880.351	22812
880.478	22698
880.605	22641
880.732	22675
880.859	22930
880.986	22729
881.112	22698
881.239	22649
881.366	22386
881.493	22356
881.619	22367
881.746	22280
881.872	22379
881.999	22287
882.125	22249
882.252	22367
882.378	22219
882.505	22352
882.631	22223
882.757	22025
882.883	22010
883.01	21907
883.136	21941
883.262	21823
883.388	21880
883.514	21994
883.64	22040
883.766	21915
883.892	21739
884.018	21838
884.143	21972
884.269	21968
884.395	21663
884.52	21561
884.646	21656
884.772	21618
884.897	21633
885.023	21599
885.148	21728
885.274	21739
885.399	21778
885.524	21694
885.65	21603
885.775	21701
885.9	21660
886.025	21694
886.15	21762
886.275	21561
886.4	21496
886.525	21534
886.65	21542
886.775	21648
886.9	21770
887.025	21835
887.149	21606
887.274	21431
887.399	21397
887.523	21317
887.648	21340
887.773	21378
887.897	21431
888.021	21477
888.146	21348
888.27	21424
888.395	21466
888.519	21412
888.643	21405
888.767	21306
888.891	21283
889.015	21294
889.139	21268
889.263	21165
889.387	21317
889.511	21401
889.635	21291
889.759	21157
889.883	21291
890.006	21165
890.13	21287
890.254	21252
890.377	21028
890.501	20986
890.624	20895
890.748	20975
890.871	20819
890.995	20773
891.118	20712
891.241	20724
891.364	20750
891.488	20834
891.611	20845
891.734	20883
891.857	20823
891.98	20754
892.103	20785
892.226	20777
892.349	20602
892.471	20556
892.594	20750
892.717	20720
892.839	20708
892.962	20746
893.085	20655
893.207	20644
893.33	20590
893.452	20518
893.575	20613
893.697	20571
893.819	20796
893.941	20838
894.064	20765
894.186	20469
894.308	20549
894.43	20716
894.552	20838
894.674	20674
894.796	20568
894.918	20590
895.04	20640
895.161	20765
895.283	20636
895.405	20674
895.526	20583
895.648	20511
895.769	20712
895.891	20526
896.012	20697
896.134	20762
896.255	20667
896.376	20514
896.498	20644
896.619	20705
896.74	20697
896.861	20655
896.982	21020
897.103	21062
897.224	20842
897.345	20769
897.466	20735
897.587	20849
897.708	20906
897.828	20769
897.949	20670
898.07	20636
898.19	20625
898.311	20887
898.431	20750
898.552	20956
898.672	20914
898.792	20933
898.913	20891
899.033	20731
899.153	20716
899.273	20571
899.393	20560
899.513	20727
899.633	20640
899.753	20533
899.873	20571
899.993	20549
900.113	20609
900.232	20609
900.352	20476
900.472	20571
900.591	20309
900.711	20301
900.83	20328
900.95	20396
901.069	20465
901.189	20286
901.308	19913
901.427	19887
901.546	19875
901.665	19833
901.784	19932
901.904	19765
902.023	19685
902.141	19502
902.26	19491
902.379	19464
902.498	19434
902.617	19331
902.735	19487
902.854	19430
902.973	19354
903.091	19129
903.21	19126
903.328	19076
903.446	19050
903.565	18875
903.683	18920
903.801	18859
903.919	18913
904.038	18829
904.156	18642
904.274	18654
904.392	18635
904.51	18555
904.627	18608
904.745	18593
904.863	18601
904.981	18403
905.098	18483
905.216	18365
905.334	18403
905.451	18285
905.569	18270
905.686	18357
905.803	18266
905.921	18136
906.038	18243
906.155	18022
906.272	17958
906.389	18133
906.506	17863
906.623	17851
906.74	17855
906.857	17722
906.974	17885
907.091	17882
907.208	18003
907.324	17920
907.441	17798
907.557	17592
907.674	17524
907.79	17604
907.907	17543
908.023	17676
908.139	17486
908.256	17623
908.372	17429
908.488	17474
908.604	17318
908.72	17231
908.836	17303
908.952	17231
909.068	17330
909.184	17280
909.3	17258
909.415	17330
909.531	17258
909.647	16949
909.762	16999
909.878	16961
909.993	16889
910.108	16889
910.224	17022
910.339	17045
910.454	16957
910.57	16805
910.685	16679
910.8	16923
910.915	16866
911.03	16782
911.145	16516
911.259	16626
911.374	16538
911.489	16523
911.604	16554
911.718	16344
911.833	16322
911.947	16150
912.062	16116
912.176	16272
912.291	16329
912.405	16253
912.519	16447
912.633	16478
912.748	16356
912.862	16318
912.976	16185
913.09	16010
913.204	16067
913.318	16185
913.431	16154
913.545	16242
913.659	16188
913.772	16051
913.886	15945
914	15907
914.113	15918
914.226	16078
914.34	16074
914.453	15842
914.566	15949
914.68	15797
914.793	15739
914.906	15618
915.019	15515
915.132	15458
915.245	15466
915.358	15443
915.47	15469
915.583	15507
915.696	15580
915.809	15701
915.921	15610
916.034	15462
916.146	15408
916.259	15370
916.371	15564
916.483	15370
916.595	15485
916.708	15340
916.82	15340
916.932	15306
917.044	15165
917.156	15241
917.268	15108
917.38	15116
917.491	15097
917.603	15127
917.715	15192
917.826	15211
917.938	15146
918.049	14975
918.161	15047
918.272	15199
918.384	15142
918.495	15108
918.606	15009
918.717	14880
918.828	14895
918.939	14906
919.05	14701
919.161	14864
919.272	14758
919.383	14758
919.494	14853
919.604	15085
919.715	14880
919.826	14857
919.936	14807
920.047	14971
920.157	14933
920.267	15176
920.378	14834
920.488	14834
920.598	15066
920.708	15104
920.818	15062
920.928	15024
921.038	15207
921.148	15062
921.258	14769
921.368	14621
921.477	14537
921.587	14587
921.697	14457
921.806	14701
921.916	14370
922.025	14210
922.134	14218
922.244	14183
922.353	14202
922.462	14062
922.571	13986
922.68	13982
922.789	13814
922.898	13963
923.007	13788
923.116	13879
923.224	13841
923.333	13822
923.442	13674
923.55	13700
923.659	13772
923.767	13693
923.876	13613
923.984	13750
924.092	13567
924.201	13613
924.309	13647
924.417	13597
924.525	13502
924.633	13407
924.741	14324
924.849	13339
924.956	13468
925.064	13365
925.172	13194
925.279	13228
925.387	13297
925.494	13282
925.602	13400
925.709	13358
925.816	13156
925.924	13152
926.031	13278
926.138	13206
926.245	13194
926.352	13057
926.459	13118
926.566	13255
926.673	13126
926.779	13053
926.886	12966
926.993	12867
927.099	12821
927.206	12817
927.312	12669
927.419	12817
927.525	12852
927.631	12844
927.737	12677
927.843	12639
927.95	12540
928.056	12570
928.162	12654
928.267	12650
928.373	13187
928.479	12703
928.585	12365
928.69	12437
928.796	12623
928.901	12544
929.007	12380
929.112	12475
929.218	12429
929.323	12486
929.428	12350
929.533	12422
929.638	12235
929.743	12251
929.848	12334
929.953	12281
930.058	12247
930.163	12011
930.267	12068
930.372	12121
930.477	11977
930.581	12201
930.685	12072
930.79	11927
930.894	11950
930.998	11851
931.103	11961
931.207	11642
931.311	11600
931.415	11581
931.519	11254
931.623	11337
