Data from test_V78500241_2195.txt Node
Date: Fri Mar 25 15:25:08 CST 2022
User: usil
Spectrometer: V785-0024
Trigger mode: 0
Integration Time (sec): 4.000000E-1
Scans to average: 1
Nonlinearity correction enabled: false
Boxcar width: 0
Storing dark spectrum: false
XAxis mode: Wavelengths
Number of Pixels in Spectrum: 1024
>>>>>Begin Spectral Data<<<<<
801.071	27728
801.214	27717
801.356	27469
801.499	27485
801.641	27207
801.783	27237
801.926	27363
802.068	27245
802.211	27275
802.353	27100
802.496	26921
802.638	26956
802.78	26823
802.923	26956
803.065	26712
803.208	26845
803.35	26800
803.492	27066
803.635	27108
803.777	27055
803.919	27192
804.061	27481
804.204	27226
804.346	27207
804.488	26963
804.63	27150
804.773	26940
804.915	27237
805.057	27138
805.199	27161
805.341	27165
805.483	27203
805.626	27272
805.768	27260
805.91	27176
806.052	27169
806.194	27176
806.336	27355
806.478	27279
806.62	27374
806.762	27325
806.904	27507
807.046	27739
807.188	27599
807.33	27724
807.472	27808
807.614	27580
807.756	27656
807.898	27641
808.04	27420
808.182	27386
808.324	27587
808.465	27583
808.607	27781
808.749	27816
808.891	27865
809.033	28017
809.174	27873
809.316	27949
809.458	27930
809.6	27857
809.741	27907
809.883	27983
810.025	28120
810.166	28173
810.308	28188
810.45	28025
810.591	28078
810.733	28044
810.875	27724
811.016	27766
811.158	27694
811.299	27983
811.441	28025
811.582	28017
811.724	27766
811.865	27857
812.007	27922
812.148	27797
812.29	27778
812.431	27960
812.573	28128
812.714	28394
812.855	28356
812.997	28341
813.138	28611
813.279	28470
813.421	28497
813.562	28352
813.703	28139
813.845	28086
813.986	27842
814.127	27705
814.268	27557
814.41	27625
814.551	27572
814.692	27637
814.833	27481
814.974	27587
815.115	27538
815.256	27393
815.397	27496
815.539	27534
815.68	27344
815.821	27260
815.962	27485
816.103	27431
816.244	27283
816.385	27173
816.526	27070
816.666	26979
816.807	26716
816.948	26880
817.089	26864
817.23	27032
817.371	26765
817.512	26838
817.653	26777
817.793	26861
817.934	26853
818.075	26929
818.216	26952
818.356	26800
818.497	26587
818.638	26461
818.778	26659
818.919	26571
819.06	26613
819.2	26667
819.341	26819
819.481	26838
819.622	26937
819.762	27176
819.903	27058
820.043	27043
820.184	26952
820.324	27005
820.465	27036
820.605	26986
820.746	26819
820.886	26853
821.026	26883
821.167	26883
821.307	26842
821.447	26819
821.588	26819
821.728	26571
821.868	26442
822.008	26358
822.149	26259
822.289	26343
822.429	26081
822.569	26031
822.709	25921
822.849	25799
822.99	25849
823.13	25761
823.27	25750
823.41	25655
823.55	25491
823.69	25594
823.83	25506
823.97	25533
824.11	25521
824.25	25324
824.389	25495
824.529	25430
824.669	25415
824.809	25453
824.949	25514
825.089	25613
825.228	25457
825.368	25301
825.508	25282
825.648	25346
825.787	25308
825.927	25308
826.067	25381
826.206	25168
826.346	25304
826.485	25339
826.625	25304
826.765	25499
826.904	25388
827.044	25072
827.183	24935
827.323	25034
827.462	25038
827.601	25076
827.741	25027
827.88	25000
828.02	24924
828.159	25076
828.298	25072
828.437	24977
828.577	24970
828.716	24943
828.855	24901
828.994	24612
829.134	24798
829.273	24878
829.412	24669
829.551	24669
829.69	24631
829.829	24616
829.968	24764
830.107	24768
830.246	24703
830.385	24547
830.524	24726
830.663	24525
830.802	24388
830.941	24266
831.08	24296
831.219	24384
831.357	24365
831.496	24658
831.635	24353
831.774	24102
831.913	24159
832.051	24095
832.19	24114
832.329	24072
832.467	24060
832.606	23851
832.744	23790
832.883	24076
833.022	23961
833.16	23980
833.299	24045
833.437	24110
833.576	23942
833.714	24045
833.852	23969
833.991	24060
834.129	23996
834.267	24171
834.406	24091
834.544	24083
834.682	24049
834.821	24133
834.959	24216
835.097	23946
835.235	24045
835.373	24011
835.511	24038
835.65	23866
835.788	23882
835.926	23737
836.064	23741
836.202	23634
836.34	23923
836.478	23893
836.615	23843
836.753	23893
836.891	23813
837.029	23866
837.167	23836
837.305	23836
837.443	23634
837.58	23509
837.718	23665
837.856	23699
837.993	23634
838.131	23676
838.269	23528
838.406	23611
838.544	23547
838.681	23307
838.819	23353
838.956	23246
839.094	23223
839.231	23231
839.369	23391
839.506	23433
839.643	23402
839.781	23166
839.918	23147
840.055	23155
840.193	23208
840.33	23181
840.467	23151
840.604	23212
840.742	23246
840.879	22927
841.016	22900
841.153	22984
841.29	23143
841.427	23174
841.564	23090
841.701	23067
841.838	23018
841.975	22835
842.112	22991
842.249	22942
842.385	22725
842.522	23010
842.659	22885
842.796	22957
842.933	22805
843.069	22793
843.206	22824
843.343	22938
843.479	22752
843.616	22873
843.752	22763
843.889	22550
844.025	22786
844.162	22615
844.298	22767
844.435	22504
844.571	22421
844.708	22710
844.844	22740
844.98	22649
845.117	22733
845.253	22538
845.389	22493
845.525	22519
845.661	22428
845.798	22306
845.934	22417
846.07	22371
846.206	22371
846.342	22440
846.478	22280
846.614	22116
846.75	22093
846.886	22086
847.022	22166
847.158	22051
847.294	22204
847.429	22070
847.565	22223
847.701	22303
847.837	21766
847.972	21606
848.108	22002
848.244	21823
848.379	21686
848.515	21614
848.65	21561
848.786	21686
848.921	21675
849.057	21720
849.192	21800
849.328	21736
849.463	21709
849.598	21622
849.734	21580
849.869	21622
850.004	21408
850.14	21462
850.275	21530
850.41	21336
850.545	21378
850.68	21473
850.815	21454
850.95	21332
851.085	21549
851.22	21534
851.355	21363
851.49	21313
851.625	21294
851.76	21348
851.895	21386
852.03	21348
852.165	21325
852.299	21507
852.434	21450
852.569	21397
852.703	21393
852.838	21447
852.973	21477
853.107	21420
853.242	21382
853.376	21260
853.511	21062
853.645	21291
853.78	21458
853.914	21329
854.048	21306
854.183	21165
854.317	21344
854.451	21401
854.585	21112
854.72	21245
854.854	21260
854.988	21157
855.122	21298
855.256	21131
855.39	21203
855.524	21283
855.658	21264
855.792	21249
855.926	21317
856.06	21374
856.194	21294
856.327	21279
856.461	21157
856.595	21157
856.729	21150
856.862	21302
856.996	21283
857.13	21100
857.263	21420
857.397	21378
857.53	21291
857.664	21230
857.797	21332
857.931	21386
858.064	21329
858.197	21199
858.331	21184
858.464	21146
858.597	21081
858.731	21176
858.864	21161
858.997	21222
859.13	21321
859.263	21389
859.396	21264
859.529	21264
859.662	21154
859.795	21294
859.928	21268
860.061	21450
860.194	21435
860.327	21382
860.46	21302
860.592	21355
860.725	21359
860.858	21264
860.99	21268
861.123	21131
861.256	21233
861.388	21237
861.521	21953
861.653	21062
861.786	21051
861.918	21192
862.05	21176
862.183	21150
862.315	21230
862.447	21279
862.58	21104
862.712	21051
862.844	20880
862.976	21070
863.108	21024
863.24	21252
863.372	20952
863.504	20937
863.636	20849
863.768	21001
863.9	20895
864.032	20906
864.164	20891
864.296	20918
864.428	20998
864.559	21017
864.691	20941
864.823	20952
864.954	20963
865.086	20902
865.217	20895
865.349	20823
865.48	20868
865.612	20838
865.743	20918
865.875	20880
866.006	20765
866.137	20887
866.269	20845
866.4	20838
866.531	20792
866.662	20727
866.793	20861
866.924	20830
867.055	20781
867.186	20811
867.317	20823
867.448	20762
867.579	20746
867.71	20644
867.841	20762
867.972	20727
868.103	20636
868.233	20796
868.364	20758
868.495	21001
868.625	20956
868.756	21173
868.886	20941
869.017	21081
869.147	21176
869.278	21161
869.408	21039
869.539	21074
869.669	21180
869.799	20994
869.929	21135
870.06	21119
870.19	21382
870.32	21340
870.45	21386
870.58	21363
870.71	21534
870.84	21412
870.97	21462
871.1	21488
871.23	21603
871.36	21549
871.489	21564
871.619	21644
871.749	21488
871.879	21705
872.008	21698
872.138	21526
872.267	21625
872.397	21431
872.526	21431
872.656	21488
872.785	21374
872.915	21591
873.044	21778
873.173	21572
873.303	21648
873.432	21819
873.561	21701
873.69	21603
873.819	21656
873.948	21781
874.077	21622
874.206	21633
874.335	21576
874.464	21846
874.593	21850
874.722	21819
874.851	21812
874.979	21895
875.108	21759
875.237	21816
875.365	21739
875.494	21846
875.623	21793
875.751	21937
875.88	21972
876.008	22010
876.136	22032
876.265	22280
876.393	22371
876.521	22337
876.65	22417
876.778	22306
876.906	22234
877.034	22192
877.162	22276
877.29	22162
877.418	22238
877.546	22211
877.674	22196
877.802	22280
877.93	22200
878.058	22109
878.185	22006
878.313	22150
878.441	22082
878.568	22010
878.696	21979
878.824	22299
878.951	22299
879.079	22413
879.206	22493
879.333	22405
879.461	22223
879.588	22253
879.715	22409
879.842	22379
879.97	22139
880.097	22131
880.224	21941
880.351	22093
880.478	21949
880.605	21960
880.732	22070
880.859	22257
880.986	21930
881.112	22116
881.239	21918
881.366	21694
881.493	21682
881.619	21679
881.746	21599
881.872	21698
881.999	21500
882.125	21538
882.252	21572
882.378	21496
882.505	21717
882.631	21462
882.757	21378
882.883	21317
883.01	21340
883.136	21233
883.262	21150
883.388	21066
883.514	21336
883.64	21302
883.766	21256
883.892	21131
884.018	21085
884.143	21351
884.269	21397
884.395	21009
884.52	20891
884.646	21013
884.772	20998
884.897	20960
885.023	20975
885.148	21005
885.274	21116
885.399	21051
885.524	20845
885.65	20944
885.775	21036
885.9	20861
886.025	21131
886.15	21036
886.275	20845
886.4	20842
886.525	20906
886.65	20902
886.775	20933
886.9	20944
887.025	21104
887.149	20937
887.274	20663
887.399	20720
887.523	20746
887.648	20697
887.773	20708
887.897	20743
888.021	20762
888.146	20678
888.27	20754
888.395	20758
888.519	20720
888.643	20758
888.767	20796
888.891	20613
889.015	20393
889.139	20522
889.263	20522
889.387	20575
889.511	20727
889.635	20701
889.759	20465
889.883	20427
890.006	20419
890.13	20602
890.254	20530
890.377	20473
890.501	20351
890.624	20202
890.748	20328
890.871	20161
890.995	20126
891.118	20119
891.241	20172
891.364	20107
891.488	20180
891.611	20126
891.734	20153
891.857	20084
891.98	20027
892.103	20081
892.226	20191
892.349	20119
892.471	19883
892.594	20073
892.717	20111
892.839	20058
892.962	20069
893.085	20054
893.207	20016
893.33	19875
893.452	19807
893.575	19993
893.697	19944
893.819	20256
893.941	20138
894.064	20168
894.186	19906
894.308	19978
894.43	20073
894.552	20065
894.674	19932
894.796	19845
894.918	19951
895.04	20001
895.161	20107
895.283	20027
895.405	19970
895.526	19936
895.648	19974
895.769	20039
895.891	19986
896.012	20180
896.134	20062
896.255	19978
896.376	19898
896.498	20039
896.619	19989
896.74	19909
896.861	20062
896.982	20282
897.103	20503
897.224	20275
897.345	20229
897.466	20168
897.587	20240
897.708	20332
897.828	20183
897.949	20134
898.07	20115
898.19	20119
898.311	20305
898.431	20107
898.552	20145
898.672	20153
898.792	20313
898.913	20214
899.033	20180
899.153	20069
899.273	19833
899.393	20081
899.513	20046
899.633	19989
899.753	19967
899.873	19826
899.993	20008
900.113	19932
900.232	19947
900.352	19841
900.472	19803
900.591	19715
900.711	19833
900.83	19712
900.95	19917
901.069	19788
901.189	19674
901.308	19400
901.427	19343
901.546	19362
901.665	19377
901.784	19422
901.904	19164
902.023	19232
902.141	18894
902.26	18840
902.379	19110
902.498	18867
902.617	18795
902.735	18920
902.854	18882
902.973	18760
903.091	18646
903.21	18502
903.328	18490
903.446	18353
903.565	18308
903.683	18391
903.801	18232
903.919	18338
904.038	18270
904.156	18174
904.274	18216
904.392	17973
904.51	18140
904.627	18041
904.745	18194
904.863	18144
904.981	17954
905.098	17832
905.216	17783
905.334	17878
905.451	17840
905.569	17699
905.686	17920
905.803	17695
905.921	17520
906.038	17646
906.155	17657
906.272	17490
906.389	17501
906.506	17414
906.623	17318
906.74	17292
906.857	17162
906.974	17090
907.091	17311
907.208	17452
907.324	17337
907.441	17269
907.557	17124
907.674	17067
907.79	16908
907.907	16999
908.023	17037
908.139	17102
908.256	17025
908.372	16957
908.488	17003
908.604	16717
908.72	16820
908.836	16759
908.952	16767
909.068	16801
909.184	16908
909.3	16778
909.415	16725
909.531	16733
909.647	16466
909.762	16432
909.878	16382
909.993	16531
910.108	16436
910.224	16386
910.339	16474
910.454	16306
910.57	16318
910.685	16192
910.8	16443
910.915	16542
911.03	16272
911.145	15979
911.259	16074
911.374	16078
911.489	15907
911.604	15934
911.718	15774
911.833	15762
911.947	15690
912.062	15648
912.176	15739
912.291	15694
912.405	15781
912.519	15880
912.633	15949
912.748	15819
912.862	15785
912.976	15644
913.09	15500
913.204	15576
913.318	15603
913.431	15762
913.545	15759
913.659	15629
913.772	15545
913.886	15466
914	15397
914.113	15443
914.226	15477
914.34	15382
914.453	15313
914.566	15401
914.68	15283
914.793	15294
914.906	15055
915.019	15047
915.132	15020
915.245	15032
915.358	15013
915.47	15005
915.583	14975
915.696	15043
915.809	15085
915.921	15199
916.034	14986
916.146	14963
916.259	14891
916.371	15005
916.483	14933
916.595	14952
916.708	14971
916.82	14811
916.932	14796
917.044	14830
917.156	14800
917.268	14617
917.38	14754
917.491	14693
917.603	14651
917.715	14670
917.826	14743
917.938	14731
918.049	14427
918.161	14712
918.272	14746
918.384	14598
918.495	14590
918.606	14404
918.717	14480
918.828	14465
918.939	14492
919.05	14317
919.161	14465
919.272	14206
919.383	14305
919.494	14533
919.604	14541
919.715	14320
919.826	14358
919.936	14412
920.047	14511
920.157	14362
920.267	14613
920.378	14336
920.488	14381
920.598	14575
920.708	14667
920.818	14503
920.928	14526
921.038	14826
921.148	14606
921.258	14389
921.368	14206
921.477	14164
921.587	14115
921.697	14142
921.806	14054
921.916	13959
922.025	13807
922.134	13761
922.244	13708
922.353	13776
922.462	13533
922.571	13715
922.68	13457
922.789	13400
922.898	13537
923.007	13388
923.116	13529
923.224	13396
923.333	13354
923.442	13339
923.55	13266
923.659	13365
923.767	13316
923.876	13145
923.984	13308
924.092	13103
924.201	13263
924.309	13190
924.417	13160
924.525	13152
924.633	13076
924.741	13944
924.849	12947
924.956	13019
925.064	12806
925.172	12776
925.279	12821
925.387	12920
925.494	12867
925.602	12993
925.709	12913
925.816	12776
925.924	12814
926.031	12867
926.138	12817
926.245	12798
926.352	12715
926.459	12806
926.566	12894
926.673	12616
926.779	12669
926.886	12585
926.993	12395
927.099	12391
927.206	12350
927.312	12399
927.419	12467
927.525	12342
927.631	12376
927.737	12254
927.843	12292
927.95	12178
928.056	12258
928.162	12289
928.267	12353
928.373	12928
928.479	12327
928.585	12136
928.69	12243
928.796	12235
928.901	12079
929.007	12034
929.112	12136
929.218	12022
929.323	11977
929.428	11969
929.533	12110
929.638	11889
929.743	11935
929.848	12007
929.953	11954
930.058	11741
930.163	11703
930.267	11665
930.372	11817
930.477	11627
930.581	11832
930.685	11680
930.79	11634
930.894	11505
930.998	11524
931.103	11680
931.207	11239
931.311	11212
931.415	11109
931.519	10946
931.623	10923
