Data from test_V78500241_1131.txt Node
Date: Fri Mar 25 15:17:43 CST 2022
User: usil
Spectrometer: V785-0024
Trigger mode: 0
Integration Time (sec): 4.000000E-1
Scans to average: 1
Nonlinearity correction enabled: false
Boxcar width: 0
Storing dark spectrum: false
XAxis mode: Wavelengths
Number of Pixels in Spectrum: 1024
>>>>>Begin Spectral Data<<<<<
801.071	28276
801.214	28295
801.356	27983
801.499	28044
801.641	27842
801.783	27732
801.926	27823
802.068	27724
802.211	27994
802.353	27816
802.496	27549
802.638	27732
802.78	27450
802.923	27496
803.065	27466
803.208	27427
803.35	27458
803.492	27603
803.635	27713
803.777	27690
803.919	27686
804.061	28097
804.204	27751
804.346	27713
804.488	27568
804.63	27857
804.773	27660
804.915	27857
805.057	27831
805.199	27774
805.341	27831
805.483	27972
805.626	27819
805.768	27698
805.91	27964
806.052	27797
806.194	27835
806.336	28112
806.478	27804
806.62	27903
806.762	27994
806.904	28158
807.046	28363
807.188	28284
807.33	28386
807.472	28287
807.614	28105
807.756	28284
807.898	28169
808.04	28124
808.182	28139
808.324	28341
808.465	28329
808.607	28413
808.749	28508
808.891	28694
809.033	28729
809.174	28687
809.316	28519
809.458	28413
809.6	28569
809.741	28656
809.883	28592
810.025	28820
810.166	28881
810.308	28877
810.45	28710
810.591	28683
810.733	28683
810.875	28615
811.016	28527
811.158	28424
811.299	28668
811.441	28801
811.582	28771
811.724	28535
811.865	28668
812.007	28531
812.148	28580
812.29	28588
812.431	28725
812.573	28915
812.714	29029
812.855	29235
812.997	29189
813.138	29284
813.279	29208
813.421	29273
813.562	29170
813.703	28915
813.845	28824
813.986	28672
814.127	28436
814.268	28333
814.41	28276
814.551	28226
814.692	28474
814.833	28306
814.974	28032
815.115	28265
815.256	28207
815.397	28139
815.539	28276
815.68	28120
815.821	28078
815.962	28090
816.103	28169
816.244	27983
816.385	27873
816.526	27865
816.666	27724
816.807	27686
816.948	27808
817.089	27690
817.23	27774
817.371	27553
817.512	27561
817.653	27717
817.793	27545
817.934	27755
818.075	27663
818.216	27709
818.356	27561
818.497	27519
818.638	27313
818.778	27249
818.919	27382
819.06	27408
819.2	27701
819.341	27660
819.481	27595
819.622	27770
819.762	28013
819.903	27907
820.043	27797
820.184	27736
820.324	27816
820.465	27797
820.605	27819
820.746	27743
820.886	27717
821.026	27701
821.167	27682
821.307	27561
821.447	27633
821.588	27595
821.728	27260
821.868	27188
822.008	27020
822.149	27157
822.289	27043
822.429	26880
822.569	26845
822.709	26750
822.849	26689
822.99	26613
823.13	26678
823.27	26518
823.41	26434
823.55	26434
823.69	26545
823.83	26552
823.97	26362
824.11	26275
824.25	26202
824.389	26324
824.529	26355
824.669	26339
824.809	26427
824.949	26419
825.089	26313
825.228	26286
825.368	26199
825.508	26039
825.648	26187
825.787	26263
825.927	26286
826.067	26088
826.206	26092
826.346	26267
826.485	26225
826.625	26134
826.765	26336
826.904	26142
827.044	25875
827.183	25997
827.323	25894
827.462	25890
827.601	25909
827.741	25944
827.88	26005
828.02	25750
828.159	25750
828.298	25811
828.437	25982
828.577	25795
828.716	26008
828.855	25841
828.994	25582
829.134	25518
829.273	25647
829.412	25571
829.551	25529
829.69	25597
829.829	25563
829.968	25670
830.107	25693
830.246	25616
830.385	25548
830.524	25544
830.663	25346
830.802	25362
830.941	25148
831.08	25213
831.219	25285
831.357	25255
831.496	25304
831.635	25152
831.774	25160
831.913	25194
832.051	25076
832.19	24989
832.329	25034
832.467	24840
832.606	24913
832.744	24768
832.883	24981
833.022	24867
833.16	24798
833.299	24985
833.437	24935
833.576	25042
833.714	24962
833.852	25065
833.991	25042
834.129	25004
834.267	25038
834.406	24992
834.544	24871
834.682	24981
834.821	24886
834.959	25050
835.097	24772
835.235	24966
835.373	25000
835.511	24966
835.65	24840
835.788	24658
835.926	24681
836.064	24711
836.202	24741
836.34	24779
836.478	24924
836.615	24764
836.753	24738
836.891	24913
837.029	24795
837.167	24787
837.305	24661
837.443	24707
837.58	24654
837.718	24821
837.856	24753
837.993	24578
838.131	24654
838.269	24403
838.406	24555
838.544	24429
838.681	24205
838.819	24323
838.956	24163
839.094	24163
839.231	24136
839.369	24266
839.506	24547
839.643	24334
839.781	24060
839.918	24041
840.055	24038
840.193	23977
840.33	23988
840.467	24018
840.604	24091
840.742	24289
840.879	23866
841.016	24030
841.153	23893
841.29	24232
841.427	23958
841.564	24034
841.701	23920
841.838	24106
841.975	23923
842.112	23950
842.249	23760
842.385	23729
842.522	24076
842.659	23927
842.796	23760
842.933	23748
843.069	23737
843.206	23760
843.343	23863
843.479	23904
843.616	23817
843.752	23707
843.889	23733
844.025	23623
844.162	23554
844.298	23729
844.435	23649
844.571	23493
844.708	23467
844.844	23756
844.98	23737
845.117	23707
845.253	23459
845.389	23497
845.525	23478
845.661	23360
845.798	23204
845.934	23368
846.07	23341
846.206	23280
846.342	23353
846.478	23197
846.614	23105
846.75	23102
846.886	23060
847.022	22949
847.158	23060
847.294	22930
847.429	23014
847.565	22904
847.701	23334
847.837	22740
847.972	22660
848.108	22889
848.244	22782
848.379	22607
848.515	22588
848.65	22649
848.786	22641
848.921	22660
849.057	22656
849.192	22767
849.328	22816
849.463	22516
849.598	22561
849.734	22523
849.869	22474
850.004	22409
850.14	22299
850.275	22409
850.41	22382
850.545	22249
850.68	22363
850.815	22428
850.95	22375
851.085	22481
851.22	22466
851.355	22306
851.49	22276
851.625	22367
851.76	22318
851.895	22219
852.03	22238
852.165	22325
852.299	22344
852.434	22432
852.569	22367
852.703	22314
852.838	22481
852.973	22478
853.107	22550
853.242	22325
853.376	22265
853.511	22147
853.645	22204
853.78	22287
853.914	22143
854.048	22124
854.183	22219
854.317	22253
854.451	22341
854.585	22166
854.72	22219
854.854	22257
854.988	22093
855.122	22207
855.256	22021
855.39	22086
855.524	22246
855.658	22272
855.792	22116
855.926	22207
856.06	22329
856.194	22185
856.327	22093
856.461	22139
856.595	22135
856.729	22177
856.862	22325
856.996	22090
857.13	22246
857.263	22223
857.397	22280
857.53	22246
857.664	22185
857.797	22200
857.931	22166
858.064	22188
858.197	22306
858.331	22173
858.464	22128
858.597	22002
858.731	22131
858.864	22303
858.997	22177
859.13	22242
859.263	22238
859.396	22268
859.529	22158
859.662	22025
859.795	22032
859.928	22143
860.061	22398
860.194	22341
860.327	22375
860.46	22154
860.592	22169
860.725	22390
860.858	22344
860.99	22215
861.123	22143
861.256	22188
861.388	22067
861.521	22984
861.653	22063
861.786	21972
861.918	22082
862.05	22109
862.183	22040
862.315	22196
862.447	22150
862.58	22097
862.712	21876
862.844	21819
862.976	21918
863.108	21926
863.24	22481
863.372	21876
863.504	21926
863.636	21857
863.768	21895
863.9	21823
864.032	21869
864.164	21994
864.296	21937
864.428	21918
864.559	21956
864.691	21994
864.823	21937
864.954	21854
865.086	21831
865.217	21888
865.349	21709
865.48	21812
865.612	21747
865.743	21861
865.875	21869
866.006	21709
866.137	21831
866.269	21625
866.4	21827
866.531	21656
866.662	21538
866.793	21679
866.924	21591
867.055	21682
867.186	21641
867.317	21614
867.448	21576
867.579	21736
867.71	21606
867.841	21618
867.972	21614
868.103	21553
868.233	21641
868.364	21610
868.495	21835
868.625	21884
868.756	21987
868.886	21945
869.017	21816
869.147	22112
869.278	22082
869.408	22010
869.539	21918
869.669	21956
869.799	21926
869.929	22147
870.06	22070
870.19	22074
870.32	22162
870.45	22154
870.58	22280
870.71	22371
870.84	22360
870.97	22303
871.1	22253
871.23	22459
871.36	22588
871.489	22367
871.619	22375
871.749	22459
871.879	22478
872.008	22535
872.138	22432
872.267	22500
872.397	22424
872.526	22341
872.656	22390
872.785	22405
872.915	22462
873.044	22713
873.173	22512
873.303	22584
873.432	22542
873.561	22580
873.69	22691
873.819	22630
873.948	22649
874.077	22599
874.206	22523
874.335	22493
874.464	22546
874.593	22797
874.722	22778
874.851	22668
874.979	22820
875.108	22774
875.237	22786
875.365	22607
875.494	22828
875.623	22850
875.751	22828
875.88	22721
876.008	22831
876.136	22930
876.265	23071
876.393	23178
876.521	23109
876.65	23170
876.778	23086
876.906	23197
877.034	23048
877.162	23041
877.29	22995
877.418	23220
877.546	23204
877.674	23060
877.802	23079
877.93	23136
878.058	22904
878.185	22934
878.313	22984
878.441	23067
878.568	22850
878.696	23048
878.824	23121
878.951	23246
879.079	23246
879.206	23410
879.333	23174
879.461	23109
879.588	23014
879.715	23288
879.842	23330
879.97	23269
880.097	22957
880.224	22904
880.351	22949
880.478	22942
880.605	22805
880.732	22748
880.859	23204
880.986	22923
881.112	22957
881.239	22744
881.366	22607
881.493	22687
881.619	22481
881.746	22451
881.872	22432
881.999	22424
882.125	22436
882.252	22516
882.378	22436
882.505	22630
882.631	22299
882.757	22200
882.883	22291
883.01	22158
883.136	22131
883.262	22105
883.388	22086
883.514	22211
883.64	22284
883.766	22063
883.892	21926
884.018	21907
884.143	22025
884.269	22192
884.395	21911
884.52	21812
884.646	21895
884.772	21759
884.897	21724
885.023	21884
885.148	21895
885.274	22013
885.399	21922
885.524	21846
885.65	21827
885.775	21739
885.9	21808
886.025	21831
886.15	21857
886.275	21728
886.4	21690
886.525	21766
886.65	21713
886.775	21743
886.9	21937
887.025	22017
887.149	21759
887.274	21542
887.399	21572
887.523	21622
887.648	21507
887.773	21515
887.897	21633
888.021	21667
888.146	21511
888.27	21641
888.395	21610
888.519	21564
888.643	21549
888.767	21587
888.891	21378
889.015	21469
889.139	21363
889.263	21386
889.387	21397
889.511	21485
889.635	21462
889.759	21336
889.883	21344
890.006	21393
890.13	21359
890.254	21473
890.377	21237
890.501	21150
890.624	21062
890.748	21135
890.871	20967
890.995	20804
891.118	20785
891.241	21070
891.364	20857
891.488	21024
891.611	20872
891.734	20895
891.857	20933
891.98	20861
892.103	20887
892.226	20925
892.349	20815
892.471	20857
892.594	20845
892.717	20876
892.839	20777
892.962	20830
893.085	21005
893.207	20880
893.33	20674
893.452	20686
893.575	20845
893.697	20834
893.819	20929
893.941	20982
894.064	20956
894.186	20800
894.308	20720
894.43	20902
894.552	20941
894.674	20921
894.796	20796
894.918	20731
895.04	20853
895.161	20857
895.283	20929
895.405	20777
895.526	20845
895.648	20648
895.769	20720
895.891	20857
896.012	20910
896.134	20883
896.255	20765
896.376	20724
896.498	20609
896.619	20826
896.74	20800
896.861	20819
896.982	21051
897.103	21233
897.224	20937
897.345	20998
897.466	20849
897.587	20891
897.708	21058
897.828	20998
897.949	20921
898.07	20891
898.19	20960
898.311	21085
898.431	20876
898.552	20838
898.672	21017
898.792	21009
898.913	20914
899.033	20807
899.153	20819
899.273	20670
899.393	20731
899.513	20750
899.633	20689
899.753	20735
899.873	20705
899.993	20689
900.113	20530
900.232	20746
900.352	20651
900.472	20629
900.591	20587
900.711	20355
900.83	20393
900.95	20632
901.069	20590
901.189	20317
901.308	20149
901.427	20107
901.546	19921
901.665	20027
901.784	20054
901.904	20039
902.023	19757
902.141	19647
902.26	19609
902.379	19662
902.498	19666
902.617	19540
902.735	19609
902.854	19559
902.973	19556
903.091	19217
903.21	19301
903.328	19137
903.446	19141
903.565	19107
903.683	19099
903.801	18939
903.919	18947
904.038	19015
904.156	18825
904.274	18829
904.392	18722
904.51	18669
904.627	18776
904.745	18821
904.863	18844
904.981	18532
905.098	18433
905.216	18407
905.334	18521
905.451	18574
905.569	18494
905.686	18452
905.803	18369
905.921	18273
906.038	18342
906.155	18311
906.272	18163
906.389	18167
906.506	17988
906.623	18091
906.74	18011
906.857	17958
906.974	17946
907.091	18060
907.208	18007
907.324	17980
907.441	17836
907.557	17737
907.674	17771
907.79	17752
907.907	17703
908.023	17649
908.139	17695
908.256	17680
908.372	17600
908.488	17638
908.604	17490
908.72	17463
908.836	17337
908.952	17383
909.068	17570
909.184	17486
909.3	17372
909.415	17433
909.531	17406
909.647	17136
909.762	17128
909.878	17143
909.993	17162
910.108	17136
910.224	17022
910.339	16984
910.454	17014
910.57	16911
910.685	16934
910.8	17056
910.915	17018
911.03	16896
911.145	16847
911.259	16702
911.374	16675
911.489	16649
911.604	16603
911.718	16329
911.833	16390
911.947	16363
912.062	16238
912.176	16382
912.291	16421
912.405	16451
912.519	16573
912.633	16561
912.748	16527
912.862	16382
912.976	16386
913.09	16207
913.204	16196
913.318	16287
913.431	16215
913.545	16314
913.659	16299
913.772	16188
913.886	16025
914	16021
914.113	16071
914.226	16181
914.34	16173
914.453	15911
914.566	16120
914.68	15945
914.793	15907
914.906	15770
915.019	15625
915.132	15519
915.245	15701
915.358	15599
915.47	15675
915.583	15751
915.696	15561
915.809	15667
915.921	15766
916.034	15542
916.146	15500
916.259	15473
916.371	15538
916.483	15564
916.595	15469
916.708	15488
916.82	15500
916.932	15431
917.044	15363
917.156	15294
917.268	15351
917.38	15370
917.491	15245
917.603	15298
917.715	15302
917.826	15321
917.938	15176
918.049	15085
918.161	15294
918.272	15241
918.384	15332
918.495	15249
918.606	15081
918.717	14960
918.828	15047
918.939	15020
919.05	15039
919.161	14956
919.272	14910
919.383	14815
919.494	15024
919.604	15218
919.715	15043
919.826	14891
919.936	14834
920.047	14979
920.157	14967
920.267	15241
920.378	14929
920.488	14948
920.598	15138
920.708	15188
920.818	15150
920.928	15077
921.038	15268
921.148	15195
921.258	14918
921.368	14746
921.477	14701
921.587	14739
921.697	14587
921.806	14765
921.916	14575
922.025	14366
922.134	14366
922.244	14263
922.353	14408
922.462	14271
922.571	14206
922.68	13871
922.789	13982
922.898	13925
923.007	13879
923.116	13989
923.224	14024
923.333	13989
923.442	13780
923.55	13807
923.659	13746
923.767	13845
923.876	13803
923.984	13799
924.092	13769
924.201	13734
924.309	13723
924.417	13681
924.525	13548
924.633	13567
924.741	14545
924.849	13441
924.956	13529
925.064	13392
925.172	13335
925.279	13297
925.387	13396
925.494	13415
925.602	13533
925.709	13358
925.816	13217
925.924	13282
926.031	13426
926.138	13289
926.245	13373
926.352	13183
926.459	13384
926.566	13266
926.673	13289
926.779	13053
926.886	13129
926.993	12920
927.099	12973
927.206	12909
927.312	12776
927.419	12844
927.525	12875
927.631	12894
927.737	12741
927.843	12787
927.95	12604
928.056	12802
928.162	12814
928.267	12783
928.373	13289
928.479	12757
928.585	12582
928.69	12696
928.796	12757
928.901	12544
929.007	12441
929.112	12646
929.218	12471
929.323	12506
929.428	12407
929.533	12570
929.638	12353
929.743	12365
929.848	12376
929.953	12338
930.058	12247
930.163	12114
930.267	12182
930.372	12190
930.477	12098
930.581	12357
930.685	12091
930.79	11992
930.894	12079
930.998	11984
931.103	12106
931.207	11809
931.311	11703
931.415	11532
931.519	11512
931.623	11421
